# ATMO pressure-temperature profile
# Effective temperature = 900.0K
# log(g) = 3.0cm/s^2
# M/H = 0.0
# Optical depth grid in band 17 (1.20-1.33microns)
# All parameters in cgs units
#
# Model Level      Optical Depth    Pressure         Temperature      Density          Number Density   Rad Flux         Conv Flux        Radial Extension Adiabatic Gradient
#                                   [Ba]             [K]              [g/cm^3]         [/cm^3]          [ergs/s/cm^2/sr] [ergs/s/cm^2/sr] [cm]             [K/Ba]          
  1                1.00000000E-04   1.00000000E-05   243.17991313     1.16556093E-09   2.97850368E+14   3.72000093E+07   0.00000000E+00   4.15232062E+08   0.30424143      
  2                1.17489755E-04   9.26659108E-05   292.54957325     8.97806447E-09   2.29427974E+15   3.72000093E+07   0.00000000E+00   3.89677549E+08   0.30138883      
  3                1.38038426E-04   1.81435390E-04   311.55569030     1.65062248E-08   4.21805418E+15   3.72000093E+07   0.00000000E+00   3.82385520E+08   0.29970891      
  4                1.62181010E-04   2.81631339E-04   326.56316191     2.44441256E-08   6.24654146E+15   3.72000093E+07   0.00000000E+00   3.77397375E+08   0.29944531      
  5                1.90546072E-04   3.96098891E-04   336.55363129     3.33587270E-08   8.52462307E+15   3.72000093E+07   0.00000000E+00   3.73388796E+08   0.29870331      
  6                2.23872114E-04   5.27628333E-04   347.32714635     4.30575803E-08   1.10031041E+16   3.72000093E+07   0.00000000E+00   3.69918284E+08   0.29862976      
  7                2.63026799E-04   6.79223417E-04   355.09943955     5.42153720E-08   1.38544249E+16   3.72000093E+07   0.00000000E+00   3.66780673E+08   0.30030999      
  8                3.09029543E-04   8.54286721E-04   364.58446490     6.64147784E-08   1.69719341E+16   3.72000093E+07   0.00000000E+00   3.63863235E+08   0.30030901      
  9                3.63078055E-04   1.05667069E-03   371.67481660     8.05815046E-08   2.05921819E+16   3.72000093E+07   0.00000000E+00   3.61096765E+08   0.30008661      
  10               4.26579519E-04   1.29084594E-03   380.66420574     9.61148608E-08   2.45616880E+16   3.72000093E+07   0.00000000E+00   3.58435868E+08   0.30009975      
  11               5.01187234E-04   1.56194073E-03   387.50624255     1.14247980E-07   2.91952156E+16   3.72000093E+07   0.00000000E+00   3.55848831E+08   0.29992502      
  12               5.88843655E-04   1.87591840E-03   396.35257439     1.34151194E-07   3.42813644E+16   3.72000093E+07   0.00000000E+00   3.53312667E+08   0.29994149      
  13               6.91830971E-04   2.23965369E-03   403.12319894     1.57472628E-07   4.02410141E+16   3.72000093E+07   0.00000000E+00   3.50810101E+08   0.29979869      
  14               8.12830516E-04   2.66110136E-03   412.03217790     1.83059355E-07   4.67795589E+16   3.72000093E+07   0.00000000E+00   3.48327853E+08   0.29981332      
  15               9.54992586E-04   3.14937132E-03   419.06545252     2.13011669E-07   5.44336991E+16   3.72000093E+07   0.00000000E+00   3.45855204E+08   0.29969214      
  16               1.12201845E-03   3.71501213E-03   428.43871998     2.45771547E-07   6.28054546E+16   3.72000093E+07   0.00000000E+00   3.43383063E+08   0.29970504      
  17               1.31825674E-03   4.37016649E-03   436.08026200     2.84069508E-07   7.25867568E+16   3.72000093E+07   0.00000000E+00   3.40903513E+08   0.29959843      
  18               1.54881662E-03   5.12865292E-03   446.29920435     3.25741107E-07   8.32344351E+16   3.72000093E+07   0.00000000E+00   3.38410068E+08   0.29960897      
  19               1.81970086E-03   6.00665754E-03   454.09384905     3.74957890E-07   9.58104969E+16   3.72000093E+07   0.00000000E+00   3.35897781E+08   0.29951112      
  20               2.13796209E-03   7.02424283E-03   463.50536148     4.29575820E-07   1.09766697E+17   3.72000093E+07   0.00000000E+00   3.33362304E+08   0.29951947      
  21               2.51188643E-03   8.20358968E-03   471.42180381     4.93275152E-07   1.26043398E+17   3.72000093E+07   0.00000000E+00   3.30800317E+08   0.29942819      
  22               2.95120923E-03   9.57015214E-03   481.15370328     5.63806193E-07   1.44065785E+17   3.72000093E+07   0.00000000E+00   3.28209003E+08   0.29943423      
  23               3.46736850E-03   1.11530118E-02   489.52103207     6.45826042E-07   1.65023824E+17   3.72000093E+07   0.00000000E+00   3.25585874E+08   0.29934509      
  24               4.07380278E-03   1.29854717E-02   499.87124078     7.36366805E-07   1.88159183E+17   3.72000093E+07   0.00000000E+00   3.22928641E+08   0.29934888      
  25               4.78630092E-03   1.51056246E-02   508.95659385     8.41303107E-07   2.14972933E+17   3.72000093E+07   0.00000000E+00   3.20234975E+08   0.29925664      
  26               5.62341325E-03   1.75574735E-02   520.07014967     9.56961665E-07   2.44526502E+17   3.72000093E+07   0.00000000E+00   3.17502411E+08   0.29925661      
  27               6.60693448E-03   2.03918992E-02   529.99178022     1.09064377E-06   2.78685505E+17   3.72000093E+07   0.00000000E+00   3.14727965E+08   0.29915869      
  28               7.76247117E-03   2.36667581E-02   542.14295314     1.23742602E-06   3.16191940E+17   3.72000093E+07   0.00000000E+00   3.11908988E+08   0.29915632      
  29               9.12010839E-03   2.74476034E-02   553.30291459     1.40616312E-06   3.59308352E+17   3.72000093E+07   0.00000000E+00   3.09042756E+08   0.29904493      
  30               1.07151931E-02   3.18088883E-02   566.85202663     1.59064380E-06   4.06447659E+17   3.72000093E+07   0.00000000E+00   3.06126604E+08   0.29903569      
  31               1.25892541E-02   3.68339661E-02   579.50302382     1.80171828E-06   4.60382299E+17   3.72000093E+07   0.00000000E+00   3.03158269E+08   0.29890514      
  32               1.47910839E-02   4.26154963E-02   594.80298356     2.03089961E-06   5.18943710E+17   3.72000093E+07   0.00000000E+00   3.00135847E+08   0.29891932      
  33               1.73780083E-02   4.92547001E-02   609.52892177     2.29058999E-06   5.85300912E+17   3.72000093E+07   0.00000000E+00   2.97057638E+08   0.29875819      
  34               2.04173794E-02   5.68637910E-02   627.13211877     2.57022266E-06   6.56753817E+17   3.72000092E+07   0.00000000E+00   2.93921655E+08   0.29869723      
  35               2.39883292E-02   6.55731313E-02   644.28618970     2.88496834E-06   7.37178975E+17   3.72000092E+07   0.00000000E+00   2.90723280E+08   0.29846972      
  36               2.81838293E-02   7.55303963E-02   664.50411688     3.22194479E-06   8.23284477E+17   3.72000092E+07   0.00000000E+00   2.87457322E+08   0.29840211      
  37               3.31131121E-02   8.68925443E-02   684.60226163     3.59781151E-06   9.19327019E+17   3.72000092E+07   0.00000000E+00   2.84120122E+08   0.29815094      
  38               3.89045145E-02   9.98238015E-02   708.13118147     3.99590688E-06   1.02104816E+18   3.72000091E+07   0.00000000E+00   2.80709654E+08   0.29804948      
  39               4.57088190E-02   1.14494302E-01   731.83201864     4.43475663E-06   1.13317845E+18   3.72000091E+07   0.00000000E+00   2.77224655E+08   0.29767675      
  40               5.37031796E-02   1.31077951E-01   759.01690544     4.89528559E-06   1.25084654E+18   3.72000090E+07   0.00000000E+00   2.73665420E+08   0.29750719      
  41               6.30957344E-02   1.49764016E-01   786.63347824     5.39678078E-06   1.37898929E+18   3.72000085E+07   0.00000000E+00   2.70029943E+08   0.29701653      
  42               7.41310241E-02   1.70776260E-01   819.00748687     5.91070333E-06   1.51030780E+18   3.71286758E+07   7.11792065E+04   2.66309578E+08   0.29674144      
  43               8.70963590E-02   1.94347755E-01   849.87647118     6.48221129E-06   1.65634027E+18   3.69606079E+07   2.39111793E+05   2.62501498E+08   0.29601677      
  44               1.02329299E-01   2.20727502E-01   883.63679051     7.08080820E-06   1.80929131E+18   3.67327214E+07   4.66822498E+05   2.58607749E+08   0.29557308      
  45               1.20226443E-01   2.50154513E-01   915.71564398     7.74387403E-06   1.97867082E+18   3.64796360E+07   7.19717035E+05   2.54633755E+08   0.29467376      
  46               1.41253754E-01   2.82885254E-01   950.66566730     8.43502516E-06   2.15530303E+18   3.62248513E+07   9.74296356E+05   2.50583954E+08   0.29405672      
  47               1.65958691E-01   3.19313749E-01   983.86457559     9.19977351E-06   2.35075915E+18   3.59887787E+07   1.21012781E+06   2.46448630E+08   0.29291767      
  48               1.94984460E-01   3.59831326E-01   1020.08510343    9.99873105E-06   2.55498529E+18   3.57759073E+07   1.42272951E+06   2.42224059E+08   0.29201465      
  49               2.29086765E-01   4.04804104E-01   1054.44230296    1.08815804E-05   2.78066023E+18   3.55925510E+07   1.60580003E+06   2.37912528E+08   0.2905027       
  50               2.69153480E-01   4.54598679E-01   1091.77433297    1.18019053E-05   3.01592911E+18   3.54413517E+07   1.75670262E+06   2.33518527E+08   0.28939044      
  51               3.16227766E-01   5.09585054E-01   1127.08215718    1.28146755E-05   3.27481633E+18   3.53251502E+07   1.87260056E+06   2.29047313E+08   0.28777042      
  52               3.71535229E-01   5.70241897E-01   1165.36014325    1.38687136E-05   3.54425370E+18   3.52476997E+07   1.94973821E+06   2.24497348E+08   0.28652253      
  53               4.36515832E-01   6.37238143E-01   1201.63971115    1.50299713E-05   3.84107980E+18   3.52063290E+07   1.99082593E+06   2.19856970E+08   0.2847639       
  54               5.12861384E-01   7.11225394E-01   1241.03555762    1.62423257E-05   4.15096307E+18   3.51917792E+07   2.00513853E+06   2.15121601E+08   0.28345846      
  55               6.02559586E-01   7.92825684E-01   1278.40666923    1.75764136E-05   4.49194596E+18   3.51892251E+07   2.00751484E+06   2.10292096E+08   0.28160557      
  56               7.07945784E-01   8.82666625E-01   1318.85514061    1.89678597E-05   4.84758518E+18   3.51989825E+07   1.99762938E+06   2.05371700E+08   0.28027907      
  57               8.31763771E-01   9.81412028E-01   1357.20245348    2.04938746E-05   5.23760304E+18   3.52043141E+07   1.99218958E+06   2.00363336E+08   0.27857321      
  58               9.77237221E-01   1.08977250E+00   1398.61590669    2.20828471E-05   5.64369090E+18   3.51909163E+07   2.00544381E+06   1.95269654E+08   0.27753082      
  59               1.14815362E+00   1.20878485E+00   1438.00847542    2.38236196E-05   6.08854335E+18   3.50986864E+07   2.09751270E+06   1.90080918E+08   0.27585115      
  60               1.34896288E+00   1.33940642E+00   1480.50242562    2.56412988E-05   6.55283291E+18   3.48616130E+07   2.33437910E+06   1.84795925E+08   0.2746103       
  61               1.58489319E+00   1.48226871E+00   1520.85114446    2.76253876E-05   7.05937206E+18   3.43645141E+07   2.83123164E+06   1.79428094E+08   0.27271193      
  62               1.86208714E+00   1.63705229E+00   1563.78445954    2.96801281E-05   7.58248392E+18   3.35079629E+07   3.68749142E+06   1.74022369E+08   0.27143702      
  63               2.18776162E+00   1.80238700E+00   1603.75631982    3.18651043E-05   8.14020805E+18   3.21376624E+07   5.05765350E+06   1.68646155E+08   0.26951935      
  64               2.57039578E+00   1.97443968E+00   1644.79494543    3.40400292E-05   8.69476698E+18   3.01386068E+07   7.05776480E+06   1.63422027E+08   0.26825446      
  65               3.01995172E+00   2.14399330E+00   1680.19337636    3.61968086E-05   9.24251140E+18   2.75652656E+07   9.63540649E+06   1.58591534E+08   0.26618341      
  66               3.54813389E+00   2.29824607E+00   1712.64905996    3.80826002E-05   9.71972518E+18   2.49046301E+07   1.22904545E+07   1.54436761E+08   0.26478099      
  67               4.16869383E+00   2.46096742E+00   1742.67389224    4.00929183E-05   1.02285855E+19   2.23688918E+07   1.48268345E+07   1.50272341E+08   0.26311268      
  68               4.89778819E+00   2.60571598E+00   1770.17889394    4.18027860E-05   1.06619283E+19   2.00730866E+07   1.71476706E+07   1.46736488E+08   0.26217144      
  69               5.75439937E+00   2.72408797E+00   1789.71064694    4.32251398E-05   1.10246331E+19   1.83970349E+07   1.88051093E+07   1.43951789E+08   0.26096404      
  70               6.76082975E+00   2.85604379E+00   1813.06867158    4.47350022E-05   1.14097584E+19   1.70729872E+07   2.01028412E+07   1.40950991E+08   0.26024458      
  71               7.94328235E+00   3.00341744E+00   1835.76339533    4.64595437E-05   1.18501769E+19   1.53788712E+07   2.18374061E+07   1.37718340E+08   0.25901643      
  72               9.33254301E+00   3.11103573E+00   1853.68093569    4.77031207E-05   1.21561445E+19   1.35165301E+07   2.37927634E+07   1.35432019E+08   0.25845743      
  73               1.09647820E+01   3.18429356E+00   1863.72328811    4.85630543E-05   1.23753504E+19   1.24078693E+07   2.48464766E+07   1.33909973E+08   0.25749205      
  74               1.28824955E+01   3.26742777E+00   1877.24221495    4.94714438E-05   1.26069934E+19   1.17596628E+07   2.54097428E+07   1.32213881E+08   0.25700987      
  75               1.51356125E+01   3.36206080E+00   1889.92891038    5.05619093E-05   1.28850448E+19   1.11446423E+07   2.60244982E+07   1.30321738E+08   0.25606956      
  76               1.77827941E+01   3.46939843E+00   1906.29913365    5.17271359E-05   1.31822325E+19   1.06386578E+07   2.65311383E+07   1.28222890E+08   0.25564167      
  77               2.08929613E+01   3.59069315E+00   1921.98719680    5.30975675E-05   1.35317399E+19   1.00521945E+07   2.71186459E+07   1.25908452E+08   0.25444021      
  78               2.45470892E+01   3.72714065E+00   1941.37899736    5.45633393E-05   1.39056500E+19   9.52901191E+06   2.76427170E+07   1.23373452E+08   0.25383467      
  79               2.88403150E+01   3.87992510E+00   1960.15990465    5.62542056E-05   1.43369800E+19   8.94584921E+06   2.82263623E+07   1.20615724E+08   0.25244177      
  80               3.38844156E+01   4.05080532E+00   1982.62603177    5.80640936E-05   1.47987968E+19   8.46163599E+06   2.87120133E+07   1.17625796E+08   0.25163161      
  81               3.98107171E+01   4.24121027E+00   2004.57361875    6.01252897E-05   1.53247583E+19   7.94798146E+06   2.92275358E+07   1.14403273E+08   0.25006491      
  82               4.67735141E+01   4.45383686E+00   2030.21740538    6.23386885E-05   1.58897695E+19   7.53720079E+06   2.96396166E+07   1.10930227E+08   0.24886166      
  83               5.49540874E+01   4.69062230E+00   2055.45627564    6.48429513E-05   1.65290564E+19   7.06749917E+06   3.01106813E+07   1.07205923E+08   0.24695198      
  84               6.45654229E+01   4.95366026E+00   2084.25383374    6.75278882E-05   1.72147789E+19   6.65774708E+06   3.05217873E+07   1.03230842E+08   0.24545612      
  85               7.58577575E+01   5.24517099E+00   2112.61771410    7.05359172E-05   1.79831006E+19   6.19547429E+06   3.09854451E+07   9.90069934E+07   0.24310845      
  86               8.91250938E+01   5.56758571E+00   2144.30715513    7.37573902E-05   1.88064038E+19   5.79355839E+06   3.13886960E+07   9.45369914E+07   0.24133617      
  87               1.04712855E+02   5.92349822E+00   2175.54890502    7.73365102E-05   1.97212869E+19   5.35031654E+06   3.18332652E+07   8.98245171E+07   0.23854393      
  88               1.23026877E+02   6.31578942E+00   2209.78855334    8.11687495E-05   2.07015451E+19   4.96497214E+06   3.22198197E+07   8.48731750E+07   0.23640849      
  89               1.44543977E+02   6.74755373E+00   2243.58691758    8.53976079E-05   2.17835819E+19   4.54382883E+06   3.26421640E+07   7.96871978E+07   0.23278741      
  90               1.69824365E+02   7.22229914E+00   2279.87447675    8.99335248E-05   2.29451222E+19   4.18389294E+06   3.30031536E+07   7.42699517E+07   0.23027805      
  91               1.99526231E+02   7.74382651E+00   2315.88234768    9.49076053E-05   2.42194882E+19   3.80950815E+06   3.33785366E+07   6.86249079E+07   0.22692295      
  92               2.34422882E+02   8.31604669E+00   2354.01288034    1.00253634E-04   2.55878575E+19   3.47519380E+06   3.37137134E+07   6.27584320E+07   0.22416088      
  93               2.75422870E+02   8.94362055E+00   2391.88487408    1.06081624E-04   2.70831349E+19   3.14849365E+06   3.40412127E+07   5.66729258E+07   0.22060417      
  94               3.23593657E+02   9.63213081E+00   2431.56192267    1.12345755E-04   2.86921358E+19   2.86559413E+06   3.43247819E+07   5.03660481E+07   0.21755398      
  95               3.80189396E+02   1.03873103E+01   2471.03995581    1.19173750E-04   3.04473274E+19   2.58634081E+06   3.46045854E+07   4.38394921E+07   0.21390937      
  96               4.46683592E+02   1.12157625E+01   2512.04147837    1.26523470E-04   3.23390933E+19   2.33605113E+06   3.48552935E+07   3.70927429E+07   0.21062461      
  97               5.24807460E+02   1.21247909E+01   2552.86776205    1.34526886E-04   3.44010562E+19   2.09857276E+06   3.50931566E+07   3.01250276E+07   0.20691981      
  98               6.16595002E+02   1.31226145E+01   2595.00149818    1.43156404E-04   3.66276115E+19   1.88867566E+06   3.53033277E+07   2.29347218E+07   0.20344051      
  99               7.24435960E+02   1.42184191E+01   2636.95259412    1.52553366E-04   3.90548368E+19   1.69446878E+06   3.54977365E+07   1.55195637E+07   0.19986587      
  100              8.51138038E+02   1.54225944E+01   2680.13194155    1.62699384E-04   4.16799416E+19   1.52232875E+06   3.56700112E+07   7.87610489E+06   0.19626578      
  101              1.00000000E+03   1.67468685E+01   2723.03905474    1.73762138E-04   4.45456787E+19   1.42712230E+06   3.57650405E+07   0.00000000E+00   0.19279452      
