# ATMO pressure-temperature profile
# Effective temperature = 350.0K
# log(g) = 3.5cm/s^2
# M/H = 0.0
# Optical depth grid in band 17 (1.20-1.33microns)
# All parameters in cgs units
#
# Model Level      Optical Depth    Pressure         Temperature      Density          Number Density   Rad Flux         Conv Flux        Radial Extension Adiabatic Gradient
#                                   [Ba]             [K]              [g/cm^3]         [/cm^3]          [ergs/s/cm^2/sr] [ergs/s/cm^2/sr] [cm]             [K/Ba]          
  1                5.00000000E-05   1.00000000E-05   42.12008771      6.72738407E-09   1.71963618E+15   8.50753756E+05   0.00000000E+00   8.71796585E+07   0.34574565      
  2                5.91534807E-05   7.50388843E-05   52.58899879      4.04321611E-08   1.03351624E+16   8.50753756E+05   0.00000000E+00   8.59326010E+07   0.34574564      
  3                6.99826855E-05   1.51880654E-04   58.60899488      7.34300246E-08   1.87699892E+16   8.50753756E+05   0.00000000E+00   8.54866398E+07   0.31479359      
  4                8.27943887E-05   2.42670601E-04   63.57156990      1.08165738E-07   2.76490408E+16   8.50753756E+05   0.00000000E+00   8.51644914E+07   0.3148093       
  5                9.79515255E-05   3.49928906E-04   67.03145905      1.47923317E-07   3.78117682E+16   8.50753756E+05   0.00000000E+00   8.48963476E+07   0.31482219      
  6                1.15883473E-04   4.76619418E-04   70.98574774      1.90254991E-07   4.86324792E+16   8.50753756E+05   0.00000000E+00   8.46575347E+07   0.31483351      
  7                1.37098216E-04   6.25719651E-04   73.93756551      2.39800529E-07   6.12971789E+16   8.50753756E+05   0.00000000E+00   8.44367926E+07   0.31484385      
  8                1.62196734E-04   7.99378492E-04   77.77444753      2.91239994E-07   7.44459992E+16   8.50753756E+05   0.00000000E+00   8.42289922E+07   0.31485355      
  9                1.91890027E-04   1.00044119E-03   80.63845454      3.51548182E-07   8.98618192E+16   8.50753756E+05   0.00000000E+00   8.40302850E+07   0.31486283      
  10               2.27019260E-04   1.23260734E-03   84.52362152      4.13220770E-07   1.05626404E+17   8.50753756E+05   0.00000000E+00   8.38376588E+07   0.31487178      
  11               2.68579588E-04   1.50056544E-03   87.49478365      4.85968665E-07   1.24222029E+17   8.50753756E+05   0.00000000E+00   8.36485674E+07   0.31488049      
  12               3.17748350E-04   1.81038464E-03   91.63856237      5.59793793E-07   1.43093013E+17   8.50753756E+05   0.00000000E+00   8.34607265E+07   0.314889        
  13               3.75918418E-04   2.16898423E-03   94.80357561      6.48286782E-07   1.65713358E+17   8.50753756E+05   0.00000000E+00   8.32724864E+07   0.31489737      
  14               4.44737657E-04   2.58432009E-03   99.32887658      7.37235551E-07   1.88450207E+17   8.50753756E+05   0.00000000E+00   8.30825043E+07   0.31490565      
  15               5.26155608E-04   3.06555997E-03   102.89185158     8.44235687E-07   2.15801607E+17   8.50753756E+05   0.00000000E+00   8.28896068E+07   0.31491391      
  16               6.22478712E-04   3.62350615E-03   107.91893860     9.51404028E-07   2.43196420E+17   8.50753756E+05   0.00000000E+00   8.26927375E+07   0.31492218      
  17               7.36435649E-04   4.27085948E-03   111.89454853     1.08151825E-06   2.76459930E+17   8.50753756E+05   0.00000000E+00   8.24909279E+07   0.31493051      
  18               8.71254639E-04   5.02224366E-03   117.52912949     1.21072549E-06   3.09512433E+17   8.50753756E+05   0.00000000E+00   8.22832825E+07   0.31493893      
  19               1.03075489E-03   5.89430314E-03   122.14491735     1.36739191E-06   3.49528752E+17   8.50753756E+05   0.00000000E+00   8.20689555E+07   0.31809518      
  20               1.21945479E-03   6.90635520E-03   128.54707276     1.52237855E-06   3.89145989E+17   8.50753756E+05   0.00000000E+00   8.18471384E+07   0.31870437      
  21               1.44269991E-03   8.08079370E-03   133.81539893     1.71113338E-06   4.37394951E+17   8.50753756E+05   0.00000000E+00   8.16170329E+07   0.3228019       
  22               1.70681442E-03   9.44379769E-03   140.96856444     1.89828026E-06   4.85232897E+17   8.50753756E+05   0.00000000E+00   8.13778804E+07   0.32326711      
  23               2.01928028E-03   1.10254265E-02   146.99118032     2.12539695E-06   5.43287810E+17   8.50753756E+05   0.00000000E+00   8.11288775E+07   0.3254443       
  24               2.38894914E-03   1.28607292E-02   154.97529060     2.35146787E-06   6.01075426E+17   8.50753756E+05   0.00000000E+00   8.08692694E+07   0.32565466      
  25               2.82629313E-03   1.49909474E-02   161.62175665     2.62824035E-06   6.71823354E+17   8.50753756E+05   0.00000000E+00   8.05982989E+07   0.32510532      
  26               3.34370152E-03   1.74653357E-02   170.10300807     2.90937993E-06   7.43688018E+17   8.50753756E+05   0.00000000E+00   8.03153324E+07   0.32509393      
  27               3.95583167E-03   2.03398341E-02   177.25507664     3.25149132E-06   8.31140726E+17   8.50753756E+05   0.00000000E+00   8.00197895E+07   0.32455732      
  28               4.68002425E-03   2.36779940E-02   186.39433904     3.59949139E-06   9.20106349E+17   8.50753756E+05   0.00000000E+00   7.97112255E+07   0.32427608      
  29               5.53679448E-03   2.75507431E-02   194.36724221     4.01620873E-06   1.02668232E+18   8.50753756E+05   0.00000000E+00   7.93891255E+07   0.32239997      
  30               6.55041330E-03   3.20391151E-02   204.57283743     4.43700690E-06   1.13437954E+18   8.50753756E+05   0.00000000E+00   7.90528961E+07   0.32187495      
  31               7.74959494E-03   3.72393867E-02   212.79730298     4.95623926E-06   1.26754165E+18   8.50753756E+05   0.00000000E+00   7.87022211E+07   0.31891319      
  32               9.16831029E-03   4.32641064E-02   222.60280292     5.50726451E-06   1.40774161E+18   8.50753756E+05   0.00000000E+00   7.83375572E+07   0.318229        
  33               1.08467493E-02   5.02447711E-02   230.28207598     6.18257736E-06   1.58036199E+18   8.50753756E+05   0.00000000E+00   7.79592505E+07   0.31531447      
  34               1.28324595E-02   5.83394245E-02   239.49391675     6.90250105E-06   1.76438556E+18   8.50753756E+05   0.00000000E+00   7.75674092E+07   0.31444209      
  35               1.51816929E-02   6.77296651E-02   246.83863705     7.77507516E-06   1.98742903E+18   8.50753756E+05   0.00000000E+00   7.71620676E+07   0.31178932      
  36               1.79609996E-02   7.86250586E-02   256.04767035     8.70119658E-06   2.22415983E+18   8.50753756E+05   0.00000000E+00   7.67431765E+07   0.31105343      
  37               2.12491128E-02   9.12629448E-02   263.81634442     9.80238164E-06   2.50563969E+18   8.50753756E+05   0.00000000E+00   7.63104444E+07   0.30898378      
  38               2.51391797E-02   1.05913131E-01   273.84108698     1.09594819E-05   2.80141235E+18   8.50753756E+05   0.00000000E+00   7.58634703E+07   0.30843462      
  39               2.97413996E-02   1.22879815E-01   282.59395124     1.23212995E-05   3.14951388E+18   8.50753756E+05   0.00000000E+00   7.54017556E+07   0.30678793      
  40               3.51861462E-02   1.42515299E-01   293.65204294     1.37520452E-05   3.51523450E+18   8.50753756E+05   0.00000000E+00   7.49247431E+07   0.30629913      
  41               4.16276604E-02   1.65224979E-01   303.70887291     1.54154800E-05   3.94043406E+18   8.50753756E+05   0.00000000E+00   7.44315139E+07   0.30487698      
  42               4.92484201E-02   1.91460657E-01   316.82187782     1.71239207E-05   4.37713782E+18   8.50753756E+05   0.00000000E+00   7.39208770E+07   0.3043323       
  43               5.82643093E-02   2.21678223E-01   331.21126335     1.89651710E-05   4.84778973E+18   8.45829016E+05   4.92474013E+03   7.33906285E+07   0.30314869      
  44               6.89307339E-02   2.56437365E-01   346.16677535     2.09910785E-05   5.36564286E+18   8.35161363E+05   1.55923931E+04   7.28397278E+07   0.30274273      
  45               8.15498567E-02   2.96391788E-01   361.65480250     2.32225971E-05   5.93605300E+18   8.18907600E+05   3.18461559E+04   7.22674695E+07   0.30187588      
  46               9.64791575E-02   3.42291395E-01   377.69859262     2.56796651E-05   6.56411912E+18   7.97030729E+05   5.37230269E+04   7.16730968E+07   0.3015795       
  47               1.14141560E-01   3.94959526E-01   394.36422232     2.83789719E-05   7.25405634E+18   7.69149715E+05   8.16040411E+04   7.10561381E+07   0.30089335      
  48               1.35037411E-01   4.55311386E-01   411.55728602     3.13487211E-05   8.01316446E+18   7.35956255E+05   1.14797501E+05   7.04162819E+07   0.30068801      
  49               1.59758657E-01   5.24376667E-01   429.44737484     3.45999137E-05   8.84421407E+18   6.98780668E+05   1.51973088E+05   6.97531310E+07   0.30034126      
  50               1.89005613E-01   6.03346493E-01   447.86803493     3.81731789E-05   9.75758999E+18   6.58975175E+05   1.91778581E+05   6.90659921E+07   0.30025212      
  51               2.23606798E-01   6.93542483E-01   467.05719833     4.20769772E-05   1.07554563E+19   6.16282598E+05   2.34471159E+05   6.83543103E+07   0.29998597      
  52               2.64542408E-01   7.96407439E-01   486.76521026     4.63616478E-05   1.18506348E+19   5.70459926E+05   2.80293830E+05   6.76178206E+07   0.29986009      
  53               3.12972084E-01   9.13545594E-01   507.28390120     5.10337974E-05   1.30438257E+19   5.26758841E+05   3.23994915E+05   6.68562674E+07   0.29967828      
  54               3.70267763E-01   1.04690141E+00   528.33947283     5.61528342E-05   1.43522029E+19   4.92705933E+05   3.58047824E+05   6.60685015E+07   0.29961663      
  55               4.38052539E-01   1.19872063E+00   550.30409094     6.17296862E-05   1.57776050E+19   4.64175453E+05   3.86578304E+05   6.52530580E+07   0.29945308      
  56               5.18246648E-01   1.37142923E+00   572.83526153     6.78456940E-05   1.73408147E+19   4.38859665E+05   4.11894091E+05   6.44091293E+07   0.29933625      
  57               6.13121862E-01   1.56757785E+00   596.31982640     7.44951813E-05   1.90403843E+19   4.15406769E+05   4.35346987E+05   6.35366401E+07   0.29909482      
  58               7.25365844E-01   1.78985719E+00   620.32462655     8.17668415E-05   2.08989851E+19   3.93926950E+05   4.56826806E+05   6.26360102E+07   0.29896299      
  59               8.58158289E-01   2.04156262E+00   645.32839601     8.96518412E-05   2.29143620E+19   3.75088287E+05   4.75665470E+05   6.17063497E+07   0.298694        
  60               1.01526100E+00   2.32665393E+00   670.87973153     9.82796741E-05   2.51196139E+19   3.59297883E+05   4.91455873E+05   6.07459046E+07   0.29852531      
  61               1.20112443E+00   2.64919950E+00   697.52513630     1.07629325E-04   2.75093698E+19   3.46154418E+05   5.04599338E+05   5.97541736E+07   0.29809218      
  62               1.42101382E+00   3.01336155E+00   724.64709266     1.17841903E-04   3.01196921E+19   3.35954235E+05   5.14799520E+05   5.87316354E+07   0.29779689      
  63               1.68115827E+00   3.42342568E+00   752.86781108     1.28859532E-04   3.29357846E+19   3.28774888E+05   5.21978868E+05   5.76793256E+07   0.29719556      
  64               1.98892727E+00   3.88459245E+00   781.45825019     1.40868416E-04   3.60052243E+19   3.25592727E+05   5.25161030E+05   5.65969127E+07   0.29674942      
  65               2.35303941E+00   4.40426439E+00   811.31044325     1.53836873E-04   3.93198774E+19   3.26570989E+05   5.24182767E+05   5.54805833E+07   0.29596683      
  66               2.78380943E+00   4.98996364E+00   841.57526828     1.68027516E-04   4.29467453E+19   3.31918270E+05   5.18835486E+05   5.43285777E+07   0.29532817      
  67               3.29344035E+00   5.64901734E+00   873.19673059     1.83332195E-04   4.68583128E+19   3.41270245E+05   5.09483512E+05   5.31411379E+07   0.29432278      
  68               3.89636920E+00   6.38847199E+00   905.05268947     2.00032567E-04   5.11268424E+19   3.54825741E+05   4.95928015E+05   5.19200643E+07   0.2933346       
  69               4.60967600E+00   7.21499279E+00   938.17287229     2.17936762E-04   5.57030365E+19   3.72583009E+05   4.78170748E+05   5.06682548E+07   0.29242228      
  70               5.45356761E+00   8.13835568E+00   971.44716170     2.37408043E-04   6.06796857E+19   3.94172122E+05   4.56581637E+05   4.93845666E+07   0.29126201      
  71               6.45195012E+00   9.17044497E+00   1006.04925311    2.58315866E-04   6.60232663E+19   4.18224079E+05   4.32529677E+05   4.80666308E+07   0.2902232       
  72               7.63310614E+00   1.03228448E+01   1040.85091763    2.81058247E-04   7.18351012E+19   4.43259293E+05   4.07494463E+05   4.67141536E+07   0.28890743      
  73               9.03049593E+00   1.16069417E+01   1076.91761175    3.05441659E-04   7.80658629E+19   4.68765396E+05   3.81988364E+05   4.53282407E+07   0.28774059      
  74               1.06837053E+01   1.30344769E+01   1113.10225964    3.31856876E-04   8.48172881E+19   4.95075563E+05   3.55678197E+05   4.39103351E+07   0.28626849      
  75               1.26395671E+01   1.46181645E+01   1150.42816436    3.60101456E-04   9.20363060E+19   5.21332784E+05   3.29429496E+05   4.24616243E+07   0.28491607      
  76               1.49534878E+01   1.63770451E+01   1187.90648693    3.90700659E-04   9.98571419E+19   5.47643799E+05   3.03115469E+05   4.09787583E+07   0.28341194      
  77               1.76910170E+01   1.83337420E+01   1226.69180550    4.23551442E-04   1.08253386E+20   5.72269953E+05   2.78486197E+05   3.94576909E+07   0.28201559      
  78               2.09297047E+01   2.05096854E+01   1265.73221509    4.59207198E-04   1.17366189E+20   5.93821541E+05   2.56939023E+05   3.78974551E+07   0.28042066      
  79               2.47612977E+01   2.29248548E+01   1306.02611954    4.97451501E-04   1.27139521E+20   6.10313272E+05   2.40445952E+05   3.62994874E+07   0.27902823      
  80               2.92943389E+01   2.55974114E+01   1346.46391634    5.38777375E-04   1.37697853E+20   6.20411821E+05   2.30348329E+05   3.46670102E+07   0.27745083      
  81               3.46572422E+01   2.85442018E+01   1387.93250652    5.82883060E-04   1.48961966E+20   6.24936753E+05   2.25820095E+05   3.30041542E+07   0.2760169       
  82               4.10019301E+01   3.17951760E+01   1429.50581955    6.30437680E-04   1.61102079E+20   6.26607277E+05   2.24146527E+05   3.13082418E+07   0.27433841      
  83               4.85081376E+01   3.54005497E+01   1472.36960997    6.81545548E-04   1.74148204E+20   6.27699539E+05   2.23054295E+05   2.95689017E+07   0.27284299      
  84               5.73885036E+01   3.94125807E+01   1515.77593371    7.37085909E-04   1.88332688E+20   6.26448240E+05   2.24305655E+05   2.77788678E+07   0.27114453      
  85               6.78945948E+01   4.38800877E+01   1560.64138709    7.97034918E-04   2.03652716E+20   6.21762159E+05   2.28991869E+05   2.59356718E+07   0.26963122      
  86               8.03240320E+01   4.88335215E+01   1605.95419741    8.61954383E-04   2.20247369E+20   6.09946780E+05   2.40807504E+05   2.40458098E+07   0.26792724      
  87               9.50289215E+01   5.42692567E+01   1652.07277357    9.31209156E-04   2.37930731E+20   5.89932156E+05   2.60822426E+05   2.21271221E+07   0.26640993      
  88               1.12425830E+02   6.01624285E+01   1697.74265285    1.00451702E-03   2.56672499E+20   5.61472600E+05   2.89306283E+05   2.02002572E+07   0.26471965      
  89               1.33007583E+02   6.64849184E+01   1743.28874606    1.08146891E-03   2.76235603E+20   5.26690385E+05   3.24109016E+05   1.82819013E+07   0.26327048      
  90               1.57357229E+02   7.31837850E+01   1787.61269543    1.16091296E-03   2.96529071E+20   4.84302244E+05   3.66514318E+05   1.63913065E+07   0.26167602      
  91               1.86164557E+02   8.01216358E+01   1830.50987828    1.24121856E-03   3.17032343E+20   4.49616703E+05   4.01218853E+05   1.45636088E+07   0.26039908      
  92               2.20245630E+02   8.76077305E+01   1873.34510412    1.32633478E-03   3.38727518E+20   4.09958219E+05   4.40914060E+05   1.27185507E+07   0.25887203      
  93               2.60565913E+02   9.50144575E+01   1913.10561102    1.40907551E-03   3.59729942E+20   3.52972451E+05   4.97992426E+05   1.10052060E+07   0.25772946      
  94               3.08267614E+02   1.01890871E+02   1947.70423850    1.48488538E-03   3.78911777E+20   3.12593766E+05   5.38472745E+05   9.50186522E+06   0.25647123      
  95               3.64702046E+02   1.09364218E+02   1983.37869849    1.56626106E-03   3.99388400E+20   2.92768162E+05   5.58351596E+05   7.95215742E+06   0.25541953      
  96               4.31467909E+02   1.17495817E+02   2019.90154991    1.65222449E-03   4.21325790E+20   2.59795842E+05   5.91096656E+05   6.35366702E+06   0.25397209      
  97               5.10456573E+02   1.24835083E+02   2051.15861912    1.72892944E-03   4.40821986E+20   2.15875038E+05   6.34892655E+05   4.98044498E+06   0.25301648      
  98               6.03905660E+02   1.31020609E+02   2076.35803710    1.79253153E-03   4.57049470E+20   1.90388230E+05   6.62000933E+05   3.86934055E+06   0.25189595      
  99               7.14462436E+02   1.37957712E+02   2103.45820748    1.86307371E-03   4.75048482E+20   1.81717635E+05   6.71078537E+05   2.66892937E+06   0.2510361       
  100              8.45258798E+02   1.45715218E+02   2132.51162134    1.94096953E-03   4.94924943E+20   1.72515448E+05   6.80161882E+05   1.37890454E+06   0.24965408      
  101              1.00000000E+03   1.54363757E+02   2163.30051518    2.02674519E-03   5.16837867E+20   1.67591379E+05   6.83183908E+05   0.00000000E+00   0.24861567      
