# ATMO pressure-temperature profile
# Effective temperature = 1700.0K
# log(g) = 4.0cm/s^2
# M/H = 0.0
# Optical depth grid in band 17 (1.20-1.33microns)
# All parameters in cgs units
#
# Model Level      Optical Depth    Pressure         Temperature      Density          Number Density   Rad Flux         Conv Flux        Radial Extension Adiabatic Gradient
#                                   [Ba]             [K]              [g/cm^3]         [/cm^3]          [ergs/s/cm^2/sr] [ergs/s/cm^2/sr] [cm]             [K/Ba]          
  1                1.00000000E-06   1.00000000E-05   398.70138525     7.11092912E-10   1.81667858E+14   4.73555547E+08   0.00000000E+00   7.03973252E+07   0.29800116      
  2                1.23026877E-06   1.74398302E-05   450.36368479     1.09788305E-09   2.80481827E+14   4.73555547E+08   0.00000000E+00   6.95553037E+07   0.29798161      
  3                1.51356125E-06   2.60259634E-05   477.23111872     1.54616266E-09   3.95006188E+14   4.73555547E+08   0.00000000E+00   6.88962937E+07   0.29787373      
  4                1.86208714E-06   3.62520711E-05   492.89865432     2.08522177E-09   5.32722488E+14   4.73555547E+08   0.00000000E+00   6.83267768E+07   0.29778207      
  5                2.29086765E-06   4.85263562E-05   510.03216557     2.69747298E-09   6.89137615E+14   4.73555547E+08   0.00000000E+00   6.78092396E+07   0.29761749      
  6                2.81838293E-06   6.33072006E-05   521.52030669     3.44158759E-09   8.79240584E+14   4.73555547E+08   0.00000000E+00   6.73241284E+07   0.29751287      
  7                3.46736850E-06   8.11533343E-05   536.09519901     4.29181819E-09   1.09645368E+15   4.73555547E+08   0.00000000E+00   6.68597799E+07   0.29730541      
  8                4.26579519E-06   1.02728383E-04   546.23381201     5.33198216E-09   1.36219007E+15   4.73555547E+08   0.00000000E+00   6.64087693E+07   0.29718682      
  9                5.24807460E-06   1.28837051E-04   559.80540544     6.52499838E-09   1.66697670E+15   4.73555547E+08   0.00000000E+00   6.59661297E+07   0.29723116      
  10               6.45654229E-06   1.60446684E-04   569.31514035     7.99014528E-09   2.04128598E+15   4.73555547E+08   0.00000000E+00   6.55283538E+07   0.29713676      
  11               7.94328235E-06   1.98731071E-04   582.40152662     9.67430614E-09   2.47154834E+15   4.73555547E+08   0.00000000E+00   6.50929076E+07   0.29693172      
  12               9.77237221E-06   2.45101220E-04   591.69200818     1.17442759E-08   3.00037549E+15   4.73555547E+08   0.00000000E+00   6.46578814E+07   0.29683091      
  13               1.20226443E-05   3.01261241E-04   604.76976480     1.41230851E-08   3.60810386E+15   4.73555547E+08   0.00000000E+00   6.42218182E+07   0.29660645      
  14               1.47910839E-05   3.69255296E-04   614.23257997     1.70439453E-08   4.35431380E+15   4.73555547E+08   0.00000000E+00   6.37835691E+07   0.29649746      
  15               1.81970086E-05   4.51554818E-04   627.56227674     2.03999911E-08   5.21170098E+15   4.73555547E+08   0.00000000E+00   6.33422046E+07   0.2962544       
  16               2.23872114E-05   5.51187313E-04   637.20409191     2.45243096E-08   6.26536673E+15   4.73555547E+08   0.00000000E+00   6.28967662E+07   0.29613654      
  17               2.75422870E-05   6.71838541E-04   650.68430933     2.92733082E-08   7.47860197E+15   4.73555547E+08   0.00000000E+00   6.24464705E+07   0.2958711       
  18               3.38844156E-05   8.17958562E-04   660.40549257     3.51154267E-08   8.97111586E+15   4.73555548E+08   0.00000000E+00   6.19907223E+07   0.29574364      
  19               4.16869383E-05   9.94931848E-04   674.01121867     4.18506107E-08   1.06918301E+16   4.73555548E+08   0.00000000E+00   6.15290777E+07   0.29545594      
  20               5.12861384E-05   1.20924422E-03   683.82824576     5.01353105E-08   1.28083393E+16   4.73555548E+08   0.00000000E+00   6.10612081E+07   0.29531871      
  21               6.30957344E-05   1.46871861E-03   697.64047649     5.96871942E-08   1.52486981E+16   4.73555548E+08   0.00000000E+00   6.05868765E+07   0.29500584      
  22               7.76247117E-05   1.78275692E-03   707.64548988     7.14248150E-08   1.82474519E+16   4.73555548E+08   0.00000000E+00   6.01059071E+07   0.29485664      
  23               9.54992586E-05   2.16267930E-03   721.73538801     8.49539219E-08   2.17040091E+16   4.73555548E+08   0.00000000E+00   5.96181780E+07   0.29451748      
  24               1.17489755E-04   2.62207202E-03   731.93577105     1.01563831E-07   2.59476172E+16   4.73555548E+08   0.00000000E+00   5.91236136E+07   0.29435775      
  25               1.44543977E-04   3.17724944E-03   746.34162127     1.20691558E-07   3.08346831E+16   4.73555549E+08   0.00000000E+00   5.86221680E+07   0.29399136      
  26               1.77827941E-04   3.84773865E-03   756.82410709     1.44135750E-07   3.68244652E+16   4.73555549E+08   0.00000000E+00   5.81138125E+07   0.29381712      
  27               2.18776162E-04   4.65733695E-03   771.65751233     1.71107722E-07   4.37158484E+16   4.73555549E+08   0.00000000E+00   5.75982884E+07   0.29341881      
  28               2.69153480E-04   5.63497611E-03   782.57125388     2.04137271E-07   5.21547692E+16   4.73555550E+08   0.00000000E+00   5.70751910E+07   0.29322705      
  29               3.31131121E-04   6.81526029E-03   798.15295280     2.42072852E-07   6.18475018E+16   4.73555550E+08   0.00000000E+00   5.65442423E+07   0.29279069      
  30               4.07380278E-04   8.23944273E-03   809.91053947     2.88408292E-07   7.36862794E+16   4.73555550E+08   0.00000000E+00   5.60052424E+07   0.2925739       
  31               5.01187234E-04   9.95656699E-03   826.55898856     3.41491597E-07   8.72492307E+16   4.73555551E+08   0.00000000E+00   5.54580902E+07   0.2924123       
  32               6.16595002E-04   1.20246576E-02   839.42587686     4.06098536E-07   1.03756713E+17   4.73555551E+08   0.00000000E+00   5.49027439E+07   0.29221135      
  33               7.58577575E-04   1.45120097E-02   857.56564083     4.79732200E-07   1.22570520E+17   4.73555552E+08   0.00000000E+00   5.43392070E+07   0.29168454      
  34               9.33254301E-04   1.74980256E-02   872.06891227     5.68829956E-07   1.45332948E+17   4.73555552E+08   0.00000000E+00   5.37675942E+07   0.29132685      
  35               1.14815362E-03   2.10755885E-02   892.04733760     6.69775860E-07   1.71126650E+17   4.73555553E+08   0.00000000E+00   5.31879902E+07   0.29063934      
  36               1.41253754E-03   2.53516962E-02   908.48470626     7.91084894E-07   2.02122770E+17   4.73555553E+08   0.00000000E+00   5.26005382E+07   0.29022176      
  37               1.73780083E-03   3.04485749E-02   930.84270849     9.27294844E-07   2.36928066E+17   4.73555553E+08   0.00000000E+00   5.20054464E+07   0.28941774      
  38               2.13796209E-03   3.65146047E-02   949.59960105     1.09005693E-06   2.78517135E+17   4.73555552E+08   0.00000000E+00   5.14020940E+07   0.28892652      
  39               2.63026799E-03   4.37260245E-02   974.43166603     1.27205501E-06   3.25023262E+17   4.73555551E+08   0.00000000E+00   5.07896825E+07   0.28811364      
  40               3.23593657E-03   5.22816815E-02   996.01012546     1.48798755E-06   3.80199581E+17   4.73555549E+08   0.00000000E+00   5.01678107E+07   0.28764739      
  41               3.98107171E-03   6.24048605E-02   1024.28099358    1.72706197E-06   4.41291073E+17   4.73555547E+08   0.00000000E+00   4.95363252E+07   0.28679489      
  42               4.89778819E-03   7.43389942E-02   1049.56558384    2.00776316E-06   5.13018397E+17   4.73555544E+08   0.00000000E+00   4.88954392E+07   0.28619594      
  43               6.02559586E-03   8.83461054E-02   1081.94041138    2.31465233E-06   5.91438928E+17   4.73555539E+08   0.00000000E+00   4.82456843E+07   0.28516599      
  44               7.41310241E-03   1.04696199E-01   1111.67770596    2.66963137E-06   6.82146817E+17   4.73555534E+08   0.00000000E+00   4.75879481E+07   0.28439303      
  45               9.12010839E-03   1.23679939E-01   1148.80306536    3.05176122E-06   7.79793329E+17   4.73555528E+08   0.00000000E+00   4.69228573E+07   0.28311396      
  46               1.12201845E-02   1.45673253E-01   1183.33112724    3.48954562E-06   8.91660172E+17   4.73555522E+08   0.00000000E+00   4.62489021E+07   0.28202349      
  47               1.38038426E-02   1.71088278E-01   1225.57564462    3.95707319E-06   1.01112762E+18   4.73555515E+08   0.00000000E+00   4.55649603E+07   0.28021417      
  48               1.69824365E-02   2.00326601E-01   1265.74937752    4.48625491E-06   1.14634869E+18   4.73555509E+08   0.00000000E+00   4.48710177E+07   0.27885938      
  49               2.08929613E-02   2.33781380E-01   1314.04573581    5.04303435E-06   1.28862121E+18   4.73555503E+08   0.00000000E+00   4.41676694E+07   0.27742416      
  50               2.57039578E-02   2.71804959E-01   1360.57097059    5.66277920E-06   1.44697829E+18   4.73555488E+08   0.00000000E+00   4.34561401E+07   0.27600346      
  51               3.16227766E-02   3.14707779E-01   1416.45792373    6.29809206E-06   1.60927268E+18   4.73344357E+08   2.14478330E+05   4.27377339E+07   0.27369996      
  52               3.89045145E-02   3.62838499E-01   1472.51307150    6.98545620E-06   1.78476090E+18   4.71963953E+08   1.59146205E+06   4.20120803E+07   0.27128105      
  53               4.78630092E-02   4.16259944E-01   1528.11085701    7.72471337E-06   1.97303868E+18   4.69612067E+08   3.94226648E+06   4.12848035E+07   0.26904463      
  54               5.88843655E-02   4.74258567E-01   1582.53358360    8.49921356E-06   2.17064144E+18   4.66295280E+08   7.26515391E+06   4.05689992E+07   0.26718699      
  55               7.24435960E-02   5.34983453E-01   1634.09035880    9.28968208E-06   2.37131977E+18   4.62029002E+08   1.15232828E+07   3.98855491E+07   0.26552224      
  56               8.91250938E-02   5.93388496E-01   1679.57486232    1.00314509E-05   2.55897237E+18   4.57194962E+08   1.63775284E+07   3.92804973E+07   0.26395726      
  57               1.09647820E-01   6.48537787E-01   1719.27884960    1.07135755E-05   2.73221458E+18   4.51980436E+08   2.15645178E+07   3.87485020E+07   0.26241912      
  58               1.34896288E-01   6.99519891E-01   1753.70541221    1.13281636E-05   2.88914452E+18   4.46460848E+08   2.70491867E+07   3.82857255E+07   0.26120672      
  59               1.65958691E-01   7.43348929E-01   1781.67668247    1.18587456E-05   3.02196662E+18   4.41098996E+08   3.24540837E+07   3.79075356E+07   0.26020054      
  60               2.04173794E-01   7.78930249E-01   1803.47913970    1.22758062E-05   3.12833523E+18   4.36372214E+08   3.71988499E+07   3.76126335E+07   0.25906669      
  61               2.51188643E-01   8.20111767E-01   1827.63440114    1.27535317E-05   3.25019606E+18   4.30784150E+08   4.27991178E+07   3.72835073E+07   0.257749        
  62               3.09029543E-01   8.67434581E-01   1854.22200862    1.32954002E-05   3.38844811E+18   4.24031398E+08   4.95657872E+07   3.69200904E+07   0.25624134      
  63               3.80189396E-01   9.21338810E-01   1882.98046736    1.39051011E-05   3.54404633E+18   4.15878215E+08   5.77370979E+07   3.65236429E+07   0.25445569      
  64               4.67735141E-01   9.82009199E-01   1913.71155723    1.45816669E-05   3.71676340E+18   4.06390546E+08   6.72386379E+07   3.60975670E+07   0.25247426      
  65               5.75439937E-01   1.05033212E+00   1946.34107783    1.53332433E-05   3.90871078E+18   3.96030988E+08   7.75941674E+07   3.56406401E+07   0.25025591      
  66               7.07945784E-01   1.12811478E+00   1981.33260407    1.61759395E-05   4.12402932E+18   3.84695852E+08   8.89216046E+07   3.51467477E+07   0.24773896      
  67               8.70963590E-01   1.21640427E+00   2018.45571187    1.71185046E-05   4.36500306E+18   3.71907063E+08   1.01708277E+08   3.46161774E+07   0.24478266      
  68               1.07151931E+00   1.31634842E+00   2057.63917073    1.81687590E-05   4.63369535E+18   3.57426495E+08   1.16182743E+08   3.40494635E+07   0.24150368      
  69               1.31825674E+00   1.42923026E+00   2098.63972566    1.93367824E-05   4.93276190E+18   3.41120328E+08   1.32479239E+08   3.34472204E+07   0.23787613      
  70               1.62181010E+00   1.55649088E+00   2141.35548529    2.06323974E-05   5.26482147E+18   3.22939600E+08   1.50647723E+08   3.28100874E+07   0.23394498      
  71               1.99526231E+00   1.69975186E+00   2185.53779530    2.20679970E-05   5.63317239E+18   3.02914675E+08   1.70657558E+08   3.21386967E+07   0.22974565      
  72               2.45470892E+00   1.86084591E+00   2231.09090551    2.36559245E-05   6.04114119E+18   2.81137863E+08   1.92416478E+08   3.14336264E+07   0.22525634      
  73               3.01995172E+00   2.04182395E+00   2277.74359998    2.54117550E-05   6.49290873E+18   2.57682977E+08   2.15854970E+08   3.06954781E+07   0.22034662      
  74               3.71535229E+00   2.24480143E+00   2325.29031226    2.73523771E-05   6.99240522E+18   2.32855843E+08   2.40663557E+08   2.99255483E+07   0.21513246      
  75               4.57088190E+00   2.47237016E+00   2373.50496693    2.94921878E-05   7.54482531E+18   2.07452330E+08   2.66041704E+08   2.91242983E+07   0.20990863      
  76               5.62341325E+00   2.72762095E+00   2422.39795576    3.18538223E-05   8.15575866E+18   1.82150306E+08   2.91320233E+08   2.82914996E+07   0.20460905      
  77               6.91830971E+00   3.01376569E+00   2471.69173092    3.44609092E-05   8.83163312E+18   1.57470496E+08   3.15980064E+08   2.74278263E+07   0.19927961      
  78               8.51138038E+00   3.33437571E+00   2521.37310628    3.73356051E-05   9.57862691E+18   1.34199661E+08   3.39231607E+08   2.65339845E+07   0.19412354      
  79               1.04712855E+01   3.69343917E+00   2571.26966706    4.05049520E-05   1.04042113E+19   1.13272054E+08   3.60141503E+08   2.56106382E+07   0.18899399      
  80               1.28824955E+01   4.09540675E+00   2621.31152809    4.39972939E-05   1.13162946E+19   9.52777576E+07   3.78120378E+08   2.46584264E+07   0.18401704      
  81               1.58489319E+01   4.54514263E+00   2671.39333835    4.78436345E-05   1.23235411E+19   8.02629660E+07   3.93121983E+08   2.36781637E+07   0.17937746      
  82               1.94984460E+01   5.04789437E+00   2721.54325271    5.20738383E-05   1.34344799E+19   6.77972953E+07   4.05577148E+08   2.26709025E+07   0.17481111      
  83               2.39883292E+01   5.60933241E+00   2771.50390340    5.67255727E-05   1.46595798E+19   5.74498148E+07   4.15916950E+08   2.16378720E+07   0.17053111      
  84               2.95120923E+01   6.23554015E+00   2821.43218951    6.18290880E-05   1.60077503E+19   4.88279007E+07   4.24533415E+08   2.05804622E+07   0.16664473      
  85               3.63078055E+01   6.93301437E+00   2871.13723466    6.74239566E-05   1.74901683E+19   4.15762780E+07   4.31780965E+08   1.95001844E+07   0.16311238      
  86               4.46683592E+01   7.70875108E+00   2920.77946030    7.35427367E-05   1.91166195E+19   3.54629681E+07   4.37892801E+08   1.83985226E+07   0.15980334      
  87               5.49540874E+01   8.57037096E+00   2970.11116183    8.02324238E-05   2.09003114E+19   3.03022335E+07   4.43055395E+08   1.72768098E+07   0.15678869      
  88               6.76082975E+01   9.52607424E+00   3019.37050359    8.75276570E-05   2.28519567E+19   2.59307016E+07   4.47433030E+08   1.61363335E+07   0.15405084      
  89               8.31763771E+01   1.05843830E+01   3068.29860639    9.54789622E-05   2.49858291E+19   2.21677349E+07   4.51209091E+08   1.49786322E+07   0.15150051      
  90               1.02329299E+02   1.17540964E+01   3117.08059336    1.04120806E-04   2.73128522E+19   1.89350626E+07   4.54464235E+08   1.38054450E+07   0.14917136      
  91               1.25892541E+02   1.30449369E+01   3165.49718469    1.13508492E-04   2.98487324E+19   1.61575333E+07   4.57275452E+08   1.26180372E+07   0.14713493      
  92               1.54881662E+02   1.44676537E+01   3213.83586284    1.23681114E-04   3.26062048E+19   1.37877664E+07   4.59691874E+08   1.14172594E+07   0.14533123      
  93               1.90546072E+02   1.60341925E+01   3261.87180595    1.34707096E-04   3.56045945E+19   1.17670930E+07   4.61774649E+08   1.02035800E+07   0.14370866      
  94               2.34422882E+02   1.77578696E+01   3309.90121740    1.46635791E-04   3.88598991E+19   1.00511337E+07   4.63569906E+08   8.97712861E+06   0.1422512       
  95               2.88403150E+02   1.96535163E+01   3357.70879670    1.59551237E-04   4.23958233E+19   8.58206797E+06   4.65136606E+08   7.73777089E+06   0.14098267      
  96               3.54813389E+02   2.17376391E+01   3405.63629921    1.73512085E-04   4.62317089E+19   7.32602567E+06   4.66509655E+08   6.48515578E+06   0.1398581       
  97               4.36515832E+02   2.40286369E+01   3453.44737022    1.88621936E-04   5.03967038E+19   6.24504817E+06   4.67727095E+08   5.21875043E+06   0.13886954      
  98               5.37031796E+02   2.65470351E+01   3501.50102955    2.04952239E-04   5.49145722E+19   5.32031910E+06   4.68807338E+08   3.93786303E+06   0.13800957      
  99               6.60693448E+02   2.93157025E+01   3549.55871938    2.22628564E-04   5.98207399E+19   4.52852865E+06   4.69772026E+08   2.64169056E+06   0.13728965      
  100              8.12830516E+02   3.23600342E+01   3598.00328446    2.41735409E-04   6.51438252E+19   3.85856189E+06   4.70630915E+08   1.32936918E+06   0.13668281      
  101              1.00000000E+03   3.57082154E+01   3646.57317006    2.62424086E-04   7.09265855E+19   3.54447667E+06   4.71089631E+08   0.00000000E+00   0.13617668      
