# ATMO pressure-temperature profile
# Effective temperature = 450.0K
# log(g) = 4.0cm/s^2
# M/H = 0.0
# Optical depth grid in band 17 (1.20-1.33microns)
# All parameters in cgs units
#
# Model Level      Optical Depth    Pressure         Temperature      Density          Number Density   Rad Flux         Conv Flux        Radial Extension Adiabatic Gradient
#                                   [Ba]             [K]              [g/cm^3]         [/cm^3]          [ergs/s/cm^2/sr] [ergs/s/cm^2/sr] [cm]             [K/Ba]          
  1                5.00000000E-05   1.00000000E-05   59.12581206      4.79215371E-09   1.22503563E+15   2.32490287E+06   0.00000000E+00   3.08257910E+07   0.34574799      
  2                5.91534807E-05   2.30130322E-04   76.83450228      8.48643765E-08   2.16941882E+16   2.32490287E+06   0.00000000E+00   2.97342205E+07   0.31479402      
  3                6.99826855E-05   4.71712214E-04   91.79699829      1.45598367E-07   3.72198382E+16   2.32490287E+06   0.00000000E+00   2.95168887E+07   0.31481954      
  4                8.27943887E-05   7.37831392E-04   99.68863832      2.09707085E-07   5.36089504E+16   2.32490287E+06   0.00000000E+00   2.93645917E+07   0.31483682      
  5                9.79515255E-05   1.03944006E-03   109.19040635     2.69697569E-07   6.89510382E+16   2.32490287E+06   0.00000000E+00   2.92377684E+07   0.31485057      
  6                1.15883473E-04   1.38491644E-03   114.85151134     3.41660525E-07   8.73399009E+16   2.32490287E+06   0.00000000E+00   2.91239579E+07   0.31486245      
  7                1.37098216E-04   1.78291914E-03   123.43272265     4.09269751E-07   1.04623002E+17   2.32490287E+06   0.00000000E+00   2.90175231E+07   0.31487323      
  8                1.62196734E-04   2.24271131E-03   128.42643342     4.94797229E-07   1.26486679E+17   2.32490287E+06   0.00000000E+00   2.89153484E+07   0.31801683      
  9                1.91890027E-04   2.77496848E-03   136.76903669     5.74881817E-07   1.46958972E+17   2.32490287E+06   0.00000000E+00   2.88155512E+07   0.32057862      
  10               2.27019260E-04   3.39202415E-03   141.51116640     6.79166924E-07   1.73617726E+17   2.32490287E+06   0.00000000E+00   2.87167990E+07   0.32303501      
  11               2.68579588E-04   4.10830054E-03   149.94647145     7.76308333E-07   1.98450316E+17   2.32490287E+06   0.00000000E+00   2.86181539E+07   0.32437725      
  12               3.17748350E-04   4.94028026E-03   154.72881779     9.04666607E-07   2.31263034E+17   2.32490287E+06   0.00000000E+00   2.85188763E+07   0.32547988      
  13               3.75918418E-04   5.90730932E-03   163.48164343     1.02383214E-06   2.61725813E+17   2.32490287E+06   0.00000000E+00   2.84183960E+07   0.32589086      
  14               4.44737657E-04   7.03206667E-03   168.45443630     1.18278106E-06   3.02361413E+17   2.32490287E+06   0.00000000E+00   2.83161863E+07   0.32594249      
  15               5.26155608E-04   8.34109951E-03   177.45467651     1.33181586E-06   3.40456550E+17   2.32490287E+06   0.00000000E+00   2.82118882E+07   0.32565187      
  16               6.22478712E-04   9.86445062E-03   182.63416221     1.53024146E-06   3.91216106E+17   2.32490287E+06   0.00000000E+00   2.81051800E+07   0.32489247      
  17               7.36435649E-04   1.16369534E-02   191.93754885     1.71786035E-06   4.39142219E+17   2.32490287E+06   0.00000000E+00   2.79958566E+07   0.32409213      
  18               8.71254639E-04   1.36972317E-02   197.65746588     1.96216625E-06   5.01932617E+17   2.32490287E+06   0.00000000E+00   2.78836382E+07   0.32279456      
  19               1.03075489E-03   1.60922910E-02   207.32840588     2.19922545E-06   5.62192320E+17   2.32490287E+06   0.00000000E+00   2.77683424E+07   0.3216741       
  20               1.21945479E-03   1.88772055E-02   213.28678019     2.50774163E-06   6.41061368E+17   2.32490287E+06   0.00000000E+00   2.76497558E+07   0.32009056      
  21               1.44269991E-03   2.21141269E-02   222.94948882     2.81044116E-06   7.18437770E+17   2.32490287E+06   0.00000000E+00   2.75278278E+07   0.31890235      
  22               1.70681442E-03   2.58738663E-02   228.92321368     3.20245232E-06   8.18648246E+17   2.32490287E+06   0.00000000E+00   2.74025053E+07   0.3171116       
  23               2.01928028E-03   3.02427268E-02   238.36361647     3.59494427E-06   9.18981609E+17   2.32490287E+06   0.00000000E+00   2.72737453E+07   0.31570106      
  24               2.38894914E-03   3.53196320E-02   244.21628404     4.09781847E-06   1.04753222E+18   2.32490287E+06   0.00000000E+00   2.71414707E+07   0.31399122      
  25               2.82629313E-03   4.12203114E-02   253.61917388     4.60511381E-06   1.17721293E+18   2.32490287E+06   0.00000000E+00   2.70056376E+07   0.31276069      
  26               3.34370152E-03   4.80762220E-02   259.68976865     5.24549741E-06   1.34091526E+18   2.32490287E+06   0.00000000E+00   2.68661449E+07   0.31131463      
  27               3.95583167E-03   5.60406887E-02   269.35137718     5.89515799E-06   1.50698907E+18   2.32490287E+06   0.00000000E+00   2.67229209E+07   0.31024438      
  28               4.68002425E-03   6.52894828E-02   275.75404268     6.70860971E-06   1.71493309E+18   2.32490287E+06   0.00000000E+00   2.65758520E+07   0.30896077      
  29               5.53679448E-03   7.60269711E-02   285.74007541     7.53889545E-06   1.92718041E+18   2.32490287E+06   0.00000000E+00   2.64248674E+07   0.30803455      
  30               6.55041330E-03   8.84870090E-02   292.63348824     8.56774790E-06   2.19018768E+18   2.32490287E+06   0.00000000E+00   2.62698315E+07   0.30696225      
  31               7.74959494E-03   1.02941304E-01   303.22971704     9.61898163E-06   2.45891630E+18   2.32490287E+06   0.00000000E+00   2.61106110E+07   0.30615823      
  32               9.16831029E-03   1.19698705E-01   310.93237562     1.09077380E-05   2.78836322E+18   2.32490287E+06   0.00000000E+00   2.59470142E+07   0.30523259      
  33               1.08467493E-02   1.39116940E-01   322.46148573     1.22240005E-05   3.12484159E+18   2.32490287E+06   0.00000000E+00   2.57788492E+07   0.30455689      
  34               1.28324595E-02   1.61599500E-01   331.32505273     1.38196464E-05   3.53273919E+18   2.32490287E+06   0.00000000E+00   2.56058713E+07   0.30380507      
  35               1.51816929E-02   1.87605663E-01   344.14837418     1.54458362E-05   3.94844471E+18   2.32490287E+06   0.00000000E+00   2.54278704E+07   0.30322017      
  36               1.79609996E-02   2.17649807E-01   354.53573968     1.73944006E-05   4.44655946E+18   2.32490287E+06   0.00000000E+00   2.52445759E+07   0.30258377      
  37               2.12491128E-02   2.52333067E-01   369.04232644     1.93735510E-05   4.95249250E+18   2.32490287E+06   0.00000000E+00   2.50556417E+07   0.30212268      
  38               2.51391797E-02   2.92307620E-01   381.54373688     2.17073536E-05   5.54908845E+18   2.32490287E+06   0.00000000E+00   2.48607131E+07   0.30168718      
  39               2.97413996E-02   3.38275331E-01   398.80084286     2.40341908E-05   6.14384286E+18   2.32490287E+06   0.00000000E+00   2.46594629E+07   0.30134864      
  40               3.51861462E-02   3.90903752E-01   416.22871390     2.66105027E-05   6.80242310E+18   2.31294505E+06   1.19578279E+04   2.44513596E+07   0.30095886      
  41               4.16276604E-02   4.51056317E-01   434.87470777     2.93888028E-05   7.51263794E+18   2.29005654E+06   3.48463354E+04   2.42362614E+07   0.3006118       
  42               4.92484201E-02   5.19777584E-01   453.45301625     3.24788399E-05   8.30254219E+18   2.25634553E+06   6.85573484E+04   2.40138280E+07   0.30028947      
  43               5.82643093E-02   5.98217566E-01   473.35666307     3.58085172E-05   9.15369645E+18   2.21058665E+06   1.14316217E+05   2.37838194E+07   0.30012998      
  44               6.89307339E-02   6.87626497E-01   493.18404907     3.95057523E-05   1.00987919E+19   2.15579517E+06   1.69107700E+05   2.35461036E+07   0.29995766      
  45               8.15498567E-02   7.89383169E-01   514.41364833     4.34836928E-05   1.11147889E+19   2.09486626E+06   2.30036616E+05   2.33005885E+07   0.29982393      
  46               9.64791575E-02   9.05113055E-01   535.54207631     4.78917187E-05   1.22415122E+19   2.03113944E+06   2.93763430E+05   2.30469868E+07   0.29964922      
  47               1.14141560E-01   1.03678641E+00   558.20269497     5.26318119E-05   1.34531259E+19   1.96743555E+06   3.57467328E+05   2.27847199E+07   0.29953845      
  48               1.35037411E-01   1.18653128E+00   580.78153312     5.78917906E-05   1.47976323E+19   1.90590046E+06   4.19002410E+05   2.25134389E+07   0.29941508      
  49               1.59758657E-01   1.35658518E+00   604.99463468     6.35397651E-05   1.62413223E+19   1.84628152E+06   4.78621360E+05   2.22330536E+07   0.29930196      
  50               1.89005613E-01   1.54928326E+00   629.05405319     6.97898479E-05   1.78389260E+19   1.78953069E+06   5.35372176E+05   2.19436803E+07   0.29908573      
  51               2.23606798E-01   1.76733711E+00   654.80007725     7.64820077E-05   1.95495387E+19   1.73626067E+06   5.88642215E+05   2.16452190E+07   0.29888807      
  52               2.64542408E-01   2.01414901E+00   680.37755832     8.38859816E-05   2.14421069E+19   1.68676321E+06   6.38139662E+05   2.13370835E+07   0.29862834      
  53               3.12972084E-01   2.29335615E+00   707.78217944     9.18160978E-05   2.34691695E+19   1.63984387E+06   6.85059019E+05   2.10189405E+07   0.2984262       
  54               3.70267763E-01   2.60866532E+00   734.97349442     1.00575667E-04   2.57082508E+19   1.59599420E+06   7.28908669E+05   2.06908219E+07   0.29806084      
  55               4.38052539E-01   2.96388915E+00   764.01374795     1.09927542E-04   2.80987256E+19   1.55751685E+06   7.67386036E+05   2.03529887E+07   0.29767521      
  56               5.18246648E-01   3.36356591E+00   792.73845327     1.20230805E-04   3.07323561E+19   1.52840741E+06   7.96495460E+05   2.00053342E+07   0.29708338      
  57               6.13121862E-01   3.81341233E+00   823.41323889     1.31233184E-04   3.35445338E+19   1.51236501E+06   8.12537881E+05   1.96472089E+07   0.29659735      
  58               7.25365844E-01   4.32007417E+00   853.82288670     1.43374956E-04   3.66479132E+19   1.51119070E+06   8.13712174E+05   1.92778401E+07   0.29588026      
  59               8.58158289E-01   4.89007750E+00   886.28580438     1.56347699E-04   3.99638931E+19   1.52625299E+06   7.98649909E+05   1.88971295E+07   0.29524588      
  60               1.01526100E+00   5.52962683E+00   918.37441579     1.70618243E-04   4.36115866E+19   1.55735281E+06   7.67550065E+05   1.85055539E+07   0.29426506      
  61               1.20112443E+00   6.24489965E+00   952.41852287     1.85800746E-04   4.74923293E+19   1.60518573E+06   7.19717171E+05   1.81038229E+07   0.2934314       
  62               1.42101382E+00   7.04345012E+00   985.95380881     2.02432596E-04   5.17433704E+19   1.66869910E+06   6.56203790E+05   1.76920681E+07   0.29211823      
  63               1.68115827E+00   7.93439739E+00   1021.42135328    2.20123155E-04   5.62645507E+19   1.74953014E+06   5.75372751E+05   1.72700031E+07   0.29112594      
  64               1.98892727E+00   8.92865407E+00   1056.43514604    2.39501477E-04   6.12165705E+19   1.84651781E+06   4.78385109E+05   1.68369790E+07   0.28969582      
  65               2.35303941E+00   1.00373303E+01   1093.41297571    2.60134707E-04   6.64905358E+19   1.95662930E+06   3.68273602E+05   1.63928066E+07   0.28863466      
  66               2.78380943E+00   1.12718144E+01   1129.93903953    2.82684668E-04   7.22544594E+19   2.07288300E+06   2.52019992E+05   1.59375720E+07   0.28701276      
  67               3.29344035E+00   1.26444642E+01   1168.33276729    3.06687690E-04   7.83898281E+19   2.18843949E+06   1.36463470E+05   1.54713846E+07   0.28575601      
  68               3.89636920E+00   1.41690248E+01   1206.26799031    3.32857027E-04   8.50789256E+19   2.29384561E+06   3.10576045E+04   1.49942206E+07   0.28412569      
  69               4.60967600E+00   1.58616132E+01   1246.05688634    3.60720597E-04   9.22009348E+19   2.32489769E+06   0.00000000E+00   1.45057515E+07   0.28292626      
  70               5.45356761E+00   1.77456485E+01   1282.30185414    3.92162013E-04   1.00236858E+20   2.32490289E+06   0.00000000E+00   1.40048286E+07   0.2813937       
  71               6.45195012E+00   1.98443982E+01   1320.48565197    4.25868698E-04   1.08850414E+20   2.32490288E+06   0.00000000E+00   1.34912698E+07   0.28021256      
  72               7.63310614E+00   2.21789125E+01   1356.78602099    4.63251945E-04   1.18400824E+20   2.32490288E+06   0.00000000E+00   1.29656758E+07   0.27870778      
  73               9.03049593E+00   2.47698401E+01   1395.87116778    5.02915540E-04   1.28529763E+20   2.32490287E+06   0.00000000E+00   1.24288913E+07   0.27751857      
  74               1.06837053E+01   2.76457112E+01   1433.87404872    5.46474552E-04   1.39650534E+20   2.32490287E+06   0.00000000E+00   1.18803130E+07   0.2759657       
  75               1.26395671E+01   3.08415382E+01   1475.13330843    5.92638245E-04   1.51436513E+20   2.32490287E+06   0.00000000E+00   1.13187401E+07   0.27465879      
  76               1.49534878E+01   3.44096171E+01   1515.74567790    6.43498738E-04   1.64429350E+20   2.32490288E+06   0.00000000E+00   1.07409516E+07   0.27301261      
  77               1.76910170E+01   3.84031148E+01   1559.86442188    6.97855994E-04   1.78322210E+20   2.32490289E+06   0.00000000E+00   1.01450141E+07   0.27165277      
  78               2.09297047E+01   4.28543947E+01   1603.56141744    7.57500767E-04   1.93568911E+20   2.32490291E+06   0.00000000E+00   9.53278383E+06   0.26996698      
  79               2.47612977E+01   4.77655751E+01   1651.08040738    8.19992310E-04   2.09542744E+20   2.32490321E+06   0.00000000E+00   8.90962970E+06   0.26856289      
  80               2.92943389E+01   5.30808520E+01   1698.17228819    8.86339209E-04   2.26402895E+20   2.21970954E+06   1.05193535E+05   8.28609317E+06   0.26682829      
  81               3.46572422E+01   5.87671096E+01   1744.96987314    9.54942926E-04   2.43933944E+20   2.08354015E+06   2.41363009E+05   7.66801756E+06   0.26532367      
  82               4.10019301E+01   6.47844024E+01   1790.36221139    1.02603183E-03   2.62092983E+20   1.91578890E+06   4.09114411E+05   7.06011273E+06   0.26365723      
  83               4.85081376E+01   7.09896597E+01   1834.10360063    1.09763258E-03   2.80347747E+20   1.71613474E+06   6.08768760E+05   6.47537882E+06   0.26228312      
  84               5.73885036E+01   7.71159175E+01   1874.08300486    1.16721620E-03   2.98044456E+20   1.55717228E+06   7.67731469E+05   5.93412767E+06   0.26079771      
  85               6.78945948E+01   8.36978339E+01   1914.59053218    1.24068960E-03   3.16638815E+20   1.39300331E+06   9.31900749E+05   5.38716373E+06   0.25952317      
  86               8.03240320E+01   8.98674640E+01   1950.00780940    1.30905762E-03   3.33804337E+20   1.17369937E+06   1.15120497E+06   4.90302624E+06   0.25816122      
  87               9.50289215E+01   9.53580176E+01   1980.15391960    1.36785042E-03   3.48806126E+20   1.04432118E+06   1.28058336E+06   4.49271072E+06   0.25719935      
  88               1.12425830E+02   1.01431487E+02   2011.67313278    1.43213111E-03   3.65208784E+20   9.89578791E+05   1.33532591E+06   4.05877380E+06   0.25590126      
  89               1.33007583E+02   1.08127354E+02   2044.86969211    1.50182046E-03   3.82997356E+20   8.75305506E+05   1.44959931E+06   3.60220426E+06   0.25480293      
  90               1.57357229E+02   1.13753952E+02   2071.30957571    1.56021731E-03   3.97784009E+20   7.14309559E+05   1.61059517E+06   3.23461533E+06   0.25368665      
  91               1.86164557E+02   1.18180428E+02   2091.51261727    1.60524038E-03   4.09270941E+20   6.28269430E+05   1.69663539E+06   2.95491322E+06   0.2529588       
  92               2.20245630E+02   1.23194828E+02   2113.50836653    1.65589816E-03   4.22196224E+20   6.02291896E+05   1.72261304E+06   2.64735148E+06   0.2518716       
  93               2.60565913E+02   1.28860683E+02   2137.59066341    1.71249752E-03   4.36638198E+20   5.76181500E+05   1.74872342E+06   2.31089113E+06   0.2509601       
  94               3.08267614E+02   1.35235154E+02   2163.55104745    1.77559609E-03   4.52739403E+20   5.47235815E+05   1.77766887E+06   1.94533225E+06   0.24965441      
  95               3.64702046E+02   1.42371700E+02   2191.46935303    1.84535591E-03   4.70559025E+20   4.79197337E+05   1.84570676E+06   1.55107817E+06   0.24851043      
  96               4.31467909E+02   1.47683019E+02   2211.41593816    1.89858006E-03   4.83711001E+20   3.86267301E+05   1.93863652E+06   1.26728540E+06   0.24760528      
  97               5.10456573E+02   1.51495490E+02   2225.43450872    1.93528740E-03   4.93072436E+20   3.41596617E+05   1.98567011E+06   1.06839243E+06   0.24698368      
  98               6.03905660E+02   1.55883864E+02   2241.13128408    1.97735652E-03   5.03801788E+20   3.30849135E+05   1.99933680E+06   8.44061811E+05   0.24580526      
  99               7.14462436E+02   1.60920525E+02   2258.69613725    2.02532040E-03   5.16035373E+20   3.19912064E+05   2.01086595E+06   5.92379030E+05   0.24501141      
  100              8.45258798E+02   1.66683937E+02   2278.21822675    2.07981999E-03   5.29937030E+20   3.07273162E+05   2.02353915E+06   3.11564197E+05   0.24345809      
  101              1.00000000E+03   1.73259453E+02   2299.68997513    2.14160422E-03   5.45699413E+20   3.00400337E+05   2.02833448E+06   0.00000000E+00   0.24245191      
