# ATMO pressure-temperature profile
# Effective temperature = 1200.0K
# log(g) = 4.5cm/s^2
# M/H = 0.0
# Optical depth grid in band 17 (1.20-1.33microns)
# All parameters in cgs units
#
# Model Level      Optical Depth    Pressure         Temperature      Density          Number Density   Rad Flux         Conv Flux        Radial Extension Adiabatic Gradient
#                                   [Ba]             [K]              [g/cm^3]         [/cm^3]          [ergs/s/cm^2/sr] [ergs/s/cm^2/sr] [cm]             [K/Ba]          
  1                5.00000000E-06   1.00000000E-05   365.86557953     7.74516984E-10   1.97972235E+14   1.17570813E+08   0.00000000E+00   1.84619842E+07   0.29848887      
  2                6.05313423E-06   1.20412185E-04   408.67362480     8.34922636E-09   2.13412408E+15   1.17570813E+08   0.00000000E+00   1.70889593E+07   0.29978754      
  3                7.32808679E-06   2.46305921E-04   434.98070882     1.60457622E-08   4.10138648E+15   1.17570813E+08   0.00000000E+00   1.67450039E+07   0.29960928      
  4                8.87157859E-06   3.93935378E-04   447.03681019     2.49710709E-08   6.38274566E+15   1.17570813E+08   0.00000000E+00   1.65117793E+07   0.29951072      
  5                1.07401712E-05   5.68882425E-04   462.23510086     3.48750641E-08   8.91426284E+15   1.17570813E+08   0.00000000E+00   1.63243099E+07   0.29944209      
  6                1.30023396E-05   7.76893258E-04   470.16319458     4.68239584E-08   1.19684680E+16   1.17570813E+08   0.00000000E+00   1.61615324E+07   0.29938334      
  7                1.57409813E-05   1.02480650E-03   482.49676417     6.01870185E-08   1.53841429E+16   1.17570813E+08   0.00000000E+00   1.60138549E+07   0.29933542      
  8                1.90564546E-05   1.32064028E-03   488.69350581     7.65778774E-08   1.95737399E+16   1.17570813E+08   0.00000000E+00   1.58760563E+07   0.29929046      
  9                2.30702555E-05   1.67401096E-03   499.75007109     9.49206600E-08   2.42622611E+16   1.17570813E+08   0.00000000E+00   1.57449878E+07   0.29924963      
  10               2.79294706E-05   2.09630875E-03   505.15821592     1.17593451E-07   3.00575561E+16   1.17570813E+08   0.00000000E+00   1.56185879E+07   0.29920864      
  11               3.38121669E-05   2.60121480E-03   515.63339915     1.42952072E-07   3.65393667E+16   1.17570813E+08   0.00000000E+00   1.54954409E+07   0.29917128      
  12               4.09339169E-05   3.20515577E-03   520.58731071     1.74466012E-07   4.45945107E+16   1.17570813E+08   0.00000000E+00   1.53745081E+07   0.29913168      
  13               4.95556987E-05   3.92785824E-03   530.79896117     2.09691576E-07   5.35983698E+16   1.17570813E+08   0.00000000E+00   1.52550231E+07   0.29909361      
  14               5.99934592E-05   4.79286559E-03   535.49034470     2.53628963E-07   6.48290183E+16   1.17570813E+08   0.00000000E+00   1.51364107E+07   0.29905331      
  15               7.26296922E-05   5.82839010E-03   545.54215944     3.02743973E-07   7.73831016E+16   1.17570813E+08   0.00000000E+00   1.50182364E+07   0.299015        
  16               8.79274551E-05   7.06804908E-03   550.16671019     3.64049520E-07   9.30531519E+16   1.17570813E+08   0.00000000E+00   1.49001542E+07   0.29897248      
  17               1.06447338E-04   8.55203221E-03   560.32659887     4.32497177E-07   1.10548774E+17   1.17570813E+08   0.00000000E+00   1.47818890E+07   0.29893037      
  18               1.28868005E-04   1.03282046E-02   564.98354298     5.18017253E-07   1.32408198E+17   1.17570813E+08   0.00000000E+00   1.46632244E+07   0.2988908       
  19               1.56011066E-04   1.24535407E-02   575.37877646     6.13329958E-07   1.56770681E+17   1.17570813E+08   0.00000000E+00   1.45439881E+07   0.29887572      
  20               1.88871184E-04   1.49957934E-02   580.32639666     7.32238063E-07   1.87164278E+17   1.17570813E+08   0.00000000E+00   1.44240256E+07   0.29880807      
  21               2.28652526E-04   1.80353023E-02   591.26539588     8.64362893E-07   2.20936161E+17   1.17570813E+08   0.00000000E+00   1.43032083E+07   0.29871823      
  22               2.76812886E-04   2.16671179E-02   596.63328093     1.02907926E-06   2.63038617E+17   1.17570813E+08   0.00000000E+00   1.41814352E+07   0.29865038      
  23               3.35117111E-04   2.60031561E-02   608.31900955     1.21129467E-06   3.09613946E+17   1.17570813E+08   0.00000000E+00   1.40586223E+07   0.29860233      
  24               4.05701771E-04   3.11753241E-02   614.53686209     1.43753415E-06   3.67442069E+17   1.17570813E+08   0.00000000E+00   1.39346746E+07   0.29853762      
  25               4.91153455E-04   3.73386886E-02   627.32218957     1.68664431E-06   4.31116109E+17   1.17570813E+08   0.00000000E+00   1.38095055E+07   0.29845518      
  26               5.94603558E-04   4.46769308E-02   634.57428630     1.99506004E-06   5.09948947E+17   1.17570813E+08   0.00000000E+00   1.36830021E+07   0.2983542       
  27               7.19843029E-04   5.34055237E-02   648.71443105     2.33285466E-06   5.96291280E+17   1.17570813E+08   0.00000000E+00   1.35550574E+07   0.29825582      
  28               8.71461295E-04   6.37780370E-02   657.32087704     2.74946907E-06   7.02780272E+17   1.17570813E+08   0.00000000E+00   1.34255436E+07   0.29813422      
  29               1.05501444E-03   7.60903437E-02   672.98340389     3.20390956E-06   8.18938015E+17   1.17570813E+08   0.00000000E+00   1.32943614E+07   0.29798904      
  30               1.27722880E-03   9.06821933E-02   683.15507337     3.76147326E-06   9.61454104E+17   1.17570813E+08   0.00000000E+00   1.31614412E+07   0.29781473      
  31               1.54624747E-03   1.07944379E-01   700.69079830     4.36544772E-06   1.11583366E+18   1.17570813E+08   0.00000000E+00   1.30267304E+07   0.29762574      
  32               1.87192870E-03   1.28327164E-01   712.96917411     5.10039529E-06   1.30368804E+18   1.17570813E+08   0.00000000E+00   1.28901314E+07   0.2973866       
  33               2.26620714E-03   1.52343965E-01   732.75693334     5.89143601E-06   1.50588275E+18   1.17570813E+08   0.00000000E+00   1.27515827E+07   0.29712918      
  34               2.74353120E-03   1.80562324E-01   747.45426017     6.84543607E-06   1.74971918E+18   1.17570813E+08   0.00000000E+00   1.26110682E+07   0.29685262      
  35               3.32139252E-03   2.13618260E-01   769.93152714     7.86221128E-06   2.00961151E+18   1.17570813E+08   0.00000000E+00   1.24685808E+07   0.29656554      
  36               4.02096694E-03   2.52280727E-01   787.67953557     9.07601418E-06   2.31985239E+18   1.17570813E+08   0.00000000E+00   1.23238470E+07   0.29619235      
  37               4.86789053E-03   2.97435110E-01   813.38738366     1.03622803E-05   2.64862602E+18   1.17570813E+08   0.00000000E+00   1.21766074E+07   0.29573734      
  38               5.89319895E-03   3.50029310E-01   834.67919805     1.18835244E-05   3.03746065E+18   1.17570813E+08   0.00000000E+00   1.20267295E+07   0.29518367      
  39               7.13446485E-03   4.11082479E-01   864.12720444     1.34806763E-05   3.44569735E+18   1.17570813E+08   0.00000000E+00   1.18741909E+07   0.29455851      
  40               8.63717467E-03   4.81668735E-01   889.54456193     1.53440973E-05   3.92199095E+18   1.17570813E+08   0.00000000E+00   1.17189901E+07   0.29383201      
  41               1.04563955E-02   5.62950932E-01   923.05196718     1.72824896E-05   4.41743563E+18   1.17570813E+08   0.00000000E+00   1.15611484E+07   0.29303131      
  42               1.26587931E-02   6.56122564E-01   952.55011310     1.95192490E-05   4.98910886E+18   1.17570813E+08   0.00000000E+00   1.14007318E+07   0.29211814      
  43               1.53250748E-02   7.62688071E-01   989.88148518     2.18341612E-05   5.58071176E+18   1.17570812E+08   0.00000000E+00   1.12374952E+07   0.29112992      
  44               1.85529469E-02   8.84189913E-01   1023.15504524    2.44891184E-05   6.25936022E+18   1.17570812E+08   0.00000000E+00   1.10713346E+07   0.29002861      
  45               2.24606956E-02   1.02244867E+00   1063.81203616    2.72357234E-05   6.96149400E+18   1.17570811E+08   0.00000000E+00   1.09020425E+07   0.28884618      
  46               2.71915211E-02   1.17932086E+00   1100.07271955    3.03783880E-05   7.76491001E+18   1.17570810E+08   0.00000000E+00   1.07295801E+07   0.28754379      
  47               3.29187854E-02   1.35675873E+00   1143.08649218    3.36330457E-05   8.59704842E+18   1.17570809E+08   0.00000000E+00   1.05540381E+07   0.28617371      
  48               3.98523653E-02   1.55722509E+00   1181.25086433    3.73543449E-05   9.54849867E+18   1.17570809E+08   0.00000000E+00   1.03751885E+07   0.28470601      
  49               4.82463432E-02   1.78365382E+00   1225.81179537    4.12293578E-05   1.05393205E+19   1.17570808E+08   0.00000000E+00   1.01927326E+07   0.2832245       
  50               5.84083183E-02   2.03947088E+00   1265.27536755    4.56712404E-05   1.16750378E+19   1.17570808E+08   0.00000000E+00   1.00063073E+07   0.28170685      
  51               7.07106781E-02   2.32841945E+00   1311.05848841    5.03199477E-05   1.28636730E+19   1.17570808E+08   0.00000000E+00   9.81570449E+06   0.28020864      
  52               8.56042452E-02   2.65430796E+00   1351.65496737    5.56390332E-05   1.42236581E+19   1.17570808E+08   0.00000000E+00   9.62094021E+06   0.27869548      
  53               1.03634797E-01   3.02134312E+00   1398.61348528    6.12053373E-05   1.56468953E+19   1.17570808E+08   0.00000000E+00   9.42204539E+06   0.27719622      
  54               1.25463068E-01   3.43556619E+00   1440.43174514    6.75749394E-05   1.72755338E+19   1.17570808E+08   0.00000000E+00   9.21836593E+06   0.27559827      
  55               1.51888958E-01   3.90485591E+00   1488.78312787    7.43098848E-05   1.89976295E+19   1.17570808E+08   0.00000000E+00   9.00894204E+06   0.27396268      
  56               1.83880850E-01   4.43774867E+00   1531.97569422    8.20692051E-05   2.09815064E+19   1.17570809E+08   0.00000000E+00   8.79315321E+06   0.27227773      
  57               2.22611093E-01   5.03975341E+00   1581.53671391    9.02890736E-05   2.30810653E+19   1.17570809E+08   0.00000000E+00   8.57199599E+06   0.27060664      
  58               2.69498965E-01   5.70512468E+00   1625.90479751    9.94463847E-05   2.54153367E+19   1.17570810E+08   0.00000000E+00   8.34993769E+06   0.26894411      
  59               3.26262682E-01   6.41554975E+00   1676.60768055    1.08459428E-04   2.77158540E+19   1.17570690E+08   0.00000000E+00   8.13361828E+06   0.2672915       
  60               3.94982361E-01   7.12616134E+00   1724.53791345    1.17156989E-04   2.99301397E+19   1.14406197E+08   3.16420500E+06   7.93426466E+06   0.26555907      
  61               4.78176250E-01   7.78673571E+00   1765.10683051    1.25154987E-04   3.19528999E+19   1.09191816E+08   8.39462367E+06   7.76174667E+06   0.26405614      
  62               5.78893005E-01   8.35365891E+00   1798.45108346    1.31883062E-04   3.36437152E+19   1.03333942E+08   1.42332548E+07   7.62219872E+06   0.26279462      
  63               7.00823412E-01   8.96932568E+00   1831.92739611    1.39017008E-04   3.54631555E+19   9.69382289E+07   2.06123180E+07   7.47841244E+06   0.26148761      
  64               8.48435636E-01   9.48214655E+00   1859.04046800    1.44865068E-04   3.69439782E+19   9.05164119E+07   2.73767581E+07   7.36413207E+06   0.26040765      
  65               1.02713896E+00   9.86721348E+00   1878.01334520    1.49222759E-04   3.80558731E+19   8.51644131E+07   3.26500182E+07   7.28131173E+06   0.25958132      
  66               1.24348200E+00   1.03093352E+01   1899.84577863    1.54114973E-04   3.93041268E+19   8.02401917E+07   3.71585760E+07   7.18911786E+06   0.25863591      
  67               1.50539269E+00   1.08174769E+01   1923.21097530    1.59743726E-04   4.07403623E+19   7.50222203E+07   4.23894599E+07   7.08670591E+06   0.25759843      
  68               1.82246880E+00   1.13983424E+01   1949.63409511    1.66030133E-04   4.23461984E+19   6.85930301E+07   4.88498136E+07   6.97391595E+06   0.25641806      
  69               2.20632965E+00   1.18297646E+01   1967.83822093    1.70870122E-04   4.35424187E+19   6.22731532E+07   5.52351878E+07   6.89290770E+06   0.25559878      
  70               2.67104190E+00   1.21400830E+01   1981.30726197    1.74157658E-04   4.43808549E+19   5.74559569E+07   6.00925864E+07   6.83602198E+06   0.25501083      
  71               3.23363503E+00   1.25029642E+01   1995.81119750    1.78057176E-04   4.53752856E+19   5.35654373E+07   6.39844999E+07   6.77085711E+06   0.25422797      
  72               3.91472538E+00   1.29253012E+01   2013.13140780    1.82484121E-04   4.65044365E+19   5.00867323E+07   6.74654828E+07   6.69676585E+06   0.25358472      
  73               4.73927163E+00   1.34142423E+01   2031.73839591    1.87648433E-04   4.78216107E+19   4.67729426E+07   7.07825807E+07   6.61321098E+06   0.25259787      
  74               5.73748947E+00   1.39771892E+01   2053.31589056    1.93462490E-04   4.93048809E+19   4.37523527E+07   7.38056776E+07   6.51977875E+06   0.25173931      
  75               6.94595877E+00   1.46255480E+01   2076.44401377    2.00174314E-04   5.10173341E+19   4.09575697E+07   7.66018935E+07   6.41559185E+06   0.25049555      
  76               8.40896415E+00   1.53690226E+01   2102.72988538    2.07710536E-04   5.29405686E+19   3.83455733E+07   7.92151783E+07   6.30029086E+06   0.2493588       
  77               1.01801177E+01   1.62179447E+01   2130.65482818    2.16298789E-04   5.51326106E+19   3.57819335E+07   8.17799444E+07   6.17363889E+06   0.24780564      
  78               1.23243238E+01   1.71834145E+01   2161.69153137    2.25868918E-04   5.75760126E+19   3.33444312E+07   8.42183945E+07   6.03551019E+06   0.24639171      
  79               1.49201573E+01   1.82773195E+01   2194.34923271    2.36652563E-04   6.03298987E+19   3.09171560E+07   8.66464449E+07   5.88588787E+06   0.24452595      
  80               1.80627429E+01   1.95125760E+01   2229.94238236    2.48588132E-04   6.33792076E+19   2.85957249E+07   8.89684417E+07   5.72483733E+06   0.24273984      
  81               2.18672415E+01   2.09031797E+01   2267.03533312    2.61914969E-04   6.67851499E+19   2.62713878E+07   9.12930971E+07   5.55249815E+06   0.24042351      
  82               2.64730696E+01   2.24645499E+01   2306.77030684    2.76588125E-04   7.05373612E+19   2.40362629E+07   9.35282692E+07   5.36905133E+06   0.23823927      
  83               3.20490087E+01   2.42129249E+01   2347.83254600    2.92878599E-04   7.46974843E+19   2.17955656E+07   9.57687562E+07   5.17478901E+06   0.23553988      
  84               3.87993903E+01   2.61671118E+01   2391.17637012    3.10713171E-04   7.92629112E+19   1.97347871E+07   9.78290427E+07   4.96993511E+06   0.23298998      
  85               4.69715834E+01   2.83483068E+01   2435.69590529    3.30378994E-04   8.43004508E+19   1.77661439E+07   9.97969323E+07   4.75465175E+06   0.2299658       
  86               5.68650599E+01   3.07795246E+01   2482.14077174    3.51898156E-04   8.98175779E+19   1.59619565E+07   1.01600093E+08   4.52916991E+06   0.22713841      
  87               6.88423680E+01   3.34862893E+01   2529.61840226    3.75532311E-04   9.58821695E+19   1.42588815E+07   1.03301890E+08   4.29370780E+06   0.22375498      
  88               8.33424188E+01   3.64979873E+01   2578.61551146    4.01372607E-04   1.02519898E+20   1.27457657E+07   1.04813511E+08   4.04839682E+06   0.22065606      
  89               1.00896570E+02   3.98476207E+01   2628.59127232    4.29685703E-04   1.09800716E+20   1.13433193E+07   1.06214395E+08   3.79333152E+06   0.21708589      
  90               1.22148096E+02   4.35727403E+01   2679.73069270    4.60653327E-04   1.17774037E+20   1.00850854E+07   1.07471077E+08   3.52855380E+06   0.21377549      
  91               1.47875764E+02   4.77153844E+01   2731.82531315    4.94545662E-04   1.26511889E+20   8.92264734E+06   1.08632196E+08   3.25408595E+06   0.21006083      
  92               1.79022369E+02   5.23230202E+01   2784.75477094    5.31651871E-04   1.36091715E+20   7.87746015E+06   1.09676651E+08   2.96992409E+06   0.20663319      
  93               2.16729286E+02   5.74483653E+01   2838.65168941    5.72235665E-04   1.46585633E+20   6.93057818E+06   1.10624045E+08   2.67607330E+06   0.20309391      
  94               2.62378292E+02   6.31498979E+01   2893.18477185    6.16682860E-04   1.58096524E+20   6.09055252E+06   1.11466894E+08   2.37255952E+06   0.19969495      
  95               3.17642204E+02   6.94908556E+01   2948.61038406    6.65267404E-04   1.70701017E+20   5.35517806E+06   1.12209183E+08   2.05949681E+06   0.19638054      
  96               3.84546179E+02   7.65403275E+01   3004.53923602    7.18432780E-04   1.84517803E+20   4.69958951E+06   1.12878699E+08   1.73704026E+06   0.19301368      
  97               4.65541927E+02   8.43721456E+01   3061.14120181    7.76500691E-04   1.99637246E+20   4.11900678E+06   1.13484176E+08   1.40544777E+06   0.18992015      
  98               5.63597555E+02   9.30568448E+01   3118.13221343    8.39845993E-04   2.16162143E+20   3.59144013E+06   1.14052755E+08   1.06536057E+06   0.18662747      
  99               6.82306330E+02   1.02670179E+02   3175.35901093    9.08837850E-04   2.34194842E+20   3.12875272E+06   1.14580680E+08   7.17394091E+05   0.18401121      
  100              8.26018359E+02   1.13292804E+02   3233.10167020    9.83723228E-04   2.53810043E+20   2.70759412E+06   1.15102569E+08   3.62123927E+05   0.18085857      
  101              1.00000000E+03   1.25014763E+02   3290.48282301    1.06518725E-03   2.75186747E+20   2.49933336E+06   1.15388767E+08   0.00000000E+00   0.17867877      
