# ATMO pressure-temperature profile
# Effective temperature = 1600.0K
# log(g) = 4.0cm/s^2
# M/H = 0.0
# Optical depth grid in band 17 (1.20-1.33microns)
# All parameters in cgs units
#
# Model Level      Optical Depth    Pressure         Temperature      Density          Number Density   Rad Flux         Conv Flux        Radial Extension Adiabatic Gradient
#                                   [Ba]             [K]              [g/cm^3]         [/cm^3]          [ergs/s/cm^2/sr] [ergs/s/cm^2/sr] [cm]             [K/Ba]          
  1                1.00000000E-06   1.00000000E-05   375.20443790     7.55620181E-10   1.93044696E+14   3.71582370E+08   0.00000000E+00   6.71528009E+07   0.297909        
  2                1.23026877E-06   1.77579374E-05   425.59851132     1.18294441E-09   3.02216562E+14   3.71582370E+08   0.00000000E+00   6.63322365E+07   0.29796259      
  3                1.51356125E-06   2.67024197E-05   449.84398623     1.68291833E-09   4.29946620E+14   3.71582370E+08   0.00000000E+00   6.56983055E+07   0.29794079      
  4                1.86208714E-06   3.73493410E-05   467.10594269     2.26694944E-09   5.79153106E+14   3.71582370E+08   0.00000000E+00   6.51532113E+07   0.29788753      
  5                2.29086765E-06   5.01384405E-05   481.15311971     2.95434875E-09   7.54767784E+14   3.71582370E+08   0.00000000E+00   6.46590279E+07   0.29780275      
  6                2.81838293E-06   6.55538168E-05   494.21351717     3.76060363E-09   9.60747368E+14   3.71582370E+08   0.00000000E+00   6.41965462E+07   0.29771887      
  7                3.46736850E-06   8.41664277E-05   506.07269327     4.71520027E-09   1.20462488E+15   3.71582370E+08   0.00000000E+00   6.37545400E+07   0.2975992       
  8                4.26579519E-06   1.06663776E-04   517.78501332     5.84038673E-09   1.49208415E+15   3.71582370E+08   0.00000000E+00   6.33258331E+07   0.29749207      
  9                5.24807460E-06   1.33889101E-04   528.65959796     7.18031017E-09   1.83440381E+15   3.71582370E+08   0.00000000E+00   6.29054157E+07   0.29734098      
  10               6.45654229E-06   1.66866513E-04   539.60719884     8.76729303E-09   2.23984155E+15   3.71582370E+08   0.00000000E+00   6.24897806E+07   0.29748464      
  11               7.94328235E-06   2.06836365E-04   549.90972203     1.06637397E-08   2.72434020E+15   3.71582370E+08   0.00000000E+00   6.20764048E+07   0.29734092      
  12               9.77237221E-06   2.55300678E-04   560.47608887     1.29142410E-08   3.29929173E+15   3.71582370E+08   0.00000000E+00   6.16634212E+07   0.29722855      
  13               1.20226443E-05   3.14073771E-04   570.61995230     1.56048174E-08   3.98667246E+15   3.71582370E+08   0.00000000E+00   6.12494074E+07   0.29707347      
  14               1.47910839E-05   3.85345196E-04   581.24273068     1.87960408E-08   4.80195686E+15   3.71582370E+08   0.00000000E+00   6.08332546E+07   0.2969514       
  15               1.81970086E-05   4.71755171E-04   591.58766074     2.26084860E-08   5.77594969E+15   3.71582370E+08   0.00000000E+00   6.04140800E+07   0.29678119      
  16               2.23872114E-05   5.76489240E-04   602.47486760     2.71285279E-08   6.93071611E+15   3.71582370E+08   0.00000000E+00   5.99911785E+07   0.29664654      
  17               2.75422870E-05   7.03394458E-04   613.03489891     3.25302666E-08   8.31073785E+15   3.71582370E+08   0.00000000E+00   5.95639871E+07   0.29646119      
  18               3.38844156E-05   8.57124606E-04   624.06205558     3.89394905E-08   9.94814313E+15   3.71582370E+08   0.00000000E+00   5.91320504E+07   0.296316        
  19               4.16869383E-05   1.04338781E-03   634.66243679     4.66097637E-08   1.19077252E+16   3.71582370E+08   0.00000000E+00   5.86948369E+07   0.29611506      
  20               5.12861384E-05   1.26914233E-03   645.71173248     5.57245084E-08   1.42363118E+16   3.71582370E+08   0.00000000E+00   5.82518662E+07   0.29595715      
  21               6.30957344E-05   1.54280118E-03   656.39711042     6.66373334E-08   1.70242952E+16   3.71582370E+08   0.00000000E+00   5.78027823E+07   0.29573867      
  22               7.76247117E-05   1.87452995E-03   667.62066351     7.96048346E-08   2.03370733E+16   3.71582370E+08   0.00000000E+00   5.73473172E+07   0.29556801      
  23               9.54992586E-05   2.27660297E-03   678.49719579     9.51296195E-08   2.43032906E+16   3.71582370E+08   0.00000000E+00   5.68852796E+07   0.29533173      
  24               1.17489755E-04   2.76382135E-03   689.95386350     1.13570608E-07   2.90145445E+16   3.71582370E+08   0.00000000E+00   5.64165388E+07   0.295147        
  25               1.44543977E-04   3.35402873E-03   701.07428144     1.35637763E-07   3.46520221E+16   3.71582370E+08   0.00000000E+00   5.59410047E+07   0.29489044      
  26               1.77827941E-04   4.06869961E-03   712.84746373     1.61821527E-07   4.13413694E+16   3.71582370E+08   0.00000000E+00   5.54586154E+07   0.29468839      
  27               2.18776162E-04   4.93363395E-03   724.29299792     1.93120873E-07   4.93376520E+16   3.71582370E+08   0.00000000E+00   5.49693434E+07   0.29440839      
  28               2.69153480E-04   5.97971697E-03   736.52890788     2.30179447E-07   5.88053273E+16   3.71582370E+08   0.00000000E+00   5.44731873E+07   0.29418529      
  29               3.31131121E-04   7.24378655E-03   748.65216112     2.74321721E-07   7.00827931E+16   3.71582370E+08   0.00000000E+00   5.39701414E+07   0.29387673      
  30               4.07380278E-04   8.76979497E-03   761.69677118     3.26422900E-07   8.33936851E+16   3.71582370E+08   0.00000000E+00   5.34601809E+07   0.29362539      
  31               5.01187234E-04   1.06114161E-02   774.61697608     3.88381136E-07   9.92229588E+16   3.71582370E+08   0.00000000E+00   5.29429542E+07   0.29328155      
  32               6.16595002E-04   1.28331324E-02   788.66361778     4.61328998E-07   1.17860074E+17   3.71582370E+08   0.00000000E+00   5.24180813E+07   0.29318342      
  33               7.58577575E-04   1.55116093E-02   802.86172870     5.47751752E-07   1.39940023E+17   3.71582370E+08   0.00000000E+00   5.18852489E+07   0.29286655      
  34               9.33254301E-04   1.87375475E-02   818.36334097     6.49130003E-07   1.65841195E+17   3.71582370E+08   0.00000000E+00   5.13442475E+07   0.29252284      
  35               1.14815362E-03   2.26174437E-02   834.21847948     7.68645390E-07   1.96376517E+17   3.71582370E+08   0.00000000E+00   5.07949707E+07   0.29206719      
  36               1.41253754E-03   2.72752001E-02   851.75075773     9.07851559E-07   2.31942993E+17   3.71582370E+08   0.00000000E+00   5.02373916E+07   0.29166342      
  37               1.73780083E-03   3.28542335E-02   869.91110427     1.07071381E-06   2.73553518E+17   3.71582369E+08   0.00000000E+00   4.96715238E+07   0.2910948       
  38               2.13796209E-03   3.95184330E-02   889.87782389     1.25901666E-06   3.21658602E+17   3.71582368E+08   0.00000000E+00   4.90975441E+07   0.2905287       
  39               2.63026799E-03   4.74540624E-02   910.67222569     1.47729217E-06   3.77430633E+17   3.71582367E+08   0.00000000E+00   4.85156654E+07   0.28981419      
  40               3.23593657E-03   5.68714856E-02   933.58723506     1.72697836E-06   4.41230482E+17   3.71582366E+08   0.00000000E+00   4.79260680E+07   0.28923856      
  41               3.98107171E-03   6.80264293E-02   957.66928368     2.01372921E-06   5.14503054E+17   3.71582365E+08   0.00000000E+00   4.73278996E+07   0.28855185      
  42               4.89778819E-03   8.12132788E-02   984.18712674     2.33926773E-06   5.97688918E+17   3.71582363E+08   0.00000000E+00   4.67203235E+07   0.28789596      
  43               6.02559586E-03   9.67530205E-02   1012.38092986    2.70921200E-06   6.92223623E+17   3.71582362E+08   0.00000000E+00   4.61030431E+07   0.28702612      
  44               7.41310241E-03   1.14988646E-01   1043.52857793    3.12367215E-06   7.98135178E+17   3.71582361E+08   0.00000000E+00   4.54761889E+07   0.28620887      
  45               9.12010839E-03   1.36279847E-01   1076.63924154    3.58814188E-06   9.16826741E+17   3.71582360E+08   0.00000000E+00   4.48402245E+07   0.28523765      
  46               1.12201845E-02   1.60990613E-01   1112.74594827    4.10116460E-06   1.04792541E+18   3.71582361E+08   0.00000000E+00   4.41960583E+07   0.2842509       
  47               1.38038426E-02   1.89491298E-01   1150.94027919    4.66696818E-06   1.19251080E+18   3.71582362E+08   0.00000000E+00   4.35446034E+07   0.28291338      
  48               1.69824365E-02   2.22287558E-01   1192.35139774    5.28452599E-06   1.35032009E+18   3.71582365E+08   0.00000000E+00   4.28842080E+07   0.28151128      
  49               2.08929613E-02   2.59926690E-01   1236.07634626    5.96071577E-06   1.52311053E+18   3.71582369E+08   0.00000000E+00   4.22135711E+07   0.27978487      
  50               2.57039578E-02   3.02941067E-01   1282.97993131    6.69313387E-06   1.71026783E+18   3.71582374E+08   0.00000000E+00   4.15325669E+07   0.27839923      
  51               3.16227766E-02   3.51816603E-01   1332.33655294    7.48501640E-06   1.91261795E+18   3.71582369E+08   0.00000000E+00   4.08420399E+07   0.27696945      
  52               3.89045145E-02   4.06884406E-01   1386.98251237    8.31557596E-06   2.12483837E+18   3.71156454E+08   4.28322200E+05   4.01440386E+07   0.27524875      
  53               4.78630092E-02   4.68711164E-01   1441.80916754    9.21505133E-06   2.35463370E+18   3.69819100E+08   1.76381534E+06   3.94377452E+07   0.27312516      
  54               5.88843655E-02   5.37985602E-01   1496.93495268    1.01911527E-05   2.60311625E+18   3.67661580E+08   3.92045354E+06   3.87228243E+07   0.27090559      
  55               7.24435960E-02   6.14841337E-01   1551.81172612    1.12353394E-05   2.86978835E+18   3.64587754E+08   6.99160089E+06   3.80045780E+07   0.26869767      
  56               8.91250938E-02   6.98205877E-01   1605.56046843    1.23338582E-05   3.14979778E+18   3.60482394E+08   1.10955609E+07   3.72963847E+07   0.26702896      
  57               1.09647820E-01   7.83834766E-01   1655.78730173    1.34315109E-05   3.42882890E+18   3.55350092E+08   1.62369929E+07   3.66310689E+07   0.26529493      
  58               1.34896288E-01   8.62900986E-01   1698.36951021    1.44297003E-05   3.68005763E+18   3.49718492E+08   2.19305652E+07   3.60630669E+07   0.26404943      
  59               1.65958691E-01   9.26845493E-01   1730.71964355    1.52089929E-05   3.87888103E+18   3.44500435E+08   2.71304392E+07   3.56314239E+07   0.26251814      
  60               2.04173794E-01   9.99716153E-01   1765.28554818    1.60825299E-05   4.10192375E+18   3.38129426E+08   3.36283484E+07   3.51654885E+07   0.2613123       
  61               2.51188643E-01   1.05930684E+00   1792.21575894    1.67997921E-05   4.28111926E+18   3.32116339E+08   4.04273127E+07   3.48029068E+07   0.26009315      
  62               3.09029543E-01   1.10417553E+00   1811.52323263    1.73242738E-05   4.41489164E+18   3.27142714E+08   4.52368058E+07   3.45399017E+07   0.25924931      
  63               3.80189396E-01   1.15600479E+00   1833.27814509    1.79216755E-05   4.56727448E+18   3.21522648E+08   5.01470492E+07   3.42457587E+07   0.25792486      
  64               4.67735141E-01   1.21599566E+00   1857.17346612    1.86084380E-05   4.74247875E+18   3.14951084E+08   5.67188556E+07   3.39172543E+07   0.25674378      
  65               5.75439937E-01   1.28487047E+00   1883.71997037    1.93843649E-05   4.94047660E+18   3.07182663E+08   6.44951049E+07   3.35546106E+07   0.25497534      
  66               7.07945784E-01   1.36307730E+00   1912.05444061    2.02582492E-05   5.16352248E+18   2.98276843E+08   7.33907027E+07   3.31599547E+07   0.25339316      
  67               8.70963590E-01   1.45178821E+00   1942.95027225    2.12318608E-05   5.41212003E+18   2.88659634E+08   8.29510509E+07   3.27322118E+07   0.25122502      
  68               1.07151931E+00   1.55322904E+00   1975.84692821    2.23349694E-05   5.69387651E+18   2.78368979E+08   9.31934179E+07   3.22663823E+07   0.24915293      
  69               1.31825674E+00   1.66882926E+00   2011.60554804    2.35676770E-05   6.00889922E+18   2.66979861E+08   1.04562812E+08   3.17625235E+07   0.24629016      
  70               1.62181010E+00   1.80014830E+00   2048.98798758    2.49544801E-05   6.36348042E+18   2.54415376E+08   1.17105847E+08   3.12210258E+07   0.24359094      
  71               1.99526231E+00   1.94891136E+00   2089.11328079    2.64925342E-05   6.75703141E+18   2.40546587E+08   1.30952084E+08   3.06424489E+07   0.240098        
  72               2.45470892E+00   2.11705919E+00   2130.36736952    2.82142153E-05   7.19787562E+18   2.25486171E+08   1.45989526E+08   3.00274167E+07   0.23680014      
  73               3.01995172E+00   2.30675292E+00   2174.22448217    3.01131338E-05   7.68462248E+18   2.09181942E+08   1.62270793E+08   2.93766220E+07   0.23275084      
  74               3.71535229E+00   2.52043386E+00   2218.65746447    3.22322566E-05   8.22831459E+18   1.91867791E+08   1.79561637E+08   2.86907456E+07   0.22889894      
  75               4.57088190E+00   2.76081066E+00   2265.54878934    3.45604069E-05   8.82651052E+18   1.73501594E+08   1.97908647E+08   2.79705309E+07   0.22412493      
  76               5.62341325E+00   3.03070850E+00   2312.29111605    3.71570224E-05   9.49352495E+18   1.54603414E+08   2.16787633E+08   2.72173373E+07   0.21955289      
  77               6.91830971E+00   3.33354164E+00   2361.32003196    3.99968393E-05   1.02253192E+19   1.35834330E+08   2.35532176E+08   2.64317839E+07   0.21440232      
  78               8.51138038E+00   3.67341544E+00   2409.66879196    4.31609401E-05   1.10417659E+19   1.17973681E+08   2.53371616E+08   2.56137614E+07   0.20952844      
  79               1.04712855E+01   4.05464997E+00   2460.26140733    4.66224593E-05   1.19370759E+19   1.01354361E+08   2.69976136E+08   2.47638842E+07   0.2042824       
  80               1.28824955E+01   4.48207762E+00   2509.66389253    5.04777589E-05   1.29356915E+19   8.63313490E+07   2.84986498E+08   2.38827908E+07   0.19929637      
  81               1.58489319E+01   4.96110777E+00   2561.24241107    5.46900099E-05   1.40298755E+19   7.33294560E+07   2.97978207E+08   2.29710590E+07   0.19426692      
  82               1.94984460E+01   5.49766003E+00   2611.27402619    5.93772708E-05   1.52493478E+19   6.21771005E+07   3.09123123E+08   2.20294819E+07   0.18923286      
  83               2.39883292E+01   6.09826548E+00   2663.27823984    6.44945383E-05   1.65850057E+19   5.30137469E+07   3.18280314E+08   2.10589117E+07   0.18471857      
  84               2.95120923E+01   6.76995439E+00   2713.67258527    7.01736308E-05   1.80698328E+19   4.50175291E+07   3.26272816E+08   2.00604565E+07   0.17983184      
  85               3.63078055E+01   7.52050805E+00   2765.62446427    7.63722399E-05   1.96960806E+19   3.85162874E+07   3.32771246E+08   1.90351897E+07   0.17580852      
  86               4.46683592E+01   8.35830144E+00   2816.13754048    8.32258250E-05   2.14976015E+19   3.27852542E+07   3.38501859E+08   1.79843185E+07   0.17138235      
  87               5.49540874E+01   9.29255599E+00   2867.77521571    9.07036900E-05   2.34701529E+19   2.81583920E+07   3.43128073E+08   1.69090080E+07   0.16813882      
  88               6.76082975E+01   1.03328882E+01   2918.39219654    9.89300899E-05   2.56450714E+19   2.40043474E+07   3.47284701E+08   1.58107481E+07   0.16422195      
  89               8.31763771E+01   1.14900070E+01   2969.52649799    1.07904915E-04   2.80258587E+19   2.06170609E+07   3.50675890E+08   1.46907861E+07   0.16152755      
  90               1.02329299E+02   1.27750772E+01   3020.16094715    1.17724876E-04   3.06379206E+19   1.75970334E+07   3.53704654E+08   1.35505834E+07   0.15830815      
  91               1.25892541E+02   1.42000913E+01   3070.78679995    1.28428711E-04   3.34940227E+19   1.50656080E+07   3.56249929E+08   1.23916356E+07   0.1559252       
  92               1.54881662E+02   1.57770413E+01   3121.22436454    1.40079123E-04   3.66122496E+19   1.28616437E+07   3.58476370E+08   1.12158991E+07   0.15340152      
  93               1.90546072E+02   1.75193900E+01   3171.36632296    1.52746123E-04   4.00127509E+19   1.09928544E+07   3.60376975E+08   1.00247315E+07   0.15129336      
  94               2.34422882E+02   1.94418479E+01   3221.44824120    1.66485726E-04   4.37131621E+19   9.40765601E+06   3.62004707E+08   8.81916056E+06   0.14961912      
  95               2.88403150E+02   2.15604639E+01   3271.40873837    1.81375977E-04   4.77363415E+19   8.04232915E+06   3.63425570E+08   7.59993733E+06   0.148125        
  96               3.54813389E+02   2.38930265E+01   3321.35289002    1.97492438E-04   5.21053099E+19   6.85641845E+06   3.64681626E+08   6.36746420E+06   0.14654643      
  97               4.36515832E+02   2.64596288E+01   3371.07246711    2.14946561E-04   5.68514437E+19   5.84272040E+06   3.65780871E+08   5.12172509E+06   0.14532592      
  98               5.37031796E+02   2.92823777E+01   3421.00587293    2.33806807E-04   6.19980969E+19   4.97727826E+06   3.66748457E+08   3.86254617E+06   0.14422727      
  99               6.60693448E+02   3.23858249E+01   3470.79031502    2.54218480E-04   6.75853281E+19   4.23904128E+06   3.67605808E+08   2.58956788E+06   0.14324731      
  100              8.12830516E+02   3.57972446E+01   3520.88919067    2.76263939E-04   7.36415773E+19   3.61566365E+06   3.68365382E+08   1.30227228E+06   0.14241115      
  101              1.00000000E+03   3.95469743E+01   3570.95848674    3.00116120E-04   8.02147621E+19   3.32128123E+06   3.68756406E+08   0.00000000E+00   0.14173442      
