# ATMO pressure-temperature profile
# Effective temperature = 900.0K
# log(g) = 5.0cm/s^2
# M/H = 0.0
# Optical depth grid in band 17 (1.20-1.33microns)
# All parameters in cgs units
#
# Model Level      Optical Depth    Pressure         Temperature      Density          Number Density   Rad Flux         Conv Flux        Radial Extension Adiabatic Gradient
#                                   [Ba]             [K]              [g/cm^3]         [/cm^3]          [ergs/s/cm^2/sr] [ergs/s/cm^2/sr] [cm]             [K/Ba]          
  1                5.00000000E-07   1.00000000E-05   208.71642092     1.35746341E-09   3.47031758E+14   3.71990550E+07   0.00000000E+00   4.93035208E+06   0.31117563      
  2                6.19412983E-07   3.17447247E-05   251.96616607     3.56955501E-09   9.12546864E+14   3.71990550E+07   0.00000000E+00   4.83156894E+06   0.30914143      
  3                7.67344888E-07   5.73961149E-05   253.56772107     6.41317775E-09   1.63951113E+15   3.71990550E+07   0.00000000E+00   4.77795630E+06   0.30601844      
  4                9.50606773E-07   8.86478341E-05   268.42688052     9.35678948E-09   2.39203739E+15   3.71990550E+07   0.00000000E+00   4.73761277E+06   0.30682978      
  5                1.17763635E-06   1.26754166E-04   268.92415348     1.33541785E-08   3.41395878E+15   3.71990550E+07   0.00000000E+00   4.70352292E+06   0.30483111      
  6                1.45888650E-06   1.73354576E-04   281.34629400     1.74573706E-08   4.46292873E+15   3.71990550E+07   0.00000000E+00   4.67300241E+06   0.30555581      
  7                1.80730647E-06   2.30354590E-04   281.43265039     2.31903404E-08   5.92854648E+15   3.71990550E+07   0.00000000E+00   4.64467336E+06   0.30388955      
  8                2.23893819E-06   3.00204603E-04   292.35819593     2.90928843E-08   7.43751599E+15   3.71990550E+07   0.00000000E+00   4.61778158E+06   0.30445813      
  9                2.77365477E-06   3.85812228E-04   292.21439215     3.74075368E-08   9.56313365E+15   3.71990550E+07   0.00000000E+00   4.59183146E+06   0.30423044      
  10               3.43607555E-06   4.90811329E-04   302.66041937     4.59455696E-08   1.17458592E+16   3.71990550E+07   0.00000000E+00   4.56650443E+06   0.30465339      
  11               4.25669961E-06   6.19561193E-04   302.67437037     5.79953633E-08   1.48263552E+16   3.71990550E+07   0.00000000E+00   4.54156260E+06   0.30354585      
  12               5.27331001E-06   7.77488537E-04   312.99996170     7.03775883E-08   1.79918387E+16   3.71990550E+07   0.00000000E+00   4.51684288E+06   0.30386993      
  13               6.53271338E-06   9.71152939E-04   313.19609971     8.78528757E-08   2.24593469E+16   3.71990550E+07   0.00000000E+00   4.49221344E+06   0.30295017      
  14               8.09289496E-06   1.20869336E-03   323.50587433     1.05856767E-07   2.70619947E+16   3.71990550E+07   0.00000000E+00   4.46758141E+06   0.30320108      
  15               1.00256884E-05   1.49997954E-03   323.82111901     1.31239589E-07   3.35510414E+16   3.71990550E+07   0.00000000E+00   4.44286825E+06   0.30242324      
  16               1.24200832E-05   1.85716450E-03   334.37073820     1.57364490E-07   4.02298070E+16   3.71990550E+07   0.00000000E+00   4.41801362E+06   0.30259294      
  17               1.53863215E-05   2.29501235E-03   334.90624353     1.94154050E-07   4.96349539E+16   3.71990550E+07   0.00000000E+00   4.39296426E+06   0.30196593      
  18               1.90609746E-05   2.83164408E-03   345.82023248     2.31991949E-07   5.93081128E+16   3.71990550E+07   0.00000000E+00   4.36767905E+06   0.30208019      
  19               2.36132303E-05   3.48914782E-03   346.60203768     2.85215392E-07   7.29145328E+16   3.71990549E+07   0.00000000E+00   4.34211819E+06   0.30156688      
  20               2.92526829E-05   4.29468699E-03   357.95525013     3.39928333E-07   8.69017694E+16   3.71990549E+07   0.00000000E+00   4.31624760E+06   0.3016441       
  21               3.62389832E-05   5.28123884E-03   359.05661318     4.16732848E-07   1.06536572E+17   3.71990549E+07   0.00000000E+00   4.29003576E+06   0.30121188      
  22               4.48937934E-05   6.48916592E-03   370.93580294     4.95649693E-07   1.26711480E+17   3.71990549E+07   0.00000000E+00   4.26345763E+06   0.30126485      
  23               5.56155970E-05   7.96744859E-03   372.47730670     6.06044122E-07   1.54933485E+17   3.71990549E+07   0.00000000E+00   4.23648533E+06   0.30090269      
  24               6.88980457E-05   9.77611621E-03   384.85275065     7.19708031E-07   1.83991432E+17   3.71990548E+07   0.00000000E+00   4.20909934E+06   0.30093917      
  25               8.53526881E-05   1.19877437E-02   386.75283453     8.78191642E-07   2.24506947E+17   3.71990548E+07   0.00000000E+00   4.18128049E+06   0.30063279      
  26               1.05737126E-04   1.46910732E-02   399.69415872     1.04138390E-06   2.66226671E+17   3.71990547E+07   0.00000000E+00   4.15301224E+06   0.30065777      
  27               1.30989898E-04   1.79933850E-02   402.01920450     1.26809362E-06   3.24184251E+17   3.71990547E+07   0.00000000E+00   4.12427553E+06   0.30039976      
  28               1.62273687E-04   2.20249517E-02   415.64007533     1.50135163E-06   3.83816277E+17   3.71990546E+07   0.00000000E+00   4.09505710E+06   0.30041679      
  29               2.01028857E-04   2.69423440E-02   418.48399501     1.82407983E-06   4.66318198E+17   3.71990546E+07   0.00000000E+00   4.06534235E+06   0.30020219      
  30               2.49039768E-04   3.29371521E-02   433.02878537     2.15504456E-06   5.50928346E+17   3.71990545E+07   0.00000000E+00   4.03510628E+06   0.30021246      
  31               3.08516931E-04   4.02394676E-02   436.70602389     2.61065886E-06   6.67404119E+17   3.71990544E+07   0.00000000E+00   4.00431999E+06   0.30010408      
  32               3.82198786E-04   4.91264610E-02   452.46114100     3.07624437E-06   7.86429929E+17   3.71990546E+07   0.00000000E+00   3.97296046E+06   0.30009844      
  33               4.73477780E-04   5.99257251E-02   457.59763946     3.71043698E-06   9.48539371E+17   3.71990571E+07   0.00000000E+00   3.94099562E+06   0.2998592       
  34               5.86556569E-04   7.30338954E-02   474.83781583     4.35789616E-06   1.11405083E+18   3.71990610E+07   0.00000000E+00   3.90839756E+06   0.29985194      
  35               7.26641509E-04   8.89115578E-02   481.67739592     5.22997616E-06   1.33698887E+18   3.71990609E+07   0.00000000E+00   3.87513939E+06   0.29976641      
  36               9.00182369E-04   1.08138092E-01   498.92051070     6.14106014E-06   1.56990431E+18   3.71990610E+07   0.00000000E+00   3.84121364E+06   0.29977531      
  37               1.11516929E-03   1.31381444E-01   506.99284738     7.34268401E-06   1.87697305E+18   3.71990615E+07   0.00000000E+00   3.80659951E+06   0.29963901      
  38               1.38150068E-03   1.59445008E-01   525.66555720     8.59455296E-06   2.19698578E+18   3.71990631E+07   0.00000000E+00   3.77127276E+06   0.29961969      
  39               1.71143891E-03   1.93276889E-01   535.27743263     1.02311117E-05   2.61533202E+18   3.71990668E+07   0.00000000E+00   3.73519388E+06   0.29952946      
  40               2.12017497E-03   2.34003718E-01   555.73064742     1.19310705E-05   3.04989051E+18   3.71990741E+07   0.00000000E+00   3.69833183E+06   0.29951737      
  41               2.62652780E-03   2.82937435E-01   567.44259449     1.41282816E-05   3.61155571E+18   3.71990873E+07   0.00000000E+00   3.66064203E+06   0.29937671      
  42               3.25381085E-03   3.41622622E-01   590.15096964     1.64022526E-05   4.19285010E+18   3.71991070E+07   0.00000000E+00   3.62209134E+06   0.29931962      
  43               4.03090537E-03   4.11806389E-01   604.44399537     1.93044210E-05   4.93472382E+18   3.71991338E+07   0.00000000E+00   3.58264956E+06   0.29918304      
  44               4.99359024E-03   4.95543541E-01   629.94819595     2.22892739E-05   5.69774256E+18   3.71991677E+07   0.00000000E+00   3.54228113E+06   0.29913512      
  45               6.18618926E-03   5.95254249E-01   647.54587191     2.60465735E-05   6.65821485E+18   3.71992038E+07   0.00000000E+00   3.50089846E+06   0.29892907      
  46               7.66361189E-03   7.13798740E-01   676.51544534     2.98961966E-05   7.64229680E+18   3.71992358E+07   0.00000000E+00   3.45841713E+06   0.29882782      
  47               9.49388141E-03   8.54249856E-01   698.19445085     3.46677846E-05   8.86205337E+18   3.71992548E+07   0.00000000E+00   3.41479025E+06   0.29855208      
  48               1.17612668E-02   1.02017654E+00   731.25628023     3.95296340E-05   1.01048894E+19   3.71992555E+07   0.00000000E+00   3.36996819E+06   0.29837282      
  49               1.45701627E-02   1.21543495E+00   757.51870470     4.54627170E-05   1.16215539E+19   3.71992346E+07   0.00000000E+00   3.32390853E+06   0.29791404      
  50               1.80498959E-02   1.44446522E+00   795.03266728     5.14803519E-05   1.31597595E+19   3.71991886E+07   0.00000000E+00   3.27656669E+06   0.29757226      
  51               2.23606798E-02   1.71247040E+00   826.11869168     5.87357518E-05   1.50143476E+19   3.71991236E+07   0.00000000E+00   3.22782824E+06   0.29695828      
  52               2.77009907E-02   2.02537897E+00   868.11123017     6.61077703E-05   1.68988348E+19   3.71990649E+07   0.00000000E+00   3.17761249E+06   0.29649386      
  53               3.43167066E-02   2.38956696E+00   903.40797693     7.49474511E-05   1.91584833E+19   3.71990387E+07   0.00000000E+00   3.12587313E+06   0.29554522      
  54               4.25124273E-02   2.81157652E+00   948.78453016     8.39662915E-05   2.14638761E+19   3.71990417E+07   0.00000000E+00   3.07267559E+06   0.29477068      
  55               5.26654988E-02   3.29923968E+00   986.84268450     9.47310363E-05   2.42154075E+19   3.71990686E+07   0.00000000E+00   3.01799643E+06   0.29357998      
  56               6.52433875E-02   3.86207502E+00   1034.31857549    1.05804321E-04   2.70453260E+19   3.71991140E+07   0.00000000E+00   2.96177725E+06   0.2926146       
  57               8.08252026E-02   4.51189478E+00   1073.75613862    1.19066373E-04   3.04354091E+19   3.71991623E+07   0.00000000E+00   2.90388150E+06   0.29108253      
  58               1.00128360E-01   5.26208170E+00   1122.07953803    1.32882431E-04   3.39672028E+19   3.71992113E+07   0.00000000E+00   2.84424100E+06   0.28981964      
  59               1.24041612E-01   6.12710580E+00   1161.94161371    1.49417840E-04   3.81941557E+19   3.71992624E+07   0.00000000E+00   2.78285162E+06   0.28801449      
  60               1.53665970E-01   7.12445616E+00   1210.77561971    1.66730701E-04   4.26200437E+19   3.71993139E+07   0.00000000E+00   2.71966300E+06   0.28655033      
  61               1.90365394E-01   8.27488242E+00   1251.01516768    1.87423517E-04   4.79098814E+19   3.71993682E+07   0.00000000E+00   2.65458427E+06   0.28455129      
  62               2.35829593E-01   9.60382969E+00   1300.29279841    2.09278968E-04   5.34969635E+19   3.71994193E+07   0.00000000E+00   2.58748264E+06   0.28293636      
  63               2.92151824E-01   1.11375356E+01   1340.43271633    2.35435422E-04   6.01824584E+19   3.71994674E+07   0.00000000E+00   2.51838814E+06   0.28080353      
  64               3.61925265E-01   1.29042959E+01   1389.72296998    2.63117392E-04   6.72561366E+19   3.71995073E+07   0.00000000E+00   2.44740302E+06   0.27907794      
  65               4.48362417E-01   1.49420027E+01   1429.55798892    2.96195673E-04   7.57064487E+19   3.71995493E+07   0.00000000E+00   2.37441050E+06   0.27690201      
  66               5.55443005E-01   1.73118437E+01   1479.36264662    3.31643131E-04   8.47606960E+19   3.71995874E+07   0.00000000E+00   2.29879746E+06   0.27514579      
  67               6.88097217E-01   2.00855049E+01   1519.79989056    3.74542249E-04   9.57242966E+19   3.71996265E+07   0.00000000E+00   2.22009836E+06   0.27294982      
  68               8.52432700E-01   2.33355401E+01   1571.42163955    4.20857053E-04   1.07560043E+20   3.71996553E+07   0.00000000E+00   2.13823708E+06   0.27127037      
  69               1.05601576E+00   2.70901991E+01   1614.29452057    4.75578251E-04   1.21550084E+20   3.71997148E+07   0.00000000E+00   2.05431156E+06   0.26918869      
  70               1.30821975E+00   3.13425042E+01   1669.75021244    5.31993933E-04   1.35959020E+20   3.71997867E+07   0.00000000E+00   1.96976980E+06   0.2676228       
  71               1.62065660E+00   3.60448798E+01   1717.86576235    5.94866359E-04   1.51977815E+20   3.71868652E+07   0.00000000E+00   1.88617634E+06   0.26561482      
  72               2.00771148E+00   4.11171482E+01   1780.02162617    6.54902877E-04   1.67310634E+20   3.69104870E+07   2.80898849E+05   1.80490981E+06   0.26402445      
  73               2.48720511E+00   4.63933414E+01   1836.24030292    7.16544691E-04   1.83000374E+20   3.36238114E+07   3.55967410E+06   1.72788584E+06   0.26191721      
  74               3.08121427E+00   5.15571415E+01   1888.69965458    7.74764871E-04   1.97720531E+20   2.91402424E+07   8.03281530E+06   1.65857714E+06   0.26016529      
  75               3.81708825E+00   5.63761224E+01   1931.74559947    8.28856752E-04   2.11383512E+20   2.46233175E+07   1.25310623E+07   1.59843962E+06   0.25817666      
  76               4.72870805E+00   6.06830349E+01   1969.86470336    8.74883863E-04   2.23129367E+20   2.13582413E+07   1.57874685E+07   1.54786277E+06   0.25694156      
  77               5.85804632E+00   6.55792285E+01   2008.27749166    9.27347457E-04   2.36520300E+20   1.85252361E+07   1.86193197E+07   1.49350486E+06   0.25528636      
  78               7.25709989E+00   6.98479747E+01   2041.88418527    9.71682920E-04   2.47769904E+20   1.53884479E+07   2.17614317E+07   1.44853393E+06   0.25434736      
  79               8.99028379E+00   7.33964155E+01   2066.63417656    1.00879442E-03   2.57239160E+20   1.34393129E+07   2.37616696E+07   1.41269343E+06   0.25288985      
  80               1.11373970E+01   7.75364387E+01   2096.52619887    1.05046857E-03   2.67874514E+20   1.25654575E+07   2.47072215E+07   1.37247637E+06   0.25212751      
  81               1.37972966E+01   8.23357223E+01   2127.39576550    1.09922416E-03   2.80327594E+20   1.09205699E+07   2.63788449E+07   1.32781396E+06   0.25102506      
  82               1.70924493E+01   8.59456752E+01   2151.42292858    1.13559764E-03   2.89350392E+20   8.76041648E+06   2.84693894E+07   1.29549917E+06   0.25078696      
  83               2.11745701E+01   8.85774765E+01   2166.74148591    1.16207491E-03   2.96102480E+20   7.67685322E+06   2.94759876E+07   1.27258923E+06   0.24987045      
  84               2.62316072E+01   9.17261642E+01   2186.70151392    1.19236615E-03   3.03829240E+20   7.44171593E+06   2.97121759E+07   1.24584021E+06   0.24954434      
  85               3.24963962E+01   9.54745342E+01   2207.66618237    1.22927001E-03   3.13241996E+20   7.07973559E+06   3.00754832E+07   1.21487927E+06   0.24841073      
  86               4.02573794E+01   9.99141690E+01   2233.64445611    1.27141889E-03   3.23995423E+20   6.79609060E+06   3.03607068E+07   1.17936691E+06   0.2478501       
  87               4.98718870E+01   1.05145139E+02   2261.09513362    1.32168085E-03   3.36818708E+20   6.38978001E+06   3.07689890E+07   1.13901399E+06   0.24641659      
  88               6.17825886E+01   1.11277569E+02   2293.72663506    1.37878154E-03   3.51391953E+20   6.02604791E+06   3.11349404E+07   1.09358616E+06   0.24531459      
  89               7.65378750E+01   1.18430992E+02   2328.06911565    1.44581690E-03   3.68464233E+20   5.58375806E+06   3.15796426E+07   1.04291931E+06   0.24380979      
  90               9.48171070E+01   1.26739068E+02   2367.65126659    1.52124303E-03   3.87720365E+20   5.18646701E+06   3.19794573E+07   9.86899026E+05   0.24239652      
  91               1.17461894E+02   1.36349752E+02   2408.95114818    1.60837968E-03   4.09970115E+20   4.75596284E+06   3.24126540E+07   9.25457556E+05   0.24051181      
  92               1.45514845E+02   1.47429149E+02   2455.34747078    1.70599116E-03   4.34906840E+20   4.36369762E+06   3.28075416E+07   8.58571648E+05   0.23880294      
  93               1.80267568E+02   1.60163958E+02   2503.35788125    1.81753886E-03   4.63412444E+20   3.94927165E+06   3.32245926E+07   7.86250795E+05   0.23655912      
  94               2.23320145E+02   1.74774448E+02   2556.19232458    1.94198082E-03   4.95233770E+20   3.57336143E+06   3.36031403E+07   7.08482566E+05   0.23450253      
  95               2.76654794E+02   1.91523067E+02   2610.55991921    2.08330978E-03   5.31389858E+20   3.19524052E+06   3.39837601E+07   6.25213903E+05   0.23189901      
  96               3.42727143E+02   2.10724677E+02   2669.51605543    2.24095149E-03   5.71753326E+20   2.85561428E+06   3.43256499E+07   5.36345569E+05   0.22952485      
  97               4.24579284E+02   2.32756789E+02   2730.04774385    2.41961771E-03   6.17529850E+20   2.52352050E+06   3.46598933E+07   4.41728527E+05   0.22660172      
  98               5.25979842E+02   2.58081130E+02   2795.00675356    2.61952745E-03   6.68804567E+20   2.23764126E+06   3.49477448E+07   3.41138056E+05   0.22413132      
  99               6.51597486E+02   2.87262149E+02   2861.87451178    2.84634011E-03   7.27032221E+20   1.97597741E+06   3.52114141E+07   2.34269592E+05   0.22092946      
  100              8.07215886E+02   3.20999519E+02   2933.02402312    3.10183367E-03   7.92710484E+20   1.75372521E+06   3.54357730E+07   1.20725794E+05   0.21823062      
  101              1.00000000E+03   3.60164129E+02   3006.66986870    3.39296892E-03   8.67641967E+20   1.63581336E+06   3.55545477E+07   0.00000000E+00   0.2154185       
