# ATMO pressure-temperature profile
# Effective temperature = 500.0K
# log(g) = 3.0cm/s^2
# M/H = 0.0
# Optical depth grid in band 17 (1.20-1.33microns)
# All parameters in cgs units
#
# Model Level      Optical Depth    Pressure         Temperature      Density          Number Density   Rad Flux         Conv Flux        Radial Extension Adiabatic Gradient
#                                   [Ba]             [K]              [g/cm^3]         [/cm^3]          [ergs/s/cm^2/sr] [ergs/s/cm^2/sr] [cm]             [K/Ba]          
  1                1.00000000E-04   1.00000000E-05   77.75452621      3.64408546E-09   9.31537109E+14   3.54356485E+06   0.00000000E+00   2.95427896E+08   0.345731        
  2                1.17489755E-04   1.05341529E-04   105.68675760     2.82395298E-08   7.21946281E+15   3.54356485E+06   0.00000000E+00   2.86029384E+08   0.34242887      
  3                1.38038426E-04   2.04511154E-04   122.58952537     4.72691911E-08   1.20834090E+16   3.54356485E+06   0.00000000E+00   2.83315065E+08   0.32304501      
  4                1.62181010E-04   3.13825624E-04   137.31050543     6.47588536E-08   1.65542868E+16   3.54356485E+06   0.00000000E+00   2.81339283E+08   0.32586317      
  5                1.90546072E-04   4.36811040E-04   146.47724947     8.44962889E-08   2.15997771E+16   3.54356485E+06   0.00000000E+00   2.79676693E+08   0.32581354      
  6                2.23872114E-04   5.76546750E-04   157.82839289     1.03505388E-07   2.64591101E+16   3.54356485E+06   0.00000000E+00   2.78182498E+08   0.32440617      
  7                2.63026799E-04   7.36235121E-04   164.70480420     1.26649430E-07   3.23769626E+16   3.54356485E+06   0.00000000E+00   2.76787768E+08   0.32374175      
  8                3.09029543E-04   9.19512737E-04   174.62573175     1.49198343E-07   3.81395312E+16   3.54356485E+06   0.00000000E+00   2.75454474E+08   0.32137978      
  9                3.63078055E-04   1.13031757E-03   180.60438498     1.77297368E-07   4.53312845E+16   3.54356485E+06   0.00000000E+00   2.74158348E+08   0.32070501      
  10               4.26579519E-04   1.37293569E-03   190.07843736     2.04550744E-07   5.23170419E+16   3.54356485E+06   0.00000000E+00   2.72884342E+08   0.31812888      
  11               5.01187234E-04   1.65214529E-03   196.04059772     2.38791922E-07   6.10419023E+16   3.54356485E+06   0.00000000E+00   2.71621002E+08   0.31740967      
  12               5.88843655E-04   1.97395420E-03   205.43194170     2.72261676E-07   6.95977086E+16   3.54356485E+06   0.00000000E+00   2.70358899E+08   0.31493789      
  13               6.91830971E-04   2.34500855E-03   211.26082169     3.14516098E-07   8.03991220E+16   3.54356485E+06   0.00000000E+00   2.69090888E+08   0.31427662      
  14               8.12830516E-04   2.77308691E-03   220.41985130     3.56475913E-07   9.11252255E+16   3.54356485E+06   0.00000000E+00   2.67812430E+08   0.31209432      
  15               9.54992586E-04   3.26698182E-03   226.10002836     4.09414779E-07   1.04657882E+17   3.54356485E+06   0.00000000E+00   2.66519611E+08   0.31152916      
  16               1.12201845E-03   3.83709936E-03   234.91237967     4.62822598E-07   1.18310416E+17   3.54356485E+06   0.00000000E+00   2.65209900E+08   0.30970429      
  17               1.31825674E-03   4.49542112E-03   240.25653561     5.30166872E-07   1.35525498E+17   3.54356485E+06   0.00000000E+00   2.63880901E+08   0.30926201      
  18               1.54881662E-03   5.25599445E-03   248.80638772     5.98564269E-07   1.53009787E+17   3.54356485E+06   0.00000000E+00   2.62530759E+08   0.30774779      
  19               1.81970086E-03   6.13474570E-03   254.09427630     6.84099227E-07   1.74874917E+17   3.54356485E+06   0.00000000E+00   2.61157505E+08   0.30737769      
  20               2.13796209E-03   7.15032490E-03   262.63643116     7.71415259E-07   1.97195340E+17   3.54356485E+06   0.00000000E+00   2.59759495E+08   0.30612058      
  21               2.51188643E-03   8.32403455E-03   267.96924060     8.80169565E-07   2.24995985E+17   3.54356485E+06   0.00000000E+00   2.58335091E+08   0.30580402      
  22               2.95120923E-03   9.68064434E-03   276.59167609     9.91705171E-07   2.53507608E+17   3.54356485E+06   0.00000000E+00   2.56883044E+08   0.30477353      
  23               3.46736850E-03   1.12481912E-02   282.18279288     1.12945669E-06   2.88720752E+17   3.54356485E+06   0.00000000E+00   2.55401910E+08   0.30445416      
  24               4.07380278E-03   1.30592875E-02   291.10490842     1.27112241E-06   3.24934477E+17   3.54356485E+06   0.00000000E+00   2.53890393E+08   0.30366074      
  25               4.78630092E-03   1.51512996E-02   297.06255764     1.44517151E-06   3.69426299E+17   3.54356485E+06   0.00000000E+00   2.52346878E+08   0.30342419      
  26               5.62341325E-03   1.75675135E-02   306.36676404     1.62474822E-06   4.15331133E+17   3.54356485E+06   0.00000000E+00   2.50770056E+08   0.30271515      
  27               6.60693448E-03   2.03568273E-02   312.86043974     1.84364316E-06   4.71286805E+17   3.54356485E+06   0.00000000E+00   2.49158424E+08   0.30247663      
  28               7.76247117E-03   2.35754974E-02   322.76257324     2.06964148E-06   5.29058304E+17   3.54356485E+06   0.00000000E+00   2.47510677E+08   0.30192277      
  29               9.12010839E-03   2.72874141E-02   329.94041081     2.34338855E-06   5.99035708E+17   3.54356485E+06   0.00000000E+00   2.45825178E+08   0.30174897      
  30               1.07151931E-02   3.15667670E-02   340.49623318     2.62684971E-06   6.71496314E+17   3.54356485E+06   0.00000000E+00   2.44100380E+08   0.301331        
  31               1.25892541E-02   3.64973052E-02   348.44269974     2.96788374E-06   7.58674119E+17   3.54356485E+06   0.00000000E+00   2.42334532E+08   0.30116652      
  32               1.47910839E-02   4.21758722E-02   359.90742973     3.32040235E-06   8.48787744E+17   3.54356485E+06   0.00000000E+00   2.40525609E+08   0.30081399      
  33               1.73780083E-02   4.87102511E-02   369.08092202     3.73952374E-06   9.55926742E+17   3.54356485E+06   0.00000000E+00   2.38671220E+08   0.30065804      
  34               2.04173794E-02   5.62229616E-02   381.98401019     4.17047964E-06   1.06609124E+18   3.54356485E+06   0.00000000E+00   2.36768848E+08   0.30038089      
  35               2.39883292E-02   6.48504825E-02   392.77343799     4.67831789E-06   1.19590571E+18   3.54356485E+06   0.00000000E+00   2.34815640E+08   0.30024638      
  36               2.81838293E-02   7.47453646E-02   407.42083005     5.19827969E-06   1.32882220E+18   3.54356485E+06   0.00000000E+00   2.32809155E+08   0.30003578      
  37               3.31131121E-02   8.60701689E-02   420.43512457     5.80059096E-06   1.48278950E+18   3.54356485E+06   0.00000000E+00   2.30746794E+08   0.29993595      
  38               3.89045145E-02   9.89994114E-02   438.27501152     6.40033716E-06   1.63610715E+18   3.54204405E+06   1.52079947E+03   2.28624842E+08   0.29979771      
  39               4.57088190E-02   1.13702282E-01   457.03511320     7.04974919E-06   1.80196127E+18   3.51888725E+06   2.46775975E+04   2.26435937E+08   0.29971154      
  40               5.37031796E-02   1.30411752E-01   476.01196391     7.76346971E-06   1.98437935E+18   3.47738244E+06   6.61824081E+04   2.24177287E+08   0.29958023      
  41               6.30957344E-02   1.49374958E-01   495.96745413     8.53455755E-06   2.18147610E+18   3.41980588E+06   1.23758970E+05   2.21847623E+08   0.29946815      
  42               7.41310241E-02   1.70872544E-01   516.13482792     9.38133526E-06   2.39792149E+18   3.34748218E+06   1.96082667E+05   2.19445104E+08   0.29933774      
  43               8.70963590E-02   1.95222847E-01   537.34512285     1.02951290E-05   2.63149876E+18   3.25957988E+06   2.83984964E+05   2.16967362E+08   0.29924639      
  44               1.02329299E-01   2.22794818E-01   558.78870449     1.12982402E-05   2.88790769E+18   3.15768641E+06   3.85878435E+05   2.14410857E+08   0.29909561      
  45               1.20226443E-01   2.53995922E-01   581.35360542     1.23805118E-05   3.16455184E+18   3.04351061E+06   5.00054233E+05   2.11772733E+08   0.29895273      
  46               1.41253754E-01   2.89261332E-01   604.15192480     1.35673641E-05   3.46792788E+18   2.91940374E+06   6.24161106E+05   2.09051712E+08   0.29873902      
  47               1.65958691E-01   3.29054502E-01   628.10562222     1.48451841E-05   3.79455626E+18   2.78953897E+06   7.54025873E+05   2.06247777E+08   0.2985661       
  48               1.94984460E-01   3.73925563E-01   652.28369756     1.62442024E-05   4.15216374E+18   2.66134354E+06   8.82221306E+05   2.03358266E+08   0.29829974      
  49               2.29086765E-01   4.24516266E-01   677.69508268     1.77504439E-05   4.53717824E+18   2.54272571E+06   1.00083913E+06   2.00378947E+08   0.29805139      
  50               2.69153480E-01   4.81524859E-01   703.35459455     1.93996200E-05   4.95872728E+18   2.43982038E+06   1.10374446E+06   1.97306821E+08   0.29764083      
  51               3.16227766E-01   5.45681900E-01   730.28492246     2.11736584E-05   5.41219024E+18   2.35537941E+06   1.18818544E+06   1.94141266E+08   0.29727934      
  52               3.71535229E-01   6.17733703E-01   757.41931597     2.31107464E-05   5.90732358E+18   2.28947081E+06   1.25409404E+06   1.90884099E+08   0.29674372      
  53               4.36515832E-01   6.98531517E-01   785.81179092     2.51894572E-05   6.43862756E+18   2.24261914E+06   1.30094571E+06   1.87535342E+08   0.29632118      
  54               5.12861384E-01   7.89167298E-01   814.43566720     2.74578215E-05   7.01840031E+18   2.21324545E+06   1.33031940E+06   1.84089005E+08   0.29567645      
  55               6.02559586E-01   8.90767150E-01   844.37776757     2.98937938E-05   7.64105353E+18   2.20213058E+06   1.34143426E+06   1.80542754E+08   0.29514268      
  56               7.07945784E-01   1.00455045E+00   874.56013161     3.25488520E-05   8.31970479E+18   2.20903927E+06   1.33452558E+06   1.76895045E+08   0.29430529      
  57               8.31763771E-01   1.13171500E+00   906.01960180     3.53959360E-05   9.04743180E+18   2.23532576E+06   1.30823908E+06   1.73148580E+08   0.29362806      
  58               9.77237221E-01   1.27341147E+00   937.63413299     3.84849237E-05   9.83696644E+18   2.28044744E+06   1.26311740E+06   1.69309411E+08   0.2926223       
  59               1.14815362E+00   1.43111078E+00   970.43668603     4.17893487E-05   1.06814912E+19   2.34603117E+06   1.19753368E+06   1.65377062E+08   0.29185338      
  60               1.34896288E+00   1.60646442E+00   1003.42013161    4.53687545E-05   1.15961584E+19   2.43072303E+06   1.11284182E+06   1.61349852E+08   0.29055469      
  61               1.58489319E+00   1.80122025E+00   1037.51016746    4.91972851E-05   1.25747772E+19   2.53750456E+06   1.00606029E+06   1.57227533E+08   0.28970448      
  62               1.86208714E+00   2.01743761E+00   1071.87342016    5.33359994E-05   1.36327180E+19   2.66076651E+06   8.82798337E+05   1.53006587E+08   0.28823712      
  63               2.18776162E+00   2.25724863E+00   1107.24481052    5.77690737E-05   1.47659565E+19   2.79922139E+06   7.44343458E+05   1.48686313E+08   0.28729338      
  64               2.57039578E+00   2.52283454E+00   1142.97512086    6.25469327E-05   1.59873996E+19   2.94447058E+06   5.99094271E+05   1.44268021E+08   0.28572189      
  65               3.01995172E+00   2.81693776E+00   1179.58640547    6.76697176E-05   1.72971014E+19   3.09600865E+06   4.47556200E+05   1.39747383E+08   0.28470568      
  66               3.54813389E+00   3.14253221E+00   1216.73312720    7.31851459E-05   1.87072627E+19   3.24266158E+06   3.00903268E+05   1.35120714E+08   0.28309588      
  67               4.16869383E+00   3.50268518E+00   1254.63536312    7.91066974E-05   2.02213162E+19   3.38193342E+06   1.61631431E+05   1.30387360E+08   0.28207875      
  68               4.89778819E+00   3.90100514E+00   1293.24767324    8.54704161E-05   2.18484512E+19   3.49708575E+06   4.64790939E+04   1.25543209E+08   0.2804604       
  69               5.75439937E+00   4.34157117E+00   1332.50644624    9.23189842E-05   2.35995350E+19   3.54356485E+06   0.00000000E+00   1.20583482E+08   0.27945937      
  70               6.76082975E+00   4.82911747E+00   1371.02007624    9.98001867E-05   2.55123107E+19   3.54356484E+06   0.00000000E+00   1.15504171E+08   0.27785652      
  71               7.94328235E+00   5.36982185E+00   1410.02640697    1.07903320E-04   2.75840779E+19   3.54356484E+06   0.00000000E+00   1.10293700E+08   0.2768051       
  72               9.33254301E+00   5.97231267E+00   1449.68799533    1.16724882E-04   2.98396575E+19   3.54356484E+06   0.00000000E+00   1.04925215E+08   0.27508191      
  73               1.09647820E+01   6.64720215E+00   1490.74244181    1.26334613E-04   3.22969945E+19   3.54356484E+06   0.00000000E+00   9.93675706E+07   0.27389122      
  74               1.28824955E+01   7.40639557E+00   1533.19301940    1.36862780E-04   3.49893529E+19   3.54356483E+06   0.00000000E+00   9.35939166E+07   0.27208018      
  75               1.51356125E+01   8.26019970E+00   1577.61577954    1.48345518E-04   3.79240880E+19   3.54356483E+06   0.00000000E+00   8.76017416E+07   0.27080135      
  76               1.77827941E+01   9.20545025E+00   1623.84076971    1.60669095E-04   4.10608026E+19   3.49128193E+06   5.22830618E+04   8.14785989E+07   0.26894088      
  77               2.08929613E+01   1.02265645E+01   1670.86986480    1.73473179E-04   4.43315561E+19   3.27305689E+06   2.70507917E+05   7.53622052E+07   0.26762476      
  78               2.45470892E+01   1.12910958E+01   1715.06037423    1.86614256E-04   4.76850802E+19   2.97639701E+06   5.67167786E+05   6.94455789E+07   0.26577478      
  79               2.88403150E+01   1.23646534E+01   1757.34247703    1.99503572E-04   5.09625768E+19   2.63543965E+06   9.08125133E+05   6.38815705E+07   0.26457656      
  80               3.38844156E+01   1.33925943E+01   1794.28814355    2.11741115E-04   5.40627788E+19   2.23538328E+06   1.30818151E+06   5.88800623E+07   0.26292965      
  81               3.98107171E+01   1.42939917E+01   1825.63344154    2.22329702E-04   5.67108014E+19   1.84512266E+06   1.69844213E+06   5.47253412E+07   0.26214534      
  82               4.67735141E+01   1.50371277E+01   1849.60170409    2.30858093E-04   5.88860619E+19   1.62688931E+06   1.91688369E+06   5.14451648E+07   0.26071352      
  83               5.49540874E+01   1.58579819E+01   1875.73018475    2.40064646E-04   6.12355172E+19   1.56169383E+06   1.98187094E+06   4.79583441E+07   0.25985907      
  84               6.45654229E+01   1.67661474E+01   1902.66095701    2.50213572E-04   6.38260125E+19   1.41365087E+06   2.13057091E+06   4.42528544E+07   0.25849869      
  85               7.58577575E+01   1.75285916E+01   1924.92978672    2.58636102E-04   6.59565558E+19   1.20290516E+06   2.34065957E+06   4.12556016E+07   0.25821106      
  86               8.91250938E+01   1.81361903E+01   1941.64467603    2.65293901E-04   6.76553503E+19   1.08116024E+06   2.46328188E+06   3.89360250E+07   0.2570691       
  87               1.04712855E+02   1.88183636E+01   1960.38613758    2.72636375E-04   6.95290143E+19   1.04246636E+06   2.50194385E+06   3.63994989E+07   0.25654871      
  88               1.23026877E+02   1.95811773E+01   1980.20892951    2.80842571E-04   7.16231842E+19   9.92644460E+05   2.55092018E+06   3.36427624E+07   0.25509156      
  89               1.44543977E+02   2.04294953E+01   2001.89947661    2.89817389E-04   7.39164689E+19   8.82161161E+05   2.66140354E+06   3.06692811E+07   0.2544833       
  90               1.69824365E+02   2.10504050E+01   2017.00672827    2.96642732E-04   7.55925417E+19   7.30144318E+05   2.81342040E+06   2.85514113E+07   0.25334795      
  91               1.99526231E+02   2.14938259E+01   2027.82355446    3.01272222E-04   7.67731575E+19   6.56320125E+05   2.89103881E+06   2.70681427E+07   0.25321485      
  92               2.34422882E+02   2.20009074E+01   2039.68955120    3.06581562E-04   7.81272183E+19   6.35280470E+05   2.91274986E+06   2.53996462E+07   0.25230875      
  93               2.75422870E+02   2.25785701E+01   2053.17155690    3.12560674E-04   7.96520643E+19   6.15483735E+05   2.93291976E+06   2.35335489E+07   0.25213188      
  94               3.23593657E+02   2.32342099E+01   2067.93284939    3.19334832E-04   8.13799306E+19   5.93306604E+05   2.95525268E+06   2.14582770E+07   0.25106904      
  95               3.80189396E+02   2.39787151E+01   2084.42165931    3.26952932E-04   8.33232439E+19   5.74726605E+05   2.97423987E+06   1.91541730E+07   0.25076095      
  96               4.46683592E+02   2.48214823E+01   2102.48672462    3.35527217E-04   8.55106665E+19   5.52515564E+05   2.99667873E+06   1.66096798E+07   0.24951066      
  97               5.24807460E+02   2.57725495E+01   2122.28232280    3.45122952E-04   8.79589559E+19   5.31149494E+05   3.01860732E+06   1.38148166E+07   0.24906027      
  98               6.16595002E+02   2.68424785E+01   2143.87809054    3.55816409E-04   9.06876958E+19   5.06953947E+05   3.04319497E+06   1.07616166E+07   0.24762517      
  99               7.24435960E+02   2.80425558E+01   2167.11118818    3.67723121E-04   9.37264650E+19   4.81965630E+05   3.06900247E+06   7.44392516E+06   0.24622185      
  100              8.51138038E+02   2.93847627E+01   2192.18170287    3.80897271E-04   9.70893244E+19   4.55679618E+05   3.09594411E+06   3.85755282E+06   0.24412288      
  101              1.00000000E+03   3.08819707E+01   2218.74259340    3.95488081E-04   1.00814715E+20   4.40983206E+05   3.10966899E+06   0.00000000E+00   0.24233846      
