# ATMO pressure-temperature profile
# Effective temperature = 1100.0K
# log(g) = 3.5cm/s^2
# M/H = 0.0
# Optical depth grid in band 17 (1.20-1.33microns)
# All parameters in cgs units
#
# Model Level      Optical Depth    Pressure         Temperature      Density          Number Density   Rad Flux         Conv Flux        Radial Extension Adiabatic Gradient
#                                   [Ba]             [K]              [g/cm^3]         [/cm^3]          [ergs/s/cm^2/sr] [ergs/s/cm^2/sr] [cm]             [K/Ba]          
  1                5.00000000E-05   1.00000000E-05   310.23825086     9.13714620E-10   2.33469685E+14   8.30127777E+07   0.00000000E+00   1.58507718E+08   0.30050153      
  2                5.91534807E-05   1.24283840E-04   369.23383629     9.54154044E-09   2.43802981E+15   8.30127777E+07   0.00000000E+00   1.46268032E+08   0.30029262      
  3                6.99826855E-05   2.48687813E-04   392.36605131     1.79666949E-08   4.59080577E+15   8.30127777E+07   0.00000000E+00   1.43263403E+08   0.29995979      
  4                8.27943887E-05   3.90724523E-04   408.37318602     2.71217949E-08   6.93009664E+15   8.30127777E+07   0.00000000E+00   1.41228670E+08   0.2997965       
  5                9.79515255E-05   5.54535248E-04   421.49835606     3.72939336E-08   9.52925856E+15   8.30127777E+07   0.00000000E+00   1.39599884E+08   0.29966615      
  6                1.15883473E-04   7.44168753E-04   434.13939864     4.85900789E-08   1.24156102E+16   8.30127777E+07   0.00000000E+00   1.38191172E+08   0.29958941      
  7                1.37098216E-04   9.63978693E-04   446.46367327     6.12053007E-08   1.56389340E+16   8.30127777E+07   0.00000000E+00   1.36916556E+08   0.29952027      
  8                1.62196734E-04   1.21935981E-03   456.74760844     7.56768932E-08   1.93366588E+16   8.30127777E+07   0.00000000E+00   1.35729933E+08   0.29946944      
  9                1.91890027E-04   1.51706098E-03   465.53731341     9.23753781E-08   2.36033900E+16   8.30127777E+07   0.00000000E+00   1.34603979E+08   0.2994179       
  10               2.27019260E-04   1.86453393E-03   474.37069924     1.11419219E-07   2.84693974E+16   8.30127777E+07   0.00000000E+00   1.33520893E+08   0.29937672      
  11               2.68579588E-04   2.27039390E-03   482.28094605     1.33446988E-07   3.40978462E+16   8.30127777E+07   0.00000000E+00   1.32468345E+08   0.29933304      
  12               3.17748350E-04   2.74464778E-03   490.58747290     1.58590740E-07   4.05224789E+16   8.30127777E+07   0.00000000E+00   1.31437443E+08   0.29929623      
  13               3.75918418E-04   3.29889729E-03   498.28956817     1.87669914E-07   4.79526750E+16   8.30127777E+07   0.00000000E+00   1.30421501E+08   0.29925322      
  14               4.44737657E-04   3.94662934E-03   506.59754186     2.20836528E-07   5.64272780E+16   8.30127777E+07   0.00000000E+00   1.29415351E+08   0.29921655      
  15               5.26155608E-04   4.70357697E-03   514.33892242     2.59230746E-07   6.62376177E+16   8.30127777E+07   0.00000000E+00   1.28414920E+08   0.29917348      
  16               6.22478712E-04   5.58822678E-03   522.79232233     3.03006858E-07   7.74231187E+16   8.30127777E+07   0.00000000E+00   1.27416756E+08   0.29913449      
  17               7.36435649E-04   6.62208050E-03   530.81873428     3.53635493E-07   9.03595488E+16   8.30127777E+07   0.00000000E+00   1.26418010E+08   0.29908665      
  18               8.71254639E-04   7.83017036E-03   539.65262049     4.11305527E-07   1.05095171E+17   8.30127777E+07   0.00000000E+00   1.25416307E+08   0.29904342      
  19               1.03075489E-03   9.24166449E-03   547.96741000     4.78082766E-07   1.22157830E+17   8.30127777E+07   0.00000000E+00   1.24409734E+08   0.29898916      
  20               1.21945479E-03   1.08903581E-02   557.19887297     5.54037990E-07   1.41565612E+17   8.30127777E+07   0.00000000E+00   1.23396713E+08   0.29897243      
  21               1.44269991E-03   1.28152619E-02   566.06844304     6.41750399E-07   1.63977545E+17   8.30127777E+07   0.00000000E+00   1.22375876E+08   0.29891623      
  22               1.70681442E-03   1.50613719E-02   576.11685119     7.41073967E-07   1.89356315E+17   8.30127777E+07   0.00000000E+00   1.21345924E+08   0.29882935      
  23               2.01928028E-03   1.76805409E-02   585.79660872     8.55571463E-07   2.18612270E+17   8.30127777E+07   0.00000000E+00   1.20305753E+08   0.29872439      
  24               2.38894914E-03   2.07322687E-02   596.73534738     9.84855794E-07   2.51646506E+17   8.30127777E+07   0.00000000E+00   1.19254442E+08   0.29864507      
  25               2.82629313E-03   2.42843268E-02   607.45599072     1.13323198E-06   2.89559014E+17   8.30127777E+07   0.00000000E+00   1.18191194E+08   0.29856311      
  26               3.34370152E-03   2.84141157E-02   619.64401541     1.29986855E-06   3.32137356E+17   8.30127777E+07   0.00000000E+00   1.17115178E+08   0.29847891      
  27               3.95583167E-03   3.32110649E-02   631.60611514     1.49054140E-06   3.80857327E+17   8.30127777E+07   0.00000000E+00   1.16025387E+08   0.29836104      
  28               4.68002425E-03   3.87797405E-02   645.11544596     1.70402121E-06   4.35404885E+17   8.30127777E+07   0.00000000E+00   1.14920437E+08   0.29823801      
  29               5.53679448E-03   4.52385186E-02   658.56992281     1.94721603E-06   4.97544950E+17   8.30127777E+07   0.00000000E+00   1.13799179E+08   0.29808989      
  30               6.55041330E-03   5.27201103E-02   673.93821979     2.21750101E-06   5.66607167E+17   8.30127777E+07   0.00000000E+00   1.12660621E+08   0.29793212      
  31               7.74959494E-03   6.13736521E-02   689.55041057     2.52304011E-06   6.44676420E+17   8.30127777E+07   0.00000000E+00   1.11503710E+08   0.2977176       
  32               9.16831029E-03   7.13643829E-02   707.20035819     2.86053399E-06   7.30911647E+17   8.30127777E+07   0.00000000E+00   1.10327698E+08   0.29746339      
  33               1.08467493E-02   8.28726338E-02   725.19793974     3.23940786E-06   8.27714226E+17   8.30127777E+07   0.00000000E+00   1.09132187E+08   0.29714815      
  34               1.28324595E-02   9.60924965E-02   745.45760897     3.65407478E-06   9.33667763E+17   8.30127777E+07   0.00000000E+00   1.07917106E+08   0.29681973      
  35               1.51816929E-02   1.11230976E-01   766.40876138     4.11413559E-06   1.05121398E+18   8.30127777E+07   0.00000000E+00   1.06682425E+08   0.29643507      
  36               1.79609996E-02   1.28541270E-01   789.87224526     4.61316425E-06   1.17872250E+18   8.30127777E+07   0.00000000E+00   1.05425916E+08   0.29602641      
  37               2.12491128E-02   1.48304402E-01   814.23007133     5.16321134E-06   1.31926714E+18   8.30127777E+07   0.00000000E+00   1.04145366E+08   0.29553826      
  38               2.51391797E-02   1.70810188E-01   841.29956762     5.75540438E-06   1.47058098E+18   8.30127777E+07   0.00000000E+00   1.02839808E+08   0.29497779      
  39               2.97413996E-02   1.96346787E-01   869.35037076     6.40238088E-06   1.63589263E+18   8.30127777E+07   0.00000000E+00   1.01509493E+08   0.29426226      
  40               3.51861462E-02   2.25196921E-01   900.14098853     7.09193551E-06   1.81208160E+18   8.30127777E+07   0.00000000E+00   1.00155567E+08   0.29346094      
  41               4.16276604E-02   2.57628343E-01   931.82217402     7.83761852E-06   2.00256416E+18   8.30127777E+07   0.00000000E+00   9.87799633E+07   0.29253138      
  42               4.92484201E-02   2.93990596E-01   966.04577145     8.62685911E-06   2.20425368E+18   8.30127777E+07   0.00000000E+00   9.73815599E+07   0.29155236      
  43               5.82643093E-02   3.34712761E-01   1001.07071890    9.47795399E-06   2.42177254E+18   8.30127777E+07   0.00000000E+00   9.59574374E+07   0.29045791      
  44               6.89307339E-02   3.80168857E-01   1039.06923251    1.03711172E-05   2.65007333E+18   8.29474241E+07   6.53559693E+04   9.45075901E+07   0.28931213      
  45               8.15498567E-02   4.30715454E-01   1076.83698485    1.13375632E-05   2.89711898E+18   8.27688591E+07   2.43923062E+05   9.30335153E+07   0.28807406      
  46               9.64791575E-02   4.86772688E-01   1115.75721607    1.23657948E-05   3.15996548E+18   8.25438599E+07   4.68924788E+05   9.15363801E+07   0.28683657      
  47               1.14141560E-01   5.48802293E-01   1154.33868821    1.34752533E-05   3.44356675E+18   8.23011194E+07   7.11668504E+05   9.00168135E+07   0.2854861       
  48               1.35037411E-01   6.17541442E-01   1194.18806948    1.46567764E-05   3.74558122E+18   8.20391032E+07   9.73688868E+05   8.84700759E+07   0.28411088      
  49               1.59758657E-01   6.93738000E-01   1233.81756396    1.59361295E-05   4.07258704E+18   8.17460645E+07   1.26673228E+06   8.68934639E+07   0.28259474      
  50               1.89005613E-01   7.78108625E-01   1274.79107491    1.72995341E-05   4.42106657E+18   8.14108440E+07   1.60195772E+06   8.52865864E+07   0.28110898      
  51               2.23606798E-01   8.71353589E-01   1315.47192872    1.87733800E-05   4.79776176E+18   8.10464093E+07   1.96639716E+06   8.36503839E+07   0.27956049      
  52               2.64542408E-01   9.74217677E-01   1357.46834982    2.03401262E-05   5.19818980E+18   8.06655289E+07   2.34728230E+06   8.19857607E+07   0.27821574      
  53               3.12972084E-01   1.08749820E+00   1399.12537807    2.20292171E-05   5.62986201E+18   8.02722246E+07   2.74059108E+06   8.02934528E+07   0.27677976      
  54               3.70267763E-01   1.21238548E+00   1442.18431195    2.38258944E-05   6.08899755E+18   7.98359334E+07   3.17688686E+06   7.85696202E+07   0.27524327      
  55               4.38052539E-01   1.34997001E+00   1484.91627171    2.57671902E-05   6.58488197E+18   7.92912418E+07   3.72158290E+06   7.68136586E+07   0.2735598       
  56               5.18246648E-01   1.50094168E+00   1528.92890791    2.78266805E-05   7.11053642E+18   7.85115664E+07   4.50126345E+06   7.50307115E+07   0.27193874      
  57               6.13121862E-01   1.66488464E+00   1572.04855909    3.00267765E-05   7.67085951E+18   7.73313924E+07   5.68144660E+06   7.32371270E+07   0.27025842      
  58               7.25365844E-01   1.84017186E+00   1615.49266630    3.22981880E-05   8.25048033E+18   7.55104648E+07   7.50244077E+06   7.14571632E+07   0.26873962      
  59               8.58158289E-01   2.02138838E+00   1656.20021513    3.46120069E-05   8.84021380E+18   7.28440187E+07   1.01694659E+07   6.97432014E+07   0.26720762      
  60               1.01526100E+00   2.19899264E+00   1694.25602856    3.68214836E-05   9.40092475E+18   6.92752509E+07   1.37377535E+07   6.81699233E+07   0.2658124       
  61               1.20112443E+00   2.35970099E+00   1725.75348458    3.88211041E-05   9.90385005E+18   6.52920142E+07   1.77215087E+07   6.68256643E+07   0.26451047      
  62               1.42101382E+00   2.53103776E+00   1758.47181728    4.08651618E-05   1.04253118E+19   6.09340763E+07   2.20863872E+07   6.54653470E+07   0.26323651      
  63               1.68115827E+00   2.68184397E+00   1784.88385278    4.26729419E-05   1.08830190E+19   5.67896998E+07   2.62260754E+07   6.43232938E+07   0.26201809      
  64               1.98892727E+00   2.80356389E+00   1806.23118909    4.40824455E-05   1.12425016E+19   5.33867661E+07   2.96217660E+07   6.34358259E+07   0.2611433       
  65               2.35303941E+00   2.93973729E+00   1828.20208618    4.56676868E-05   1.16468950E+19   5.03008626E+07   3.27188543E+07   6.24760826E+07   0.26004386      
  66               2.78380943E+00   3.09251733E+00   1852.90393437    4.74005200E-05   1.20888525E+19   4.71499561E+07   3.59884551E+07   6.14376683E+07   0.25897379      
  67               3.29344035E+00   3.26550174E+00   1878.64839504    4.93638992E-05   1.25901311E+19   4.33385873E+07   3.99197656E+07   6.03068034E+07   0.25797666      
  68               3.89636920E+00   3.40084809E+00   1898.90042936    5.09054214E-05   1.29721177E+19   3.95271742E+07   4.35551875E+07   5.94528978E+07   0.25750351      
  69               4.60967600E+00   3.50122010E+00   1912.67405711    5.20297491E-05   1.32588020E+19   3.67434675E+07   4.62622013E+07   5.88361539E+07   0.25665822      
  70               5.45356761E+00   3.61547946E+00   1928.96648909    5.32729412E-05   1.35758508E+19   3.45439999E+07   4.84616395E+07   5.81498560E+07   0.2560162       
  71               6.45195012E+00   3.74494085E+00   1945.91617484    5.46987245E-05   1.39394832E+19   3.24505544E+07   5.05549523E+07   5.73914558E+07   0.25501318      
  72               7.63310614E+00   3.89097395E+00   1965.43508328    5.62657450E-05   1.43392177E+19   3.04291829E+07   5.25763855E+07   5.65590390E+07   0.25418203      
  73               9.03049593E+00   4.05488247E+00   1985.65130937    5.80371573E-05   1.47911222E+19   2.83284253E+07   5.46771137E+07   5.56519985E+07   0.25293401      
  74               1.06837053E+01   4.23745419E+00   2008.30771003    5.99637431E-05   1.52827180E+19   2.63025942E+07   5.67021056E+07   5.46733282E+07   0.25185458      
  75               1.26395671E+01   4.44041779E+00   2031.60267241    6.21124341E-05   1.58310929E+19   2.45009295E+07   5.85032110E+07   5.36216453E+07   0.2503109       
  76               1.49534878E+01   4.66727729E+00   2057.47348130    6.44609989E-05   1.64306671E+19   2.29804702E+07   6.00237105E+07   5.24878892E+07   0.24897639      
  77               1.76910170E+01   4.92011861E+00   2084.16669604    6.70781131E-05   1.70989310E+19   2.14881436E+07   6.15161273E+07   5.12719562E+07   0.24712293      
  78               2.09297047E+01   5.20119423E+00   2113.29515837    6.99267546E-05   1.78266096E+19   2.00832495E+07   6.29211471E+07   4.99741443E+07   0.24548287      
  79               2.47612977E+01   5.51291241E+00   2143.19686090    7.30762487E-05   1.86313733E+19   1.86662344E+07   6.43383333E+07   4.85951799E+07   0.24325501      
  80               2.92943389E+01   5.85790545E+00   2175.31968358    7.64933042E-05   1.95049619E+19   1.73318055E+07   6.56729651E+07   4.71359911E+07   0.24132408      
  81               3.46572422E+01   6.23900592E+00   2208.16165927    8.02467081E-05   2.04649351E+19   1.59870627E+07   6.70179603E+07   4.55977824E+07   0.23875686      
  82               4.10019301E+01   6.65933703E+00   2242.95492026    8.43099526E-05   2.15048437E+19   1.47313474E+07   6.82739554E+07   4.39817879E+07   0.23647435      
  83               4.85081376E+01   7.12227961E+00   2278.40219089    8.87506186E-05   2.26419835E+19   1.34770036E+07   6.95286251E+07   4.22893858E+07   0.23339785      
  84               5.73885036E+01   7.63162740E+00   2315.45228833    9.35538366E-05   2.38730090E+19   1.23103418E+07   7.06956307E+07   4.05217215E+07   0.23075441      
  85               6.78945948E+01   8.19113344E+00   2353.12111671    9.87885895E-05   2.52130601E+19   1.11464898E+07   7.18598663E+07   3.86812231E+07   0.22730473      
  86               8.03240320E+01   8.80538414E+00   2391.99262453    1.04438374E-04   2.66633253E+19   1.01162910E+07   7.28904494E+07   3.67688853E+07   0.22446175      
  87               9.50289215E+01   9.47964430E+00   2431.57231985    1.10566046E-04   2.82377891E+19   9.13390526E+06   7.38732453E+07   3.47846681E+07   0.22072502      
  88               1.12425830E+02   1.02193808E+01   2471.93309608    1.17200252E-04   2.99442685E+19   8.24414893E+06   7.47634064E+07   3.27297013E+07   0.21775946      
  89               1.33007583E+02   1.10305796E+01   2513.14928401    1.24371341E-04   3.17911243E+19   7.38571819E+06   7.56222668E+07   3.06049594E+07   0.21386409      
  90               1.57357229E+02   1.19199261E+01   2554.66765900    1.32146704E-04   3.37959760E+19   6.60831761E+06   7.64000857E+07   2.84112143E+07   0.21025565      
  91               1.86164557E+02   1.28946672E+01   2597.03109207    1.40539652E-04   3.59632413E+19   5.89843624E+06   7.71103983E+07   2.61493553E+07   0.20629114      
  92               2.20245630E+02   1.39627885E+01   2639.41278041    1.49642855E-04   3.83169282E+19   5.25740361E+06   7.77518637E+07   2.38202066E+07   0.20256022      
  93               2.60565913E+02   1.51329858E+01   2682.61876136    1.59459511E-04   4.08593549E+19   4.68509690E+06   7.83246110E+07   2.14246289E+07   0.19872116      
  94               3.08267614E+02   1.64148081E+01   2725.65618986    1.70105996E-04   4.36204935E+19   4.16681317E+06   7.88433404E+07   1.89634266E+07   0.19484917      
  95               3.64702046E+02   1.78186354E+01   2769.39117152    1.81585862E-04   4.66032257E+19   3.71012476E+06   7.93004800E+07   1.64375175E+07   0.19120999      
  96               4.31467909E+02   1.93556191E+01   2812.91749942    1.94023954E-04   4.98397566E+19   3.29352576E+06   7.97175470E+07   1.38480798E+07   0.18748127      
  97               5.10456573E+02   2.10378439E+01   2856.98168737    2.07433796E-04   5.33358980E+19   2.92909543E+06   8.00824673E+07   1.11963958E+07   0.18429848      
  98               6.03905660E+02   2.28781284E+01   2900.94986465    2.21932869E-04   5.71223558E+19   2.59059113E+06   8.04215046E+07   8.48408391E+06   0.18060857      
  99               7.14462436E+02   2.48905081E+01   2945.08882220    2.37576851E-04   6.12154723E+19   2.29808363E+06   8.07145980E+07   5.71266361E+06   0.17787561      
  100              8.45258798E+02   2.70896533E+01   2989.46764318    2.54434832E-04   6.56349910E+19   2.02442839E+06   8.09889159E+07   2.88407978E+06   0.17427559      
  101              1.00000000E+03   2.94917784E+01   3033.45354349    2.72653385E-04   7.04189352E+19   1.88789584E+06   8.11258353E+07   0.00000000E+00   0.17191491      
