# ATMO pressure-temperature profile
# Effective temperature = 1000.0K
# log(g) = 4.5cm/s^2
# M/H = 0.0
# Optical depth grid in band 17 (1.20-1.33microns)
# All parameters in cgs units
#
# Model Level      Optical Depth    Pressure         Temperature      Density          Number Density   Rad Flux         Conv Flux        Radial Extension Adiabatic Gradient
#                                   [Ba]             [K]              [g/cm^3]         [/cm^3]          [ergs/s/cm^2/sr] [ergs/s/cm^2/sr] [cm]             [K/Ba]          
  1                5.00000000E-05   1.00000000E-05   322.50945008     8.78565154E-10   2.24586370E+14   5.66983941E+07   0.00000000E+00   1.78699521E+07   0.30025751      
  2                5.91534807E-05   7.54956270E-04   378.79728343     5.64721901E-08   1.44357975E+16   5.66983941E+07   0.00000000E+00   1.45254885E+07   0.30054804      
  3                6.99826855E-05   1.57885167E-03   395.36907367     1.13151054E-07   2.89244078E+16   5.66983940E+07   0.00000000E+00   1.41995576E+07   0.30012211      
  4                8.27943887E-05   2.52417339E-03   413.90758475     1.72796616E-07   4.41714482E+16   5.66983940E+07   0.00000000E+00   1.39857699E+07   0.30001004      
  5                9.79515255E-05   3.61664305E-03   422.06182730     2.42800345E-07   6.20662366E+16   5.66983940E+07   0.00000000E+00   1.38171080E+07   0.29983859      
  6                1.15883473E-04   4.88425645E-03   436.68245386     3.16921786E-07   8.10137166E+16   5.66983940E+07   0.00000000E+00   1.36726019E+07   0.299794        
  7                1.37098216E-04   6.35737415E-03   443.18490537     4.06454925E-07   1.03900743E+17   5.66983940E+07   0.00000000E+00   1.35428077E+07   0.29968551      
  8                1.62196734E-04   8.07108261E-03   456.86147231     5.00573745E-07   1.27959666E+17   5.66983940E+07   0.00000000E+00   1.34226650E+07   0.2996612       
  9                1.91890027E-04   1.00651680E-02   462.75508535     6.16339255E-07   1.57541751E+17   5.66983941E+07   0.00000000E+00   1.33091366E+07   0.29957634      
  10               2.27019260E-04   1.23908248E-02   473.93164417     7.40856838E-07   1.89369637E+17   5.66983941E+07   0.00000000E+00   1.32003016E+07   0.2995588       
  11               2.68579588E-04   1.51043423E-02   479.08276259     8.93390225E-07   2.28358464E+17   5.66983942E+07   0.00000000E+00   1.30948277E+07   0.29949353      
  12               3.17748350E-04   1.82708847E-02   490.02300740     1.05655675E-06   2.70065398E+17   5.66983942E+07   0.00000000E+00   1.29917610E+07   0.29947997      
  13               3.75918418E-04   2.19649377E-02   495.19789457     1.25690088E-06   3.21275069E+17   5.66983943E+07   0.00000000E+00   1.28903918E+07   0.29941789      
  14               4.44737657E-04   2.62722362E-02   506.52673698     1.46975282E-06   3.75682102E+17   5.66983945E+07   0.00000000E+00   1.27901769E+07   0.29940396      
  15               5.26155608E-04   3.12916441E-02   512.18857240     1.73120388E-06   4.42511271E+17   5.66983946E+07   0.00000000E+00   1.26906693E+07   0.2994144       
  16               6.22478712E-04   3.71393472E-02   524.03970295     2.00825835E-06   5.13329134E+17   5.66983949E+07   0.00000000E+00   1.25914945E+07   0.29938419      
  17               7.36435649E-04   4.39485195E-02   530.25695561     2.34859125E-06   6.00321247E+17   5.66983951E+07   0.00000000E+00   1.24923472E+07   0.29925479      
  18               8.71254639E-04   5.18723210E-02   542.87235296     2.70761744E-06   6.92091946E+17   5.66983956E+07   0.00000000E+00   1.23929816E+07   0.29919998      
  19               1.03075489E-03   6.10866909E-02   549.95236408     3.14753736E-06   8.04539491E+17   5.66983959E+07   0.00000000E+00   1.22931687E+07   0.29914521      
  20               1.21945479E-03   7.17937879E-02   563.54367803     3.61001022E-06   9.22752277E+17   5.66983965E+07   0.00000000E+00   1.21927228E+07   0.29916019      
  21               1.44269991E-03   8.42210745E-02   571.66313831     4.17474279E-06   1.06710321E+18   5.66983972E+07   0.00000000E+00   1.20914933E+07   0.29910425      
  22               1.70681442E-03   9.86270580E-02   586.41683972     4.76583016E-06   1.21819128E+18   5.66983981E+07   0.00000000E+00   1.19893620E+07   0.29907876      
  23               2.01928028E-03   1.15303260E-01   595.82578760     5.48366816E-06   1.40167759E+18   5.66983990E+07   0.00000000E+00   1.18862066E+07   0.2989739       
  24               2.38894914E-03   1.34584661E-01   611.95061343     6.23200593E-06   1.59296058E+18   5.66984005E+07   0.00000000E+00   1.17819054E+07   0.29891853      
  25               2.82629313E-03   1.56841031E-01   622.81542743     7.13590298E-06   1.82400560E+18   5.66984014E+07   0.00000000E+00   1.16763657E+07   0.29878359      
  26               3.34370152E-03   1.82501438E-01   640.46453301     8.07457386E-06   2.06393990E+18   5.66984033E+07   0.00000000E+00   1.15694653E+07   0.29870876      
  27               3.95583167E-03   2.12047250E-01   653.12490293     9.19993480E-06   2.35159345E+18   5.66984043E+07   0.00000000E+00   1.14610617E+07   0.2985507       
  28               4.68002425E-03   2.46032242E-01   672.71166015     1.03636140E-05   2.64904239E+18   5.66984061E+07   0.00000000E+00   1.13509992E+07   0.29846146      
  29               5.53679448E-03   2.85062171E-01   687.52564309     1.17489453E-05   3.00314656E+18   5.66984066E+07   0.00000000E+00   1.12391475E+07   0.29827161      
  30               6.55041330E-03   3.29804086E-01   709.35026659     1.31747798E-05   3.36760492E+18   5.66984089E+07   0.00000000E+00   1.11254258E+07   0.2981212       
  31               7.74959494E-03   3.80957930E-01   726.73191261     1.48542757E-05   3.79689534E+18   5.66984080E+07   0.00000000E+00   1.10097930E+07   0.29782122      
  32               9.16831029E-03   4.39280074E-01   751.23573921     1.65696840E-05   4.23536753E+18   5.66984096E+07   0.00000000E+00   1.08922354E+07   0.29761374      
  33               1.08467493E-02   5.05603517E-01   771.66769793     1.85665230E-05   4.74575818E+18   5.66984072E+07   0.00000000E+00   1.07726591E+07   0.29729064      
  34               1.28324595E-02   5.80970365E-01   799.18988812     2.05995360E-05   5.26538145E+18   5.66984072E+07   0.00000000E+00   1.06507919E+07   0.2970472       
  35               1.51816929E-02   6.66478023E-01   822.83498626     2.29523112E-05   5.86676812E+18   5.66984017E+07   0.00000000E+00   1.05264369E+07   0.29660198      
  36               1.79609996E-02   7.63276991E-01   853.43865114     2.53432967E-05   6.47792182E+18   5.66984024E+07   0.00000000E+00   1.03995181E+07   0.29621565      
  37               2.12491128E-02   8.72492392E-01   880.28895339     2.80859879E-05   7.17897162E+18   5.66983977E+07   0.00000000E+00   1.02700665E+07   0.2956039       
  38               2.51391797E-02   9.95380386E-01   913.82393060     3.08660104E-05   7.88955288E+18   5.66983960E+07   0.00000000E+00   1.01380815E+07   0.29508667      
  39               2.97413996E-02   1.13319411E+00   943.44594017     3.40363502E-05   8.69987733E+18   5.66983978E+07   0.00000000E+00   1.00036253E+07   0.29432399      
  40               3.51861462E-02   1.28757660E+00   979.33020938     3.72574118E-05   9.52291185E+18   5.66983916E+07   0.00000000E+00   9.86653021E+06   0.29367005      
  41               4.16276604E-02   1.46028836E+00   1011.02798784    4.09300903E-05   1.04616765E+19   5.66983989E+07   0.00000000E+00   9.72666997E+06   0.29273282      
  42               4.92484201E-02   1.65324978E+00   1048.44523992    4.46845304E-05   1.14213795E+19   5.66983954E+07   0.00000000E+00   9.58398750E+06   0.29191613      
  43               5.82643093E-02   1.86853370E+00   1081.23504208    4.89713123E-05   1.25171847E+19   5.66984019E+07   0.00000000E+00   9.43845427E+06   0.29079054      
  44               6.89307339E-02   2.10870196E+00   1119.29524278    5.33858003E-05   1.36457178E+19   5.66983992E+07   0.00000000E+00   9.28991818E+06   0.28979028      
  45               8.15498567E-02   2.37655036E+00   1152.39622455    5.84378584E-05   1.49372632E+19   5.66984044E+07   0.00000000E+00   9.13827282E+06   0.28844247      
  46               9.64791575E-02   2.67558091E+00   1190.72145522    6.36720192E-05   1.62754779E+19   5.66983990E+07   0.00000000E+00   8.98325051E+06   0.28722062      
  47               1.14141560E-01   3.00947897E+00   1224.08451203    6.96647461E-05   1.78076147E+19   5.66983999E+07   0.00000000E+00   8.82471259E+06   0.28564776      
  48               1.35037411E-01   3.38213665E+00   1262.83080288    7.58874795E-05   1.93986641E+19   5.66983937E+07   0.00000000E+00   8.66263663E+06   0.28428368      
  49               1.59758657E-01   3.79787395E+00   1296.56746983    8.29970538E-05   2.12163790E+19   5.66983910E+07   0.00000000E+00   8.49698233E+06   0.28265258      
  50               1.89005613E-01   4.26204263E+00   1335.76329394    9.04062014E-05   2.31107545E+19   5.66983791E+07   0.00000000E+00   8.32753080E+06   0.28131051      
  51               2.23606798E-01   4.78038706E+00   1369.76788893    9.88828835E-05   2.52779541E+19   5.66983739E+07   0.00000000E+00   8.15416683E+06   0.27971257      
  52               2.64542408E-01   5.36004827E+00   1409.27442840    1.07763679E-04   2.75485642E+19   5.66983476E+07   0.00000000E+00   7.97659353E+06   0.27839297      
  53               3.12972084E-01   6.01077285E+00   1443.51657443    1.17978260E-04   3.01602114E+19   5.66983585E+07   0.00000000E+00   7.79409460E+06   0.27677241      
  54               3.70267763E-01   6.74439305E+00   1483.52934186    1.28805524E-04   3.29285473E+19   5.66983275E+07   0.00000000E+00   7.60590100E+06   0.27537012      
  55               4.38052539E-01   7.57413284E+00   1518.33177756    1.41332435E-04   3.61320062E+19   5.66983755E+07   0.00000000E+00   7.41143006E+06   0.27365239      
  56               5.18246648E-01   8.51433732E+00   1559.30794200    1.54710312E-04   3.95498463E+19   5.66983890E+07   0.00000000E+00   7.21035816E+06   0.27223725      
  57               6.13121862E-01   9.57238386E+00   1595.26145495    1.70015126E-04   4.34624369E+19   5.66984666E+07   0.00000000E+00   7.00405623E+06   0.2705473       
  58               7.25365844E-01   1.07414989E+01   1637.91217507    1.85871835E-04   4.75007117E+19   5.66985673E+07   0.00000000E+00   6.79607271E+06   0.26918411      
  59               8.58158289E-01   1.20049070E+01   1676.08567486    2.03010085E-04   5.18786213E+19   5.66986025E+07   0.00000000E+00   6.59039834E+06   0.26751648      
  60               1.01526100E+00   1.33334246E+01   1721.78333867    2.19511274E-04   5.60904660E+19   5.66720535E+07   0.00000000E+00   6.39138403E+06   0.26604322      
  61               1.20112443E+00   1.46700956E+01   1765.77288834    2.35576827E-04   6.01760864E+19   5.40151997E+07   2.66556879E+06   6.20550047E+06   0.26419355      
  62               1.42101382E+00   1.59412641E+01   1804.99109776    2.50566509E-04   6.39695850E+19   4.96199475E+07   7.04460771E+06   6.04004191E+06   0.26258162      
  63               1.68115827E+00   1.70896985E+01   1837.99624069    2.64023542E-04   6.73465915E+19   4.48053437E+07   1.18374571E+07   5.89883910E+06   0.26121486      
  64               1.98892727E+00   1.81178306E+01   1866.35623929    2.75651865E-04   7.03133018E+19   4.07084300E+07   1.59169813E+07   5.77832236E+06   0.25996266      
  65               2.35303941E+00   1.92585321E+01   1895.98128095    2.88419321E-04   7.35724089E+19   3.65840961E+07   2.00294099E+07   5.65039023E+06   0.25883873      
  66               2.78380943E+00   2.01780449E+01   1919.11702462    2.98637725E-04   7.61558842E+19   3.22520072E+07   2.43388139E+07   5.55130842E+06   0.25780677      
  67               3.29344035E+00   2.08645883E+01   1935.54157786    3.06174438E-04   7.80788044E+19   2.91285148E+07   2.74501101E+07   5.47951059E+06   0.25686335      
  68               3.89636920E+00   2.16435015E+01   1953.99189237    3.14600875E-04   8.02288569E+19   2.70307088E+07   2.95515348E+07   5.40014638E+06   0.25595333      
  69               4.60967600E+00   2.25233159E+01   1973.81366675    3.24096223E-04   8.26517429E+19   2.52358687E+07   3.13513700E+07   5.31301507E+06   0.25511001      
  70               5.45356761E+00   2.35128802E+01   1995.72841530    3.34613399E-04   8.53355969E+19   2.34496399E+07   3.31432615E+07   5.21799058E+06   0.25450593      
  71               6.45195012E+00   2.46191860E+01   2019.02122021    3.46294748E-04   8.83199156E+19   2.08411143E+07   3.57698258E+07   5.11521717E+06   0.254088        
  72               7.63310614E+00   2.54359343E+01   2035.99508698    3.55101361E-04   9.04892125E+19   1.78764425E+07   3.87798368E+07   5.04155605E+06   0.25362539      
  73               9.03049593E+00   2.60247267E+01   2047.65413215    3.61248023E-04   9.20567026E+19   1.60661502E+07   4.06202715E+07   4.98957042E+06   0.25312485      
  74               1.06837053E+01   2.67007508E+01   2061.15991629    3.68197188E-04   9.38291162E+19   1.51723533E+07   4.15129358E+07   4.93095400E+06   0.25253593      
  75               1.26395671E+01   2.74744603E+01   2075.87992872    3.76173313E-04   9.58633892E+19   1.44764149E+07   4.22083677E+07   4.86521187E+06   0.25188919      
  76               1.49534878E+01   2.83568346E+01   2092.64144816    3.85135835E-04   9.81496524E+19   1.38884042E+07   4.27952956E+07   4.79190376E+06   0.25113406      
  77               1.76910170E+01   2.93620009E+01   2110.81068579    3.95344585E-04   1.00753978E+20   1.33270339E+07   4.33548772E+07   4.71044399E+06   0.25030535      
  78               2.09297047E+01   3.05031924E+01   2131.21179574    4.06765444E-04   1.03667953E+20   1.27781139E+07   4.39019149E+07   4.62045305E+06   0.24936976      
  79               2.47612977E+01   3.17944815E+01   2153.12510788    4.19654189E-04   1.06956780E+20   1.21993855E+07   4.44786422E+07   4.52161916E+06   0.24836274      
  80               2.92943389E+01   3.32508288E+01   2177.35796189    4.33972301E-04   1.10611041E+20   1.16194145E+07   4.50565957E+07   4.41370252E+06   0.247225        
  81               3.46572422E+01   3.48881577E+01   2203.12530526    4.49992562E-04   1.14700333E+20   1.10101257E+07   4.56639169E+07   4.29653625E+06   0.2459866       
  82               4.10019301E+01   3.67234739E+01   2231.21945264    4.67670973E-04   1.19214013E+20   1.04037854E+07   4.62684045E+07   4.17002230E+06   0.24458013      
  83               4.85081376E+01   3.87750195E+01   2260.78545070    4.87303677E-04   1.24227720E+20   9.77797570E+06   4.68925188E+07   4.03412475E+06   0.24307484      
  84               5.73885036E+01   4.10624736E+01   2292.61978253    5.08839493E-04   1.29729550E+20   9.15265961E+06   4.75151426E+07   3.88885917E+06   0.24142314      
  85               6.78945948E+01   4.36065274E+01   2325.79855786    5.32655846E-04   1.35801712E+20   8.50972276E+06   4.81560490E+07   3.73432423E+06   0.23968077      
  86               8.03240320E+01   4.64305935E+01   2361.13863083    5.58595529E-04   1.42432333E+20   7.89710007E+06   4.87691279E+07   3.57060351E+06   0.23778         
  87               9.50289215E+01   4.95608625E+01   2397.67299141    5.87088029E-04   1.49718251E+20   7.29765100E+06   4.93690123E+07   3.39774836E+06   0.23580714      
  88               1.12425830E+02   5.30257515E+01   2436.26062100    6.18081995E-04   1.57648167E+20   6.72337408E+06   4.99430652E+07   3.21585541E+06   0.23369503      
  89               1.33007583E+02   5.68568729E+01   2475.87531778    6.52012449E-04   1.66333620E+20   6.15914278E+06   5.05075267E+07   3.02501239E+06   0.23150732      
  90               1.57357229E+02   6.10892951E+01   2517.42591179    6.88834478E-04   1.75765751E+20   5.63106201E+06   5.10360131E+07   2.82529992E+06   0.22915792      
  91               1.86164557E+02   6.57639129E+01   2559.84043647    7.29077248E-04   1.86080383E+20   5.13724169E+06   5.15302949E+07   2.61670504E+06   0.22675424      
  92               2.20245630E+02   7.09273801E+01   2604.12426416    7.72726735E-04   1.97277726E+20   4.68659852E+06   5.19815455E+07   2.39916274E+06   0.22421771      
  93               2.60565913E+02   7.66330128E+01   2649.15605192    8.20430638E-04   2.09524203E+20   4.26369635E+06   5.24050380E+07   2.17255637E+06   0.22164625      
  94               3.08267614E+02   8.29419398E+01   2696.03228725    8.72209897E-04   2.22830656E+20   3.87487836E+06   5.27944922E+07   1.93671140E+06   0.21893367      
  95               3.64702046E+02   8.99244371E+01   2743.56535440    9.28869644E-04   2.37404123E+20   3.50967379E+06   5.31603387E+07   1.69139553E+06   0.21622547      
  96               4.31467909E+02   9.76614678E+01   2792.97023948    9.90475765E-04   2.53269433E+20   3.17547122E+06   5.34951550E+07   1.43631450E+06   0.21347577      
  97               5.10456573E+02   1.06246465E+02   2843.01412999    1.05802488E-03   2.70683205E+20   2.86311438E+06   5.38080467E+07   1.17111441E+06   0.21079876      
  98               6.03905660E+02   1.15787592E+02   2895.02764193    1.13165007E-03   2.89691096E+20   2.57875575E+06   5.40928792E+07   8.95374594E+05   0.20807913      
  99               7.14462436E+02   1.26410348E+02   2947.69508361    1.21260980E-03   3.10617492E+20   2.31921402E+06   5.43528078E+07   6.08610595E+05   0.20542593      
  100              8.45258798E+02   1.38259019E+02   3002.45948690    1.30112417E-03   3.33535569E+20   2.09163623E+06   5.45810584E+07   3.10309868E+05   0.20272692      
  101              1.00000000E+03   1.51496938E+02   3057.88657186    1.39874687E-03   3.58846177E+20   1.96974247E+06   5.47025857E+07   0.00000000E+00   0.2000518       
