# ATMO pressure-temperature profile
# Effective temperature = 1400.0K
# log(g) = 5.0cm/s^2
# M/H = 0.0
# Optical depth grid in band 17 (1.20-1.33microns)
# All parameters in cgs units
#
# Model Level      Optical Depth    Pressure         Temperature      Density          Number Density   Rad Flux         Conv Flux        Radial Extension Adiabatic Gradient
#                                   [Ba]             [K]              [g/cm^3]         [/cm^3]          [ergs/s/cm^2/sr] [ergs/s/cm^2/sr] [cm]             [K/Ba]          
  1                1.00000000E-07   1.00000000E-05   397.59498411     7.12702883E-10   1.82173391E+14   2.17814629E+08   0.00000000E+00   6.69856325E+06   0.2973995       
  2                1.25892541E-07   1.79421687E-05   434.97927735     1.16885035E-09   2.98766712E+14   2.17814629E+08   0.00000000E+00   6.61154576E+06   0.29740437      
  3                1.58489319E-07   2.75816786E-05   440.87389255     1.77279638E-09   4.53139739E+14   2.17814629E+08   0.00000000E+00   6.54458103E+06   0.29746585      
  4                1.99526231E-07   3.95206412E-05   455.77689336     2.45710787E-09   6.28054769E+14   2.17814629E+08   0.00000000E+00   6.48737721E+06   0.29745671      
  5                2.51188643E-07   5.43358757E-05   459.25773691     3.35260770E-09   8.56951078E+14   2.17814629E+08   0.00000000E+00   6.43575875E+06   0.29752993      
  6                3.16227766E-07   7.27488173E-05   472.48599498     4.36304353E-09   1.11522587E+15   2.17814629E+08   0.00000000E+00   6.38761532E+06   0.29751642      
  7                3.98107171E-07   9.56357770E-05   475.68914740     5.69704566E-09   1.45620657E+15   2.17814629E+08   0.00000000E+00   6.34170942E+06   0.29759539      
  8                5.01187234E-07   1.24104878E-04   488.12580555     7.20459610E-09   1.84154750E+15   2.17814629E+08   0.00000000E+00   6.29727249E+06   0.29758289      
  9                6.30957344E-07   1.59512265E-04   491.34300000     9.19945007E-09   2.35144675E+15   2.17814629E+08   0.00000000E+00   6.25378061E+06   0.29766269      
  10               7.94328235E-07   2.03565035E-04   503.38932697     1.14591325E-08   2.92903810E+15   2.17814629E+08   0.00000000E+00   6.21087477E+06   0.29765378      
  11               1.00000000E-06   2.58360880E-04   506.70620732     1.44485111E-08   3.69314509E+15   2.17814629E+08   0.00000000E+00   6.16828943E+06   0.29772934      
  12               1.25892541E-06   3.26536651E-04   518.61843890     1.78417130E-08   4.56047229E+15   2.17814629E+08   0.00000000E+00   6.12582745E+06   0.29895087      
  13               1.58489319E-06   4.11359002E-04   522.06726575     2.23278607E-08   5.70716438E+15   2.17814629E+08   0.00000000E+00   6.08332945E+06   0.29885832      
  14               1.99526231E-06   5.16910517E-04   534.08511732     2.74256844E-08   7.01020522E+15   2.17814629E+08   0.00000000E+00   6.04067521E+06   0.29886637      
  15               2.51188643E-06   6.48237165E-04   537.75990469     3.41584452E-08   8.73114796E+15   2.17814629E+08   0.00000000E+00   5.99776851E+06   0.29876589      
  16               3.16227766E-06   8.11627008E-04   550.05416451     4.18122582E-08   1.06875183E+16   2.17814629E+08   0.00000000E+00   5.95453464E+06   0.29876923      
  17               3.98107171E-06   1.01486363E-03   553.96557874     5.19131645E-08   1.32693835E+16   2.17814629E+08   0.00000000E+00   5.91091205E+06   0.29866104      
  18               5.01187234E-06   1.26764854E-03   566.48001183     6.34113306E-08   1.62083986E+16   2.17814629E+08   0.00000000E+00   5.86685363E+06   0.29865964      
  19               6.30957344E-06   1.58200237E-03   570.48162416     7.85810958E-08   2.00859006E+16   2.17814629E+08   0.00000000E+00   5.82232121E+06   0.29853923      
  20               7.94328235E-06   1.97290578E-03   583.11497576     9.58748642E-08   2.45063137E+16   2.17814629E+08   0.00000000E+00   5.77728539E+06   0.29853341      
  21               1.00000000E-05   2.45890268E-03   587.15289677     1.18670495E-07   3.03330424E+16   2.17814629E+08   0.00000000E+00   5.73172266E+06   0.29840231      
  22               1.25892541E-05   3.06304094E-03   599.94197218     1.44675910E-07   3.69802118E+16   2.17814629E+08   0.00000000E+00   5.68561566E+06   0.2983927       
  23               1.58489319E-05   3.81380109E-03   604.13102788     1.78887326E-07   4.57248971E+16   2.17814629E+08   0.00000000E+00   5.63894829E+06   0.29824724      
  24               1.99526231E-05   4.74652321E-03   617.19801110     2.17923360E-07   5.57027877E+16   2.17814629E+08   0.00000000E+00   5.59170821E+06   0.2982349       
  25               2.51188643E-05   5.90490870E-03   621.49399482     2.69233409E-07   6.88180068E+16   2.17814629E+08   0.00000000E+00   5.54388522E+06   0.29807682      
  26               3.16227766E-05   7.34362704E-03   634.80045546     3.27813064E-07   8.37913567E+16   2.17814629E+08   0.00000000E+00   5.49545704E+06   0.29806344      
  27               3.98107171E-05   9.13051935E-03   639.20404814     4.04770494E-07   1.03462223E+17   2.17814629E+08   0.00000000E+00   5.44640231E+06   0.2978899       
  28               5.01187234E-05   1.13498049E-02   652.72615779     4.92731514E-07   1.25945663E+17   2.17814629E+08   0.00000000E+00   5.39670835E+06   0.29787646      
  29               6.30957344E-05   1.41055705E-02   657.26052989     6.08143487E-07   1.55445783E+17   2.17814629E+08   0.00000000E+00   5.34636593E+06   0.29768772      
  30               7.94328235E-05   1.75265940E-02   671.26567200     7.39872145E-07   1.89116285E+17   2.17814629E+08   0.00000000E+00   5.29536539E+06   0.29767451      
  31               1.00000000E-04   2.17715799E-02   676.04728951     9.12570580E-07   2.33259161E+17   2.17814629E+08   0.00000000E+00   5.24370417E+06   0.29746449      
  32               1.25892541E-04   2.70360566E-02   690.54934945     1.10943653E-06   2.83579261E+17   2.17814629E+08   0.00000000E+00   5.19138380E+06   0.29744772      
  33               1.58489319E-04   3.35602304E-02   695.91914549     1.36653240E-06   3.49294694E+17   2.17814629E+08   0.00000000E+00   5.13839741E+06   0.29721588      
  34               1.99526231E-04   4.16364906E-02   711.60089957     1.65803429E-06   4.23802455E+17   2.17814629E+08   0.00000000E+00   5.08474319E+06   0.29723014      
  35               2.51188643E-04   5.16179970E-02   718.21618996     2.03658517E-06   5.20561203E+17   2.17814629E+08   0.00000000E+00   5.03042465E+06   0.29691412      
  36               3.16227766E-04   6.39332916E-02   735.72479362     2.46245483E-06   6.29415614E+17   2.17814629E+08   0.00000000E+00   4.97543140E+06   0.29685902      
  37               3.98107171E-04   7.90969806E-02   744.13059668     3.01208520E-06   7.69904013E+17   2.17814628E+08   0.00000000E+00   4.91975295E+06   0.29654265      
  38               5.01187234E-04   9.77230924E-02   763.80881028     3.62552846E-06   9.26698325E+17   2.17814628E+08   0.00000000E+00   4.86338876E+06   0.2965053       
  39               6.30957344E-04   1.20557811E-01   774.41216592     4.41145592E-06   1.12758431E+18   2.17814628E+08   0.00000000E+00   4.80629101E+06   0.29615603      
  40               7.94328235E-04   1.48512947E-01   796.74034683     5.28209491E-06   1.35012303E+18   2.17814628E+08   0.00000000E+00   4.74837915E+06   0.2960157       
  41               1.00000000E-03   1.82656443E-01   810.09672101     6.38935163E-06   1.63314205E+18   2.17814628E+08   0.00000000E+00   4.68960633E+06   0.29549415      
  42               1.25892541E-03   2.24245296E-01   835.53878673     7.60528209E-06   1.94393870E+18   2.17814628E+08   0.00000000E+00   4.62994528E+06   0.29531686      
  43               1.58489319E-03   2.74753557E-01   852.45156348     9.13339494E-06   2.33452996E+18   2.17814628E+08   0.00000000E+00   4.56934304E+06   0.29475501      
  44               1.99526231E-03   3.35877746E-01   881.81653129     1.07934892E-05   2.75885473E+18   2.17814628E+08   0.00000000E+00   4.50778056E+06   0.29447628      
  45               2.51188643E-03   4.09467138E-01   903.04620016     1.28489819E-05   3.28424027E+18   2.17814627E+08   0.00000000E+00   4.44529207E+06   0.29370626      
  46               3.16227766E-03   4.97608588E-01   937.04176655     1.50484407E-05   3.84640276E+18   2.17814627E+08   0.00000000E+00   4.38190503E+06   0.29323467      
  47               3.98107171E-03   6.02781527E-01   963.50378827     1.77287701E-05   4.53139945E+18   2.17814626E+08   0.00000000E+00   4.31751482E+06   0.29222424      
  48               5.01187234E-03   7.27847845E-01   1002.80429770    2.05680474E-05   5.25714861E+18   2.17814626E+08   0.00000000E+00   4.25202036E+06   0.29156661      
  49               6.30957344E-03   8.75773292E-01   1034.98668186    2.39784490E-05   6.12890338E+18   2.17814624E+08   0.00000000E+00   4.18541090E+06   0.2903359       
  50               7.94328235E-03   1.05001647E+00   1079.84516274    2.75543814E-05   7.04304497E+18   2.17814625E+08   0.00000000E+00   4.11762334E+06   0.28946035      
  51               1.00000000E-02   1.25422454E+00   1117.55466284    3.18019304E-05   8.12891080E+18   2.17814622E+08   0.00000000E+00   4.04863892E+06   0.28795397      
  52               1.25892541E-02   1.49244364E+00   1167.16067169    3.62327820E-05   9.26175172E+18   2.17814622E+08   0.00000000E+00   3.97846121E+06   0.28676751      
  53               1.58489319E-02   1.76960262E+00   1209.26256119    4.14646788E-05   1.05993928E+19   2.17814621E+08   0.00000000E+00   3.90695575E+06   0.28486557      
  54               1.99526231E-02   2.09182162E+00   1262.58785622    4.69433383E-05   1.20002109E+19   2.17814619E+08   0.00000000E+00   3.83392173E+06   0.28336316      
  55               2.51188643E-02   2.46580423E+00   1308.05160508    5.34115893E-05   1.36539892E+19   2.17814618E+08   0.00000000E+00   3.75923441E+06   0.28123074      
  56               3.16227766E-02   2.89869287E+00   1364.21410866    6.02022170E-05   1.53902440E+19   2.17814615E+08   0.00000000E+00   3.68289437E+06   0.27960735      
  57               3.98107171E-02   3.39858315E+00   1412.12977249    6.81880720E-05   1.74320768E+19   2.17814615E+08   0.00000000E+00   3.60487282E+06   0.277467        
  58               5.01187234E-02   3.97843655E+00   1470.66025874    7.66436710E-05   1.95941270E+19   2.17814611E+08   0.00000000E+00   3.52466308E+06   0.27577068      
  59               6.30957344E-02   4.65473729E+00   1521.15465769    8.66939364E-05   2.21639745E+19   2.17814607E+08   0.00000000E+00   3.44169521E+06   0.27343103      
  60               7.94328235E-02   5.44047038E+00   1581.97984685    9.74395245E-05   2.49092897E+19   2.17814611E+08   0.00000000E+00   3.35620342E+06   0.27158149      
  61               1.00000000E-01   6.32628273E+00   1634.35928971    1.09704196E-04   2.80367004E+19   2.17814607E+08   0.00000000E+00   3.27052339E+06   0.26920141      
  62               1.25892541E-01   7.27607733E+00   1695.59046627    1.21638309E-04   3.10815150E+19   2.17813440E+08   0.00000000E+00   3.18830064E+06   0.26737514      
  63               1.58489319E-01   8.20669205E+00   1750.59025946    1.32948438E-04   3.39554483E+19   2.13500236E+08   4.30263044E+06   3.11511749E+06   0.26506627      
  64               1.99526231E-01   9.06938877E+00   1797.55868118    1.43257364E-04   3.65443954E+19   2.06482257E+08   1.13286097E+07   3.05260017E+06   0.26310948      
  65               2.51188643E-01   9.84595223E+00   1836.51415699    1.52224168E-04   3.88319575E+19   1.98486852E+08   1.93996966E+07   3.00001333E+06   0.26137347      
  66               3.16227766E-01   1.05081662E+01   1868.09184544    1.59762877E-04   4.07431447E+19   1.90378101E+08   2.76581472E+07   2.95754750E+06   0.2601256       
  67               3.98107171E-01   1.10249744E+01   1891.35114634    1.65556017E-04   4.22212669E+19   1.82927486E+08   3.52745105E+07   2.92577004E+06   0.25902622      
  68               5.01187234E-01   1.16354706E+01   1918.06144940    1.72286399E-04   4.39387075E+19   1.74856136E+08   4.35370283E+07   2.88962196E+06   0.2580046       
  69               6.30957344E-01   1.23507464E+01   1947.58541470    1.80093102E-04   4.59327589E+19   1.64874120E+08   5.34952075E+07   2.84901506E+06   0.25661279      
  70               7.94328235E-01   1.28967495E+01   1969.39506409    1.86133165E-04   4.74321988E+19   1.54908322E+08   6.29510090E+07   2.81918960E+06   0.25577495      
  71               1.00000000E+00   1.33025861E+01   1984.92436824    1.90485247E-04   4.85420324E+19   1.46535259E+08   7.09427774E+07   2.79763654E+06   0.25494354      
  72               1.25892541E+00   1.37929342E+01   2003.41853176    1.95679219E-04   4.98667216E+19   1.38708610E+08   7.87562938E+07   2.77223843E+06   0.2542405       
  73               1.58489319E+00   1.43813000E+01   2024.66737140    2.01879980E-04   5.14482137E+19   1.30867512E+08   8.66213992E+07   2.74263591E+06   0.25311371      
  74               1.99526231E+00   1.50820692E+01   2049.24696517    2.09170404E-04   5.33080098E+19   1.23022601E+08   9.44950349E+07   2.70853401E+06   0.25212956      
  75               2.51188643E+00   1.59152975E+01   2077.07610212    2.17759322E-04   5.54993876E+19   1.15167280E+08   1.02382172E+08   2.66949257E+06   0.25062832      
  76               3.16227766E+00   1.68996798E+01   2108.53436306    2.27765346E-04   5.80528615E+19   1.07189139E+08   1.10393879E+08   2.62529158E+06   0.24927424      
  77               3.98107171E+00   1.80553729E+01   2143.44142179    2.39361106E-04   6.10127617E+19   9.89995685E+07   1.18617230E+08   2.57579530E+06   0.2473214       
  78               5.01187234E+00   1.94043043E+01   2181.85535959    2.52691950E-04   6.44166238E+19   9.07451865E+07   1.26903677E+08   2.52094637E+06   0.24557628      
  79               6.30957344E+00   2.09702994E+01   2223.69309035    2.67916325E-04   6.83054921E+19   8.24215350E+07   1.35256921E+08   2.46076027E+06   0.2431011       
  80               7.94328235E+00   2.27797206E+01   2268.60718157    2.85230584E-04   7.27302248E+19   7.42774417E+07   1.43427183E+08   2.39530518E+06   0.24078975      
  81               1.00000000E+01   2.48617020E+01   2316.73755365    3.04776666E-04   7.77284231E+19   6.62711706E+07   1.51456067E+08   2.32469136E+06   0.23769681      
  82               1.25892541E+01   2.72482642E+01   2367.28843235    3.26860980E-04   8.33707109E+19   5.86787684E+07   1.59067182E+08   2.24907504E+06   0.23487651      
  83               1.58489319E+01   2.99761886E+01   2420.81075842    3.51537706E-04   8.96894604E+19   5.16434026E+07   1.66117912E+08   2.16859882E+06   0.23125404      
  84               1.99526231E+01   3.30878999E+01   2476.02041669    3.79252708E-04   9.67923026E+19   4.53657913E+07   1.72407757E+08   2.08337672E+06   0.228009        
  85               2.51188643E+01   3.66303501E+01   2534.04100249    4.10078163E-04   1.04701589E+20   3.96532843E+07   1.78130044E+08   1.99354908E+06   0.22394618      
  86               3.16227766E+01   4.06590794E+01   2592.96118526    4.44628496E-04   1.13576208E+20   3.45772828E+07   1.83213741E+08   1.89919939E+06   0.22031228      
  87               3.98107171E+01   4.52382374E+01   2654.66449585    4.82932350E-04   1.23430325E+20   3.00308968E+07   1.87766183E+08   1.80037843E+06   0.21594355      
  88               5.01187234E+01   5.04426699E+01   2716.55301404    5.25886157E-04   1.34494870E+20   2.59503076E+07   1.91851447E+08   1.69710468E+06   0.21196685      
  89               6.30957344E+01   5.63580714E+01   2781.26907689    5.73447599E-04   1.46770561E+20   2.23446388E+07   1.95460750E+08   1.58938423E+06   0.20746164      
  90               7.94328235E+01   6.30826691E+01   2845.54962300    6.26843275E-04   1.60571970E+20   1.91687728E+07   1.98639435E+08   1.47722197E+06   0.20346198      
  91               1.00000000E+02   7.07249595E+01   2912.78634215    6.85882636E-04   1.75869252E+20   1.64817354E+07   2.01328715E+08   1.36066798E+06   0.19920089      
  92               1.25892541E+02   7.94058177E+01   2979.03481841    7.52143689E-04   1.93064570E+20   1.41067706E+07   2.03705470E+08   1.23980445E+06   0.19522706      
  93               1.58489319E+02   8.92591262E+01   3048.19627896    8.25277573E-04   2.12097496E+20   1.20807036E+07   2.05732855E+08   1.11473800E+06   0.19124642      
  94               1.99526231E+02   1.00417089E+02   3115.83795939    9.07117595E-04   2.33431038E+20   1.02411566E+07   2.07573176E+08   9.85775975E+05   0.18731743      
  95               2.51188643E+02   1.13017048E+02   3185.97216561    9.97010500E-04   2.56937693E+20   8.68772530E+06   2.09126799E+08   8.53281630E+05   0.18395645      
  96               3.16227766E+02   1.27206945E+02   3254.38070775    1.09695442E-03   2.83118538E+20   7.28990566E+06   2.10524107E+08   7.17592706E+05   0.1802025       
  97               3.98107171E+02   1.43150137E+02   3324.60376319    1.20636778E-03   3.11872955E+20   6.16900186E+06   2.11643763E+08   5.78996550E+05   0.1775726       
  98               5.01187234E+02   1.61017603E+02   3393.48246772    1.32715080E-03   3.43679467E+20   5.17198727E+06   2.12638928E+08   4.37784259E+05   0.17416057      
  99               6.30957344E+02   1.81008387E+02   3463.28704106    1.45920580E-03   3.78561156E+20   4.36811025E+06   2.13440618E+08   2.94129068E+05   0.17222837      
  100              7.94328235E+02   2.03333829E+02   3532.63670141    1.60400644E-03   4.16904422E+20   3.64596516E+06   2.14160782E+08   1.48197784E+05   0.16901975      
  101              1.00000000E+03   2.28252051E+02   3601.73558461    1.76263964E-03   4.59016928E+20   3.31716429E+06   2.14488368E+08   0.00000000E+00   0.16756666      
