# ATMO pressure-temperature profile
# Effective temperature = 1300.0K
# log(g) = 5.0cm/s^2
# M/H = 0.0
# Optical depth grid in band 17 (1.20-1.33microns)
# All parameters in cgs units
#
# Model Level      Optical Depth    Pressure         Temperature      Density          Number Density   Rad Flux         Conv Flux        Radial Extension Adiabatic Gradient
#                                   [Ba]             [K]              [g/cm^3]         [/cm^3]          [ergs/s/cm^2/sr] [ergs/s/cm^2/sr] [cm]             [K/Ba]          
  1                1.00000000E-07   1.00000000E-05   368.03455278     7.69941909E-10   1.96805506E+14   1.61937806E+08   0.00000000E+00   6.36104259E+06   0.29823756      
  2                1.25892541E-07   1.71431995E-05   394.53782013     1.23125992E-09   3.14723431E+14   1.61937806E+08   0.00000000E+00   6.28767759E+06   0.2976146       
  3                1.58489319E-07   2.58240570E-05   408.45518670     1.79154074E-09   4.57937169E+14   1.61937806E+08   0.00000000E+00   6.22922895E+06   0.29756128      
  4                1.99526231E-07   3.65761345E-05   413.42776304     2.50694473E-09   6.40802221E+14   1.61937806E+08   0.00000000E+00   6.17849406E+06   0.29748139      
  5                2.51188643E-07   4.99333404E-05   424.09111192     3.33640475E-09   8.52819828E+14   1.61937806E+08   0.00000000E+00   6.13230873E+06   0.29747063      
  6                3.16227766E-07   6.65302958E-05   428.82892613     4.39627529E-09   1.12372805E+15   1.61937806E+08   0.00000000E+00   6.08897292E+06   0.29743622      
  7                3.98107171E-07   8.71738937E-05   438.62958415     5.63168066E-09   1.43950893E+15   1.61937806E+08   0.00000000E+00   6.04748478E+06   0.29743247      
  8                5.01187234E-07   1.12871668E-04   442.76116523     7.22378696E-09   1.84646578E+15   1.61937806E+08   0.00000000E+00   6.00719508E+06   0.29742659      
  9                6.30957344E-07   1.44875940E-04   452.20651323     9.07839255E-09   2.32051987E+15   1.61937806E+08   0.00000000E+00   5.96767471E+06   0.29742793      
  10               7.94328235E-07   1.84731095E-04   456.46170774     1.14679336E-08   2.93130828E+15   1.61937806E+08   0.00000000E+00   5.92861424E+06   0.29744369      
  11               1.00000000E-06   2.34371404E-04   465.83382720     1.42568347E-08   3.64417681E+15   1.61937806E+08   0.00000000E+00   5.88979203E+06   0.29745067      
  12               1.25892541E-06   2.96186493E-04   470.30945929     1.78455962E-08   4.56149681E+15   1.61937806E+08   0.00000000E+00   5.85103795E+06   0.29928766      
  13               1.58489319E-06   3.73160127E-04   479.78820492     2.20391677E-08   5.63341188E+15   1.61937806E+08   0.00000000E+00   5.81222480E+06   0.29927335      
  14               1.99526231E-06   4.68979075E-04   484.57446800     2.74247372E-08   7.01001227E+15   1.61937806E+08   0.00000000E+00   5.77325012E+06   0.29921693      
  15               2.51188643E-06   5.88232244E-04   494.33710990     3.37190358E-08   8.61889227E+15   1.61937806E+08   0.00000000E+00   5.73403432E+06   0.29919972      
  16               3.16227766E-06   7.36588961E-04   499.49799850     4.17869814E-08   1.06811323E+16   1.61937806E+08   0.00000000E+00   5.69451139E+06   0.29914159      
  17               3.98107171E-06   9.21095443E-04   509.62208505     5.12160333E-08   1.30912836E+16   1.61937806E+08   0.00000000E+00   5.65462836E+06   0.29912325      
  18               5.01187234E-06   1.15049460E-03   515.08603503     6.32928086E-08   1.61782167E+16   1.61937806E+08   0.00000000E+00   5.61433702E+06   0.29906217      
  19               6.30957344E-06   1.43573414E-03   525.39977000     7.74343589E-08   1.97929254E+16   1.61937806E+08   0.00000000E+00   5.57359283E+06   0.29904029      
  20               7.94328235E-06   1.79041263E-03   530.95877522     9.55524668E-08   2.44240774E+16   1.61937806E+08   0.00000000E+00   5.53235963E+06   0.29897504      
  21               1.00000000E-05   2.23148784E-03   541.31560919     1.16813638E-07   2.98586257E+16   1.61937806E+08   0.00000000E+00   5.49061074E+06   0.29895069      
  22               1.25892541E-05   2.78000290E-03   546.86294883     1.44051021E-07   3.68207464E+16   1.61937806E+08   0.00000000E+00   5.44832601E+06   0.29887989      
  23               1.58489319E-05   3.46213839E-03   557.28356328     1.76042608E-07   4.49980848E+16   1.61937806E+08   0.00000000E+00   5.40549053E+06   0.29885211      
  24               1.99526231E-05   4.31034432E-03   562.90423794     2.16983678E-07   5.54629909E+16   1.61937806E+08   0.00000000E+00   5.36209162E+06   0.29877531      
  25               2.51188643E-05   5.36491411E-03   573.46951461     2.65095324E-07   6.77607614E+16   1.61937806E+08   0.00000000E+00   5.31812118E+06   0.29874587      
  26               3.16227766E-05   6.67577492E-03   579.15440484     3.26630678E-07   8.34897502E+16   1.61937806E+08   0.00000000E+00   5.27357330E+06   0.29866226      
  27               3.98107171E-05   8.30483973E-03   589.97034575     3.98887778E-07   1.01959316E+17   1.61937806E+08   0.00000000E+00   5.22844131E+06   0.29863021      
  28               5.01187234E-05   1.03287468E-02   595.75738962     4.91278640E-07   1.25575244E+17   1.61937806E+08   0.00000000E+00   5.18272183E+06   0.2985392       
  29               6.30957344E-05   1.28423352E-02   606.78808539     5.99731216E-07   1.53296697E+17   1.61937806E+08   0.00000000E+00   5.13641427E+06   0.29850605      
  30               7.94328235E-05   1.59626328E-02   612.88962668     7.38026538E-07   1.88646214E+17   1.61937806E+08   0.00000000E+00   5.08951331E+06   0.29840532      
  31               1.00000000E-04   1.98338282E-02   624.43800115     9.00050734E-07   2.30061030E+17   1.61937806E+08   0.00000000E+00   5.04201528E+06   0.29836695      
  32               1.25892541E-04   2.46344146E-02   630.95589339     1.10635129E-06   2.82793280E+17   1.61937806E+08   0.00000000E+00   4.99390762E+06   0.29825407      
  33               1.58489319E-04   3.05846891E-02   643.29203418     1.34724228E-06   3.44367166E+17   1.61937806E+08   0.00000000E+00   4.94516962E+06   0.29823055      
  34               1.99526231E-04   3.79548722E-02   650.68748239     1.65289410E-06   4.22494365E+17   1.61937806E+08   0.00000000E+00   4.89578032E+06   0.29812042      
  35               2.51188643E-04   4.70741906E-02   664.24957352     2.00817489E-06   5.13307272E+17   1.61937806E+08   0.00000000E+00   4.84572628E+06   0.29803433      
  36               3.16227766E-04   5.83425617E-02   672.98654720     2.45656968E-06   6.27920917E+17   1.61937806E+08   0.00000000E+00   4.79499267E+06   0.29786747      
  37               3.98107171E-04   7.22461816E-02   688.38228923     2.97396232E-06   7.60170566E+17   1.61937806E+08   0.00000000E+00   4.74355329E+06   0.29779087      
  38               5.01187234E-04   8.93672085E-02   699.03147696     3.62269448E-06   9.25992139E+17   1.61937806E+08   0.00000000E+00   4.69139226E+06   0.29759382      
  39               6.30957344E-04   1.10402218E-01   716.57743857     4.36582000E-06   1.11593914E+18   1.61937807E+08   0.00000000E+00   4.63849976E+06   0.29749834      
  40               7.94328235E-04   1.36185907E-01   729.58385495     5.28941996E-06   1.35201899E+18   1.61937807E+08   0.00000000E+00   4.58484502E+06   0.29725269      
  41               1.00000000E-03   1.67703815E-01   749.79163923     6.33805618E-06   1.62004914E+18   1.61937807E+08   0.00000000E+00   4.53041034E+06   0.29704875      
  42               1.25892541E-03   2.06099749E-01   765.58695185     7.62845482E-06   1.94988401E+18   1.61937807E+08   0.00000000E+00   4.47519129E+06   0.29667144      
  43               1.58489319E-03   2.52782775E-01   788.95360110     9.07929029E-06   2.32071524E+18   1.61937808E+08   0.00000000E+00   4.41909746E+06   0.29642457      
  44               1.99526231E-03   3.09423322E-01   808.38234955     1.08465614E-05   2.77243939E+18   1.61937808E+08   0.00000000E+00   4.36202121E+06   0.29600347      
  45               2.51188643E-03   3.77941773E-01   835.70953890     1.28151986E-05   3.27563405E+18   1.61937809E+08   0.00000000E+00   4.30390479E+06   0.29568994      
  46               3.16227766E-03   4.60480917E-01   859.59630892     1.51800406E-05   3.88010015E+18   1.61937809E+08   0.00000000E+00   4.24472671E+06   0.2951388       
  47               3.98107171E-03   5.59532734E-01   891.75310282     1.77802179E-05   4.54471558E+18   1.61937811E+08   0.00000000E+00   4.18443501E+06   0.29463562      
  48               5.01187234E-03   6.77738690E-01   920.83745502     2.08562743E-05   5.33095655E+18   1.61937811E+08   0.00000000E+00   4.12305137E+06   0.29382777      
  49               6.30957344E-03   8.17985886E-01   958.27499996     2.41890263E-05   6.18274723E+18   1.61937814E+08   0.00000000E+00   4.06061074E+06   0.29313084      
  50               7.94328235E-03   9.83770508E-01   992.93022118     2.80766010E-05   7.17630534E+18   1.61937813E+08   0.00000000E+00   3.99699519E+06   0.2921259       
  51               1.00000000E-02   1.17926182E+00   1035.69309925    3.22659824E-05   8.24717091E+18   1.61937818E+08   0.00000000E+00   3.93204464E+06   0.29124112      
  52               1.25892541E-02   1.40878012E+00   1075.45253640    3.71203923E-05   9.48806837E+18   1.61937818E+08   0.00000000E+00   3.86572553E+06   0.2900167       
  53               1.58489319E-02   1.67688912E+00   1122.64832763    4.23265087E-05   1.08189834E+19   1.61937819E+08   0.00000000E+00   3.79808624E+06   0.28890122      
  54               1.99526231E-02   1.98890140E+00   1166.23879484    4.83245680E-05   1.23524075E+19   1.61937826E+08   0.00000000E+00   3.72909695E+06   0.28734131      
  55               2.51188643E-02   2.35242784E+00   1216.68372558    5.47858391E-05   1.40043982E+19   1.61937824E+08   0.00000000E+00   3.65844599E+06   0.28582566      
  56               3.16227766E-02   2.77553586E+00   1263.11695765    6.22618977E-05   1.59158236E+19   1.61937833E+08   0.00000000E+00   3.58600137E+06   0.28383604      
  57               3.98107171E-02   3.26685823E+00   1315.92078800    7.03410188E-05   1.79815191E+19   1.61937832E+08   0.00000000E+00   3.51175910E+06   0.28200557      
  58               5.01187234E-02   3.83595940E+00   1364.30829671    7.96639040E-05   2.03651363E+19   1.61937842E+08   0.00000000E+00   3.43573443E+06   0.279853        
  59               6.30957344E-02   4.49709472E+00   1419.03212838    8.97905514E-05   2.29543842E+19   1.61937846E+08   0.00000000E+00   3.35756362E+06   0.27801363      
  60               7.94328235E-02   5.27140745E+00   1469.52975379    1.01631092E-04   2.59820875E+19   1.61937849E+08   0.00000000E+00   3.27650699E+06   0.27579871      
  61               1.00000000E-01   6.18535568E+00   1526.69413418    1.14782744E-04   2.93452951E+19   1.61937862E+08   0.00000000E+00   3.19188696E+06   0.27376548      
  62               1.25892541E-01   7.25557972E+00   1579.62829934    1.30137407E-04   3.32692532E+19   1.61937869E+08   0.00000000E+00   3.10431929E+06   0.27139037      
  63               1.58489319E-01   8.47848439E+00   1638.45445420    1.46659352E-04   3.74808724E+19   1.61937847E+08   0.00000000E+00   3.01579525E+06   0.26937236      
  64               1.99526231E-01   9.81896844E+00   1692.34018418    1.64455644E-04   4.20246434E+19   1.61950440E+08   0.00000000E+00   2.92947979E+06   0.26713264      
  65               2.51188643E-01   1.11835413E+01   1751.59208195    1.81039257E-04   4.62457909E+19   1.60416916E+08   1.51799956E+06   2.85039349E+06   0.26517232      
  66               3.16227766E-01   1.24202793E+01   1801.16200331    1.95705093E-04   4.99464269E+19   1.54006006E+08   7.93638362E+06   2.78468470E+06   0.2629187       
  67               3.98107171E-01   1.34353420E+01   1838.14555724    2.07545612E-04   5.29413080E+19   1.46633476E+08   1.53111412E+07   2.73431825E+06   0.261028        
  68               5.01187234E-01   1.45951237E+01   1878.64680953    2.20594194E-04   5.62714986E+19   1.38242970E+08   2.36924352E+07   2.68011530E+06   0.25940236      
  69               6.30957344E-01   1.55845263E+01   1910.28240869    2.31713205E-04   5.90910721E+19   1.29313682E+08   3.25952235E+07   2.63635107E+06   0.2579173       
  70               7.94328235E-01   1.63757347E+01   1935.26159527    2.40329779E-04   6.12896238E+19   1.21176288E+08   4.07088564E+07   2.60282274E+06   0.25667656      
  71               1.00000000E+00   1.73115024E+01   1962.51540650    2.50529181E-04   6.38921531E+19   1.12941362E+08   4.89401940E+07   2.56468673E+06   0.25545072      
  72               1.25892541E+00   1.84093907E+01   1994.00858342    2.62192398E-04   6.68710635E+19   1.03028109E+08   5.88590784E+07   2.52184970E+06   0.25463373      
  73               1.58489319E+00   1.92540155E+01   2016.38891205    2.71408901E-04   6.91628462E+19   9.31216235E+07   6.87906999E+07   2.49018379E+06   0.25392531      
  74               1.99526231E+00   1.98897541E+01   2033.55919083    2.77997411E-04   7.08432434E+19   8.52823676E+07   7.66477206E+07   2.46703938E+06   0.25322023      
  75               2.51188643E+00   2.06555836E+01   2052.58914957    2.86018475E-04   7.28888806E+19   7.87543243E+07   8.31749729E+07   2.43988031E+06   0.25231211      
  76               3.16227766E+00   2.15717247E+01   2075.64317014    2.95377161E-04   7.52762568E+19   7.29397256E+07   8.89884428E+07   2.40836097E+06   0.25136148      
  77               3.98107171E+00   2.26650924E+01   2101.05540657    3.06582932E-04   7.81350379E+19   6.75651233E+07   9.43613658E+07   2.37202774E+06   0.25014043      
  78               5.01187234E+00   2.39616639E+01   2130.92310661    3.19561931E-04   8.14469888E+19   6.24971728E+07   9.94273169E+07   2.33060437E+06   0.2488307       
  79               6.30957344E+00   2.54895824E+01   2163.36545565    3.34820264E-04   8.53411849E+19   5.75379126E+07   1.04384248E+08   2.28389358E+06   0.24726098      
  80               7.94328235E+00   2.72794421E+01   2200.36095151    3.52277788E-04   8.97981510E+19   5.27576886E+07   1.09161810E+08   2.23177756E+06   0.24553542      
  81               1.00000000E+01   2.93645876E+01   2239.86383430    3.72480117E-04   9.49572498E+19   4.80500942E+07   1.13866422E+08   2.17421461E+06   0.24343222      
  82               1.25892541E+01   3.17817685E+01   2283.72978079    3.95346449E-04   1.00799687E+20   4.35570770E+07   1.18356195E+08   2.11122485E+06   0.2411486       
  83               1.58489319E+01   3.45707824E+01   2329.78796137    4.21516030E-04   1.07477771E+20   3.91785955E+07   1.22731244E+08   2.04290145E+06   0.23857637      
  84               1.99526231E+01   3.77770482E+01   2379.85644126    4.50830789E-04   1.14974916E+20   3.51369582E+07   1.26769549E+08   1.96935061E+06   0.23579632      
  85               2.51188643E+01   4.14521067E+01   2431.68244462    4.84032326E-04   1.23471177E+20   3.12954204E+07   1.30607957E+08   1.89067817E+06   0.23280022      
  86               3.16227766E+01   4.56535389E+01   2487.13080161    5.21055145E-04   1.32954078E+20   2.77369100E+07   1.34163554E+08   1.80701753E+06   0.22963047      
  87               3.98107171E+01   5.04469099E+01   2543.85544447    5.62730953E-04   1.43637547E+20   2.43412453E+07   1.37556509E+08   1.71849535E+06   0.22613502      
  88               5.01187234E+01   5.59109939E+01   2603.78115167    6.09072738E-04   1.55531576E+20   2.13137864E+07   1.40581488E+08   1.62516210E+06   0.22268468      
  89               6.30957344E+01   6.21376917E+01   2664.71492030    6.61103683E-04   1.68900215E+20   1.85270055E+07   1.43366011E+08   1.52703412E+06   0.21880803      
  90               7.94328235E+01   6.92331472E+01   2728.43930986    7.18973063E-04   1.83791582E+20   1.61321459E+07   1.45758900E+08   1.42411539E+06   0.21505723      
  91               1.00000000E+02   7.73183979E+01   2792.97050279    7.83865772E-04   2.00512909E+20   1.39774052E+07   1.47912142E+08   1.31641382E+06   0.21107393      
  92               1.25892541E+02   8.65326002E+01   2859.96535918    8.56066929E-04   2.19151688E+20   1.21096681E+07   1.49779277E+08   1.20393011E+06   0.20736695      
  93               1.58489319E+02   9.70334792E+01   2927.66496779    9.36939659E-04   2.40063463E+20   1.04235302E+07   1.51466611E+08   1.08667737E+06   0.20354651      
  94               1.99526231E+02   1.09000253E+02   2997.54986658    1.02692817E-03   2.63382508E+20   8.94976819E+06   1.52945259E+08   9.64677577E+05   0.19987761      
  95               2.51188643E+02   1.22630652E+02   3067.92640915    1.12760541E-03   2.89520912E+20   7.63258465E+06   1.54273727E+08   8.38009214E+05   0.19616839      
  96               3.16227766E+02   1.38116025E+02   3140.04775668    1.23930344E-03   3.18591113E+20   6.50386639E+06   1.55424089E+08   7.07011651E+05   0.19255714      
  97               3.98107171E+02   1.55654099E+02   3212.08392066    1.36354933E-03   3.50993860E+20   5.52485431E+06   1.56440294E+08   5.72094644E+05   0.18912564      
  98               5.01187234E+02   1.75458750E+02   3285.43332115    1.50055329E-03   3.86819370E+20   4.68439768E+06   1.57341657E+08   4.33637410E+05   0.18583706      
  99               6.30957344E+02   1.97763984E+02   3358.24063135    1.65213210E-03   4.26541440E+20   3.95159033E+06   1.58169487E+08   2.91970594E+05   0.18287564      
  100              7.94328235E+02   2.22828600E+02   3432.21686891    1.81841437E-03   4.70242686E+20   3.32631251E+06   1.58939371E+08   1.47359328E+05   0.18015703      
  101              1.00000000E+03   2.50941697E+02   3505.45952460    2.00165129E-03   5.18505913E+20   3.01408869E+06   1.59363938E+08   0.00000000E+00   0.17770865      
