# ATMO pressure-temperature profile
# Effective temperature = 1200.0K
# log(g) = 3.5cm/s^2
# M/H = 0.0
# Optical depth grid in band 17 (1.20-1.33microns)
# All parameters in cgs units
#
# Model Level      Optical Depth    Pressure         Temperature      Density          Number Density   Rad Flux         Conv Flux        Radial Extension Adiabatic Gradient
#                                   [Ba]             [K]              [g/cm^3]         [/cm^3]          [ergs/s/cm^2/sr] [ergs/s/cm^2/sr] [cm]             [K/Ba]          
  1                3.00000000E-06   1.00000000E-05   276.93732114     1.02361776E-09   2.61543754E+14   1.17570814E+08   0.00000000E+00   1.64577826E+08   0.29785581      
  2                3.65048058E-06   1.86083377E-05   327.83855022     1.60901708E-09   4.11124537E+14   1.17570814E+08   0.00000000E+00   1.62456683E+08   0.29746153      
  3                4.44200282E-06   2.82587763E-05   346.06431733     2.31477693E-09   5.91455901E+14   1.17570814E+08   0.00000000E+00   1.60875390E+08   0.29742835      
  4                5.40514834E-06   3.96019650E-05   360.84620061     3.11105042E-09   7.94914536E+14   1.17570814E+08   0.00000000E+00   1.59538712E+08   0.29744657      
  5                6.57712968E-06   5.30546742E-05   371.90350469     4.04393571E-09   1.03328285E+15   1.17570814E+08   0.00000000E+00   1.58339339E+08   0.29749706      
  6                8.00322805E-06   6.90821887E-05   382.98895061     5.11360074E-09   1.30648878E+15   1.17570814E+08   0.00000000E+00   1.57224758E+08   0.29753005      
  7                9.73854285E-06   8.82287150E-05   391.82037003     6.38366203E-09   1.63098055E+15   1.17570814E+08   0.00000000E+00   1.56165037E+08   0.29759392      
  8                1.18501205E-05   1.11141144E-04   401.41769704     7.84919777E-09   2.00541466E+15   1.17570814E+08   0.00000000E+00   1.55141453E+08   0.297627        
  9                1.44195449E-05   1.38590440E-04   409.34658068     9.59818375E-09   2.45226809E+15   1.17570814E+08   0.00000000E+00   1.54141397E+08   0.29768885      
  10               1.75460896E-05   1.71496229E-04   418.51886195     1.16168038E-08   2.96801013E+15   1.17570814E+08   0.00000000E+00   1.53155948E+08   0.29771763      
  11               2.13505531E-05   2.10948962E-04   426.58372996     1.40191210E-08   3.58178032E+15   1.17570814E+08   0.00000000E+00   1.52178320E+08   0.29777119      
  12               2.59799264E-05   2.58241174E-04   436.40264046     1.67759821E-08   4.28611636E+15   1.17570814E+08   0.00000000E+00   1.51203138E+08   0.29779395      
  13               3.16130723E-05   3.14968371E-04   444.04454500     2.01089893E-08   5.13767047E+15   1.17570814E+08   0.00000000E+00   1.50226458E+08   0.29783571      
  14               3.84676354E-05   3.83128979E-04   452.43490896     2.40070464E-08   6.13358990E+15   1.17570814E+08   0.00000000E+00   1.49245459E+08   0.29878741      
  15               4.68084520E-05   4.65054376E-04   459.88053539     2.86687360E-08   7.32461069E+15   1.17570814E+08   0.00000000E+00   1.48257941E+08   0.29871694      
  16               5.69577817E-05   5.63536731E-04   468.29958978     3.41152290E-08   8.71614187E+15   1.17570814E+08   0.00000000E+00   1.47262123E+08   0.29868693      
  17               6.93077586E-05   6.81932761E-04   475.73128194     4.06377534E-08   1.03825895E+16   1.17570814E+08   0.00000000E+00   1.46256586E+08   0.29861072      
  18               8.43355422E-05   8.24286499E-04   484.08478721     4.82732569E-08   1.23333936E+16   1.17570814E+08   0.00000000E+00   1.45240218E+08   0.29857739      
  19               1.02621753E-04   9.95463309E-04   491.40723156     5.74293063E-08   1.46726836E+16   1.17570814E+08   0.00000000E+00   1.44212143E+08   0.29849296      
  20               1.24872905E-04   1.20131885E-03   499.64886069     6.81621458E-08   1.74148297E+16   1.17570814E+08   0.00000000E+00   1.43171686E+08   0.29845656      
  21               1.51948705E-04   1.44887934E-03   506.91815624     8.10297028E-08   2.07023770E+16   1.17570814E+08   0.00000000E+00   1.42118300E+08   0.29836361      
  22               1.84895266E-04   1.74656425E-03   515.35990873     9.60779695E-08   2.45470764E+16   1.17570814E+08   0.00000000E+00   1.41051402E+08   0.2983229       
  23               2.24985526E-04   2.10452555E-03   522.91467326     1.14096748E-07   2.91507152E+16   1.17570814E+08   0.00000000E+00   1.39970248E+08   0.298219        
  24               2.73768430E-04   2.53492654E-03   531.76844363     1.35142739E-07   3.45277801E+16   1.17570814E+08   0.00000000E+00   1.38874173E+08   0.29817382      
  25               3.33128779E-04   3.05232826E-03   539.76434725     1.60316032E-07   4.09593336E+16   1.17570814E+08   0.00000000E+00   1.37762587E+08   0.29805892      
  26               4.05360046E-04   3.67418579E-03   549.10006710     1.89696596E-07   4.84658078E+16   1.17570814E+08   0.00000000E+00   1.36634942E+08   0.29800652      
  27               4.93252992E-04   4.42143869E-03   557.44170101     2.24860978E-07   5.74499947E+16   1.17570814E+08   0.00000000E+00   1.35490797E+08   0.29787544      
  28               6.00203489E-04   5.31914442E-03   567.14526933     2.65887194E-07   6.79318290E+16   1.17570814E+08   0.00000000E+00   1.34329808E+08   0.29781299      
  29               7.30343727E-04   6.39717046E-03   575.95084113     3.14885361E-07   8.04504256E+16   1.17570814E+08   0.00000000E+00   1.33151648E+08   0.29766348      
  30               8.88701864E-04   7.69094636E-03   586.47597081     3.71774447E-07   9.49850814E+16   1.17570814E+08   0.00000000E+00   1.31955891E+08   0.29758693      
  31               1.08139630E-03   9.24243554E-03   596.19830108     4.39486648E-07   1.12284946E+17   1.17570814E+08   0.00000000E+00   1.30742121E+08   0.29741189      
  32               1.31587206E-03   1.11013081E-02   607.72187179     5.17868263E-07   1.32310749E+17   1.17570814E+08   0.00000000E+00   1.29509961E+08   0.29731543      
  33               1.60118847E-03   1.33260653E-02   618.58562058     6.10734052E-07   1.56037130E+17   1.17570814E+08   0.00000000E+00   1.28258991E+08   0.29710908      
  34               1.94836913E-03   1.59861634E-02   631.43877788     7.17733261E-07   1.83374456E+17   1.17570814E+08   0.00000000E+00   1.26988446E+08   0.29698599      
  35               2.37082789E-03   1.91650970E-02   643.55955734     8.44252531E-07   2.15698993E+17   1.17570814E+08   0.00000000E+00   1.25697037E+08   0.2967372       
  36               2.88488706E-03   2.29609516E-02   657.89713319     9.89423394E-07   2.52788743E+17   1.17570814E+08   0.00000000E+00   1.24383682E+08   0.2965756       
  37               3.51040806E-03   2.74879273E-02   671.84399834     1.15990897E-06   2.96346219E+17   1.17570814E+08   0.00000000E+00   1.23047378E+08   0.29627137      
  38               4.27155881E-03   3.28792070E-02   688.27779842     1.35428083E-06   3.46005828E+17   1.17570814E+08   0.00000000E+00   1.21687106E+08   0.29605728      
  39               5.19774750E-03   3.92883800E-02   704.34386325     1.58136068E-06   4.04022197E+17   1.17570814E+08   0.00000000E+00   1.20302162E+08   0.29559815      
  40               6.32475876E-03   4.68899580E-02   723.26422211     1.83796055E-06   4.69579037E+17   1.17570814E+08   0.00000000E+00   1.18892158E+08   0.29535176      
  41               7.69613634E-03   5.58790624E-02   742.31680159     2.13410512E-06   5.45237427E+17   1.17570814E+08   0.00000000E+00   1.17456864E+08   0.29487852      
  42               9.36486541E-03   6.64737866E-02   764.60667539     2.46472346E-06   6.29706496E+17   1.17570814E+08   0.00000000E+00   1.15996040E+08   0.29452636      
  43               1.13954198E-02   7.89335020E-02   787.13494697     2.84294093E-06   7.26336746E+17   1.17570814E+08   0.00000000E+00   1.14507570E+08   0.29401801      
  44               1.38662528E-02   9.35590564E-02   813.23110322     3.26157321E-06   8.33292921E+17   1.17570814E+08   0.00000000E+00   1.12988720E+08   0.29357898      
  45               1.68728289E-02   1.10673842E-01   840.04743138     3.73504531E-06   9.54260656E+17   1.17570814E+08   0.00000000E+00   1.11438084E+08   0.29280544      
  46               2.05313114E-02   1.30621788E-01   870.80543965     4.25254052E-06   1.08647648E+18   1.17570814E+08   0.00000000E+00   1.09855283E+08   0.29209332      
  47               2.49830512E-02   1.53745793E-01   902.40908030     4.83007783E-06   1.23402974E+18   1.17570814E+08   0.00000000E+00   1.08241808E+08   0.29120554      
  48               3.04000477E-02   1.80374316E-01   938.08070520     5.45120925E-06   1.39270884E+18   1.17570814E+08   0.00000000E+00   1.06600748E+08   0.29040299      
  49               3.69915946E-02   2.10934911E-01   974.62083853     6.13563871E-06   1.56761212E+18   1.17570814E+08   0.00000000E+00   1.04929712E+08   0.28920635      
  50               4.50123658E-02   2.45933228E-01   1015.18301958    6.86759194E-06   1.75468315E+18   1.17570814E+08   0.00000000E+00   1.03224748E+08   0.28814889      
  51               5.47722558E-02   2.85838137E-01   1056.46412786    7.66974403E-06   1.95970751E+18   1.17570814E+08   0.00000000E+00   1.01486011E+08   0.28687819      
  52               6.66483519E-02   3.31047103E-01   1102.06378484    8.51496589E-06   2.17574954E+18   1.17481337E+08   8.94462473E+04   9.97169489E+07   0.28570932      
  53               8.10995048E-02   3.81907840E-01   1147.64709169    9.43275069E-06   2.41032749E+18   1.17126881E+08   4.43878069E+05   9.79223298E+07   0.28412105      
  54               9.86840557E-02   4.39175883E-01   1194.21695421    1.04240156E-05   2.66367412E+18   1.16618783E+08   9.51954233E+05   9.60960141E+07   0.28263253      
  55               1.20081410E-01   5.03745453E-01   1241.07242310    1.15050440E-05   2.93994938E+18   1.15966009E+08   1.60470628E+06   9.42314969E+07   0.28076863      
  56               1.46118284E-01   5.76474508E-01   1289.00778756    1.26763784E-05   3.23929429E+18   1.15143624E+08   2.42706905E+06   9.23270610E+07   0.27918193      
  57               1.77800653E-01   6.58185102E-01   1337.28077820    1.39506336E-05   3.56493229E+18   1.14113704E+08   3.45696218E+06   9.03840109E+07   0.27759389      
  58               2.16352610E-01   7.49685081E-01   1386.53573952    1.53255422E-05   3.91627914E+18   1.12867500E+08   4.70312972E+06   8.84051441E+07   0.27606298      
  59               2.63263667E-01   8.52121722E-01   1436.10660702    1.68184851E-05   4.29774650E+18   1.11415445E+08   6.15512012E+06   8.63874496E+07   0.27406156      
  60               3.20346302E-01   9.66681204E-01   1486.59088526    1.84325597E-05   4.70996466E+18   1.09770887E+08   7.79955281E+06   8.43298982E+07   0.27221737      
  61               3.89805984E-01   1.09411002E+00   1537.23878396    2.01812742E-05   5.15519981E+18   1.07795238E+08   9.77500266E+06   8.22404560E+07   0.26999433      
  62               4.74326391E-01   1.23389984E+00   1587.86269745    2.20354739E-05   5.62850170E+18   1.05253163E+08   1.23167863E+07   8.01441975E+07   0.26791641      
  63               5.77173093E-01   1.38150753E+00   1636.37266563    2.39435269E-05   6.11500590E+18   1.01891317E+08   1.56785660E+07   7.81120213E+07   0.26604545      
  64               7.02319722E-01   1.53158361E+00   1681.84972159    2.58389919E-05   6.59598047E+18   9.75371357E+07   2.00334715E+07   7.62039175E+07   0.26446421      
  65               8.54601502E-01   1.67541982E+00   1722.02473925    2.76235228E-05   7.04709459E+18   9.23404668E+07   2.52307758E+07   7.45013222E+07   0.26303137      
  66               1.03990206E+00   1.80425829E+00   1755.92774651    2.91813704E-05   7.44248395E+18   8.68792660E+07   3.06910695E+07   7.30662597E+07   0.26164973      
  67               1.26538076E+00   1.91444324E+00   1783.18402243    3.04899134E-05   7.77628501E+18   8.20278579E+07   3.55414857E+07   7.18981287E+07   0.26037397      
  68               1.53974930E+00   2.03998266E+00   1812.98434868    3.19534558E-05   8.15001225E+18   7.66119358E+07   4.10107739E+07   7.06262567E+07   0.25945191      
  69               1.87360830E+00   2.13722314E+00   1834.85599787    3.31069014E-05   8.43672167E+18   7.15019506E+07   4.63255337E+07   6.96807025E+07   0.25873686      
  70               2.27985690E+00   2.20733509E+00   1850.35578563    3.39059529E-05   8.64049979E+18   6.75118400E+07   5.02871525E+07   6.90189509E+07   0.25789858      
  71               2.77419111E+00   2.28831369E+00   1867.47212593    3.48269482E-05   8.87538642E+18   6.38203032E+07   5.37715739E+07   6.82737476E+07   0.25690988      
  72               3.37571026E+00   2.38215980E+00   1886.95360698    3.58799568E-05   9.14398508E+18   6.00922068E+07   5.74967983E+07   6.74342242E+07   0.25577641      
  73               4.10765492E+00   2.49024722E+00   1908.31378313    3.70868750E-05   9.45188691E+18   5.61544989E+07   6.14336903E+07   6.64972248E+07   0.25450615      
  74               4.99830483E+00   2.61348999E+00   1931.99968022    3.84435189E-05   9.79804951E+18   5.20778724E+07   6.55076114E+07   6.54650811E+07   0.2530805       
  75               6.08207157E+00   2.75348511E+00   1957.47591685    3.99735077E-05   1.01885444E+19   4.82503237E+07   6.93232894E+07   6.43357647E+07   0.25145122      
  76               7.40082804E+00   2.91356961E+00   1985.54162031    4.16968474E-05   1.06285065E+19   4.47498691E+07   7.28131314E+07   6.30957922E+07   0.24957857      
  77               9.00552635E+00   3.09595767E+00   2015.60528173    4.36426122E-05   1.11253931E+19   4.13381927E+07   7.62203982E+07   6.17437504E+07   0.24748734      
  78               1.09581663E+01   3.30300884E+00   2048.16878259    4.58163891E-05   1.16807259E+19   3.80110357E+07   7.95434485E+07   6.02795087E+07   0.24517893      
  79               1.33341911E+01   3.53730195E+00   2082.56415923    4.82499435E-05   1.23026759E+19   3.47802374E+07   8.27705747E+07   5.87037063E+07   0.24261572      
  80               1.62254019E+01   3.80168833E+00   2119.25985755    5.09505652E-05   1.29932602E+19   3.16968446E+07   8.58508051E+07   5.70174735E+07   0.23981289      
  81               1.97435049E+01   4.09931490E+00   2157.53842879    5.39547501E-05   1.37619058E+19   2.87650462E+07   8.87800149E+07   5.52223928E+07   0.23683495      
  82               2.40244270E+01   4.43366200E+00   2197.88124408    5.72714276E-05   1.46111432E+19   2.59947018E+07   9.15483215E+07   5.33203701E+07   0.23348815      
  83               2.92335681E+01   4.80859557E+00   2239.46150718    6.09451217E-05   1.55525100E+19   2.33695062E+07   9.41720467E+07   5.13135049E+07   0.2299115       
  84               3.55721908E+01   5.22840457E+00   2282.81152469    6.49866289E-05   1.65891819E+19   2.08652159E+07   9.66754640E+07   4.92040363E+07   0.22592795      
  85               4.32851972E+01   5.69752776E+00   2326.96517158    6.94549336E-05   1.77346412E+19   1.84908363E+07   9.90494597E+07   4.69958325E+07   0.22187682      
  86               5.26705906E+01   6.22125861E+00   2372.60943357    7.43477182E-05   1.89923122E+19   1.63415644E+07   1.01198806E+08   4.46910681E+07   0.21762419      
  87               6.40909893E+01   6.80578330E+00   2418.75029734    7.97414272E-05   2.03804102E+19   1.43870419E+07   1.03153901E+08   4.22904055E+07   0.21331104      
  88               7.79876373E+01   7.45757513E+00   2466.15421518    8.56484747E-05   2.19029820E+19   1.26200807E+07   1.04921882E+08   3.97963174E+07   0.2089886       
  89               9.48974517E+01   8.18398104E+00   2513.79781051    9.21488156E-05   2.35808856E+19   1.10084722E+07   1.06534907E+08   3.72106079E+07   0.20459751      
  90               1.15473768E+02   8.99315245E+00   2562.47098006    9.92613523E-05   2.54201927E+19   9.59444061E+06   1.07950739E+08   3.45350693E+07   0.20020088      
  91               1.40511583E+02   9.89397058E+00   2611.13898013    1.07079075E-04   2.74452042E+19   8.34090876E+06   1.09206517E+08   3.17719434E+07   0.19584829      
  92               1.70978268E+02   1.08961732E+01   2660.64563010    1.15622335E-04   2.96628451E+19   7.24904429E+06   1.10301087E+08   2.89236225E+07   0.19156725      
  93               2.08050949E+02   1.20103529E+01   2709.93421021    1.24999031E-04   3.21013177E+19   6.28115762E+06   1.11272279E+08   2.59928118E+07   0.18737332      
  94               2.53161982E+02   1.32479955E+01   2759.89198878    1.35230246E-04   3.47683376E+19   5.44191794E+06   1.12115593E+08   2.29824943E+07   0.18335124      
  95               3.08054300E+02   1.46214532E+01   2809.47209218    1.46437563E-04   3.76956865E+19   4.70946652E+06   1.12853209E+08   1.98960425E+07   0.17966363      
  96               3.74848746E+02   1.61440001E+01   2859.69341137    1.58634474E-04   4.08900382E+19   4.08031002E+06   1.13489067E+08   1.67370142E+07   0.17608429      
  97               4.56126023E+02   1.78298405E+01   2909.35550035    1.71966444E-04   4.43891170E+19   3.53189147E+06   1.14046436E+08   1.35092362E+07   0.17279088      
  98               5.55026396E+02   1.96940208E+01   2959.62328737    1.86433870E-04   4.81974205E+19   3.06017795E+06   1.14530462E+08   1.02168410E+07   0.16968742      
  99               6.75371026E+02   2.17524503E+01   3009.20740088    2.02203542E-04   5.23578619E+19   2.64412913E+06   1.14963471E+08   6.86419752E+06   0.16677692      
  100              8.21809604E+02   2.40215331E+01   3059.31773963    2.19261251E-04   5.68724550E+19   2.28274969E+06   1.15348622E+08   3.45632293E+06   0.16400989      
  101              1.00000000E+03   2.65171558E+01   3108.57167400    2.37784711E-04   6.17862582E+19   2.09748667E+06   1.15551828E+08   0.00000000E+00   0.16157764      
