# ATMO pressure-temperature profile
# Effective temperature = 1500.0K
# log(g) = 3.5cm/s^2
# M/H = 0.0
# Optical depth grid in band 17 (1.20-1.33microns)
# All parameters in cgs units
#
# Model Level      Optical Depth    Pressure         Temperature      Density          Number Density   Rad Flux         Conv Flux        Radial Extension Adiabatic Gradient
#                                   [Ba]             [K]              [g/cm^3]         [/cm^3]          [ergs/s/cm^2/sr] [ergs/s/cm^2/sr] [cm]             [K/Ba]          
  1                3.00000000E-06   1.00000000E-05   340.39035238     8.32909193E-10   2.12788718E+14   2.87038466E+08   0.00000000E+00   1.96308765E+08   0.2978706       
  2                3.65048058E-06   1.73210804E-05   403.30364580     1.21763558E-09   3.11077550E+14   2.87038466E+08   0.00000000E+00   1.94009877E+08   0.29797562      
  3                4.44200282E-06   2.55526303E-05   424.36147707     1.70716058E-09   4.36139578E+14   2.87038466E+08   0.00000000E+00   1.92204426E+08   0.29798269      
  4                5.40514834E-06   3.51983141E-05   448.13071891     2.22686852E-09   5.68909240E+14   2.87038466E+08   0.00000000E+00   1.90640021E+08   0.29794955      
  5                6.57712968E-06   4.65959618E-05   460.79476003     2.86693710E-09   7.32430783E+14   2.87038466E+08   0.00000000E+00   1.89213563E+08   0.29785048      
  6                8.00322805E-06   6.01609358E-05   477.05030494     3.57542611E-09   9.13432048E+14   2.87038466E+08   0.00000000E+00   1.87873745E+08   0.29780275      
  7                9.73854285E-06   7.63464065E-05   486.58921688     4.44839666E-09   1.13645426E+15   2.87038466E+08   0.00000000E+00   1.86590352E+08   0.29765006      
  8                1.18501205E-05   9.56959981E-05   500.55576026     5.42024211E-09   1.38473654E+15   2.87038466E+08   0.00000000E+00   1.85344229E+08   0.2975983       
  9                1.44195449E-05   1.18850200E-04   508.72779208     6.62356522E-09   1.69215559E+15   2.87038466E+08   0.00000000E+00   1.84122220E+08   0.29740004      
  10               1.75460896E-05   1.46583201E-04   521.79381726     7.96457542E-09   2.03475025E+15   2.87038466E+08   0.00000000E+00   1.82914768E+08   0.29756613      
  11               2.13505531E-05   1.79823212E-04   529.50048680     9.62845734E-09   2.45983076E+15   2.87038466E+08   0.00000000E+00   1.81714436E+08   0.29736386      
  12               2.59799264E-05   2.19681783E-04   542.45392307     1.14817610E-08   2.93330370E+15   2.87038466E+08   0.00000000E+00   1.80515657E+08   0.29732122      
  13               3.16130723E-05   2.67483804E-04   550.12073791     1.37853173E-08   3.52180506E+15   2.87038466E+08   0.00000000E+00   1.79314130E+08   0.29710353      
  14               3.84676354E-05   3.24821786E-04   563.09453109     1.63546449E-08   4.17820439E+15   2.87038466E+08   0.00000000E+00   1.78106557E+08   0.29706085      
  15               4.68084520E-05   3.93601751E-04   570.64620510     1.95554281E-08   4.99592521E+15   2.87038466E+08   0.00000000E+00   1.76890349E+08   0.29682647      
  16               5.69577817E-05   4.76117028E-04   583.52146042     2.31331147E-08   5.90993522E+15   2.87038466E+08   0.00000000E+00   1.75663521E+08   0.2967822       
  17               6.93077586E-05   5.75109433E-04   590.90176503     2.75938560E-08   7.04954428E+15   2.87038466E+08   0.00000000E+00   1.74424500E+08   0.29652762      
  18               8.43355422E-05   6.93867343E-04   603.74614262     3.25836160E-08   8.32430374E+15   2.87038466E+08   0.00000000E+00   1.73172061E+08   0.29648132      
  19               1.02621753E-04   8.36314133E-04   611.07966278     3.88015230E-08   9.91282515E+15   2.87038466E+08   0.00000000E+00   1.71905201E+08   0.29620695      
  20               1.24872905E-04   1.00714031E-03   624.08945934     4.57530842E-08   1.16887742E+16   2.87038467E+08   0.00000000E+00   1.70623107E+08   0.29615765      
  21               1.51948705E-04   1.21201853E-03   631.43904434     5.44195642E-08   1.39028445E+16   2.87038467E+08   0.00000000E+00   1.69324708E+08   0.29585882      
  22               1.84895266E-04   1.45779451E-03   644.65664023     6.41128919E-08   1.63792379E+16   2.87038467E+08   0.00000000E+00   1.68008910E+08   0.29580546      
  23               2.24985526E-04   1.75266182E-03   652.08401522     7.62030072E-08   1.94679585E+16   2.87038467E+08   0.00000000E+00   1.66674873E+08   0.29548188      
  24               2.73768430E-04   2.10643054E-03   665.55869586     8.97305618E-08   2.29238005E+16   2.87038467E+08   0.00000000E+00   1.65321979E+08   0.29542229      
  25               3.33128779E-04   2.53082263E-03   673.08984905     1.06602882E-07   2.72341928E+16   2.87038468E+08   0.00000000E+00   1.63949794E+08   0.29506912      
  26               4.05360046E-04   3.03979016E-03   687.00921638     1.25447185E-07   3.20484390E+16   2.87038468E+08   0.00000000E+00   1.62557999E+08   0.2950003       
  27               4.93252992E-04   3.64988783E-03   695.01493156     1.48889806E-07   3.80374349E+16   2.87038468E+08   0.00000000E+00   1.61146319E+08   0.29461169      
  28               6.00203489E-04   4.38074523E-03   709.70758997     1.75004700E-07   4.47089414E+16   2.87038469E+08   0.00000000E+00   1.59714541E+08   0.29452785      
  29               7.30343727E-04   5.25556890E-03   718.37965532     2.07418037E-07   5.29897108E+16   2.87038469E+08   0.00000000E+00   1.58262522E+08   0.29410006      
  30               8.88701864E-04   6.30166800E-03   734.12160613     2.43370052E-07   6.21746505E+16   2.87038470E+08   0.00000000E+00   1.56790155E+08   0.29399871      
  31               1.08139630E-03   7.55100857E-03   743.90093226     2.87785432E-07   7.35217270E+16   2.87038470E+08   0.00000000E+00   1.55297316E+08   0.29352355      
  32               1.31587206E-03   9.04101424E-03   761.01321780     3.36823098E-07   8.60499838E+16   2.87038471E+08   0.00000000E+00   1.53783920E+08   0.29339526      
  33               1.60118847E-03   1.08164300E-02   772.09703097     3.97180299E-07   1.01470057E+17   2.87038472E+08   0.00000000E+00   1.52248931E+08   0.29285173      
  34               1.94836913E-03   1.29306417E-02   790.86752704     4.63541299E-07   1.18424667E+17   2.87038472E+08   0.00000000E+00   1.50690777E+08   0.29294553      
  35               2.37082789E-03   1.54457498E-02   803.68569195     5.44869787E-07   1.39203002E+17   2.87038473E+08   0.00000000E+00   1.49108195E+08   0.2924183       
  36               2.88488706E-03   1.84340750E-02   824.40043652     6.33939545E-07   1.61960451E+17   2.87038473E+08   0.00000000E+00   1.47500300E+08   0.29217094      
  37               3.51040806E-03   2.19782874E-02   839.24020352     7.42453346E-07   1.89685183E+17   2.87038473E+08   0.00000000E+00   1.45866642E+08   0.29147843      
  38               4.27155881E-03   2.61722409E-02   862.46835325     8.60307359E-07   2.19797921E+17   2.87038473E+08   0.00000000E+00   1.44207198E+08   0.29116167      
  39               5.19774750E-03   3.11200216E-02   880.07307873     1.00249623E-06   2.56122064E+17   2.87038472E+08   0.00000000E+00   1.42522418E+08   0.29028487      
  40               6.32475876E-03   3.69386557E-02   906.24174483     1.15554693E-06   2.95231615E+17   2.87038471E+08   0.00000000E+00   1.40812851E+08   0.28983797      
  41               7.69613634E-03   4.37546738E-02   926.93196426     1.33819549E-06   3.41902622E+17   2.87038469E+08   0.00000000E+00   1.39079537E+08   0.2888404       
  42               9.36486541E-03   5.17182270E-02   956.70098067     1.53249526E-06   3.91555428E+17   2.87038466E+08   0.00000000E+00   1.37321016E+08   0.2883863       
  43               1.13954198E-02   6.10040425E-02   981.33260455     1.76224639E-06   4.50265038E+17   2.87038462E+08   0.00000000E+00   1.35534169E+08   0.28738277      
  44               1.38662528E-02   7.18013261E-02   1015.34504597    2.00462837E-06   5.12205987E+17   2.87038457E+08   0.00000000E+00   1.33717547E+08   0.28683911      
  45               1.68728289E-02   8.43021519E-02   1044.44997701    2.28802261E-06   5.84624290E+17   2.87038452E+08   0.00000000E+00   1.31871717E+08   0.28567232      
  46               2.05313114E-02   9.87003672E-02   1083.27040721    2.58276692E-06   6.59944979E+17   2.87038445E+08   0.00000000E+00   1.29998725E+08   0.28495161      
  47               2.49830512E-02   1.15175892E-01   1117.49304143    2.92157178E-06   7.46521978E+17   2.87038438E+08   0.00000000E+00   1.28102069E+08   0.28356156      
  48               3.04000477E-02   1.33925213E-01   1161.46597880    3.26853058E-06   8.35183089E+17   2.87038431E+08   0.00000000E+00   1.26183395E+08   0.28258723      
  49               3.69915946E-02   1.55221713E-01   1201.00246549    3.66356182E-06   9.36126228E+17   2.87038424E+08   0.00000000E+00   1.24237228E+08   0.28071298      
  50               4.50123658E-02   1.79326972E-01   1251.21134479    4.06264071E-06   1.03810380E+18   2.86995852E+08   4.81450611E+04   1.22261368E+08   0.2793755       
  51               5.47722558E-02   2.06385098E-01   1300.49966958    4.49842822E-06   1.14946018E+18   2.86224500E+08   8.15009303E+05   1.20259833E+08   0.27776121      
  52               6.66483519E-02   2.36692578E-01   1351.49318799    4.96437160E-06   1.26851795E+18   2.84872204E+08   2.16699721E+06   1.18231740E+08   0.27662767      
  53               8.10995048E-02   2.70551262E-01   1401.64251766    5.47155706E-06   1.39809970E+18   2.82908820E+08   4.13022029E+06   1.16177344E+08   0.27436972      
  54               9.86840557E-02   3.08431475E-01   1453.32947668    6.01613186E-06   1.53716486E+18   2.80294166E+08   6.74418073E+06   1.14089469E+08   0.27225791      
  55               1.20081410E-01   3.50537940E-01   1504.07059730    6.60893526E-06   1.68807854E+18   2.76941716E+08   1.00950204E+07   1.11977664E+08   0.26981991      
  56               1.46118284E-01   3.96712932E-01   1555.48901997    7.23258989E-06   1.84729072E+18   2.72739287E+08   1.42958548E+07   1.09865645E+08   0.26809275      
  57               1.77800653E-01   4.46005468E-01   1604.42540030    7.88570389E-06   2.01347617E+18   2.67589844E+08   1.94452238E+07   1.07801532E+08   0.26623903      
  58               2.16352610E-01   4.94955337E-01   1649.89918197    8.51458701E-06   2.17287350E+18   2.61769811E+08   2.52658990E+07   1.05912349E+08   0.26499455      
  59               2.63263667E-01   5.41796334E-01   1689.34305916    9.10792086E-06   2.32297240E+18   2.55596937E+08   3.14526069E+07   1.04230244E+08   0.26319884      
  60               3.20346302E-01   5.86851327E-01   1725.56407559    9.65761645E-06   2.46333138E+18   2.49173724E+08   3.78835429E+07   1.02711101E+08   0.26231776      
  61               3.89805984E-01   6.24259128E-01   1753.33172796    1.01200192E-05   2.57885337E+18   2.43257827E+08   4.41404708E+07   1.01514348E+08   0.26101593      
  62               4.74326391E-01   6.51907622E-01   1773.59042508    1.04472518E-05   2.66230963E+18   2.38555845E+08   4.89964845E+07   1.00664032E+08   0.26031727      
  63               5.77173093E-01   6.83508592E-01   1795.22717832    1.08213381E-05   2.75772149E+18   2.33322422E+08   5.38052172E+07   9.97241811E+07   0.25873099      
  64               7.02319722E-01   7.19706514E-01   1819.59866443    1.12413732E-05   2.86487491E+18   2.27306400E+08   5.98224472E+07   9.86863330E+07   0.25768351      
  65               8.54601502E-01   7.60885918E-01   1845.55280683    1.17168754E-05   2.98620013E+18   2.20262596E+08   6.68705029E+07   9.75516751E+07   0.25578085      
  66               1.03990206E+00   8.07336715E-01   1873.89272695    1.22434032E-05   3.12058357E+18   2.12141614E+08   7.49869617E+07   9.63252619E+07   0.25398134      
  67               1.26538076E+00   8.59205945E-01   1903.43200066    1.28268450E-05   3.26953316E+18   2.03208018E+08   8.38839330E+07   9.50163826E+07   0.25192824      
  68               1.53974930E+00   9.17298989E-01   1935.18506209    1.34681194E-05   3.43331975E+18   1.94052389E+08   9.30035272E+07   9.36186901E+07   0.24971851      
  69               1.87360830E+00   9.82966999E-01   1968.51429780    1.41862571E-05   3.61681424E+18   1.84632536E+08   1.02407278E+08   9.21163522E+07   0.24714922      
  70               2.27985690E+00   1.05698868E+00   2004.21598610    1.49805778E-05   3.81989701E+18   1.74643710E+08   1.12377764E+08   9.05106602E+07   0.24425756      
  71               2.77419111E+00   1.14022793E+00   2041.21915843    1.58644789E-05   4.04601862E+18   1.64012791E+08   1.22989164E+08   8.88031915E+07   0.24097992      
  72               3.37571026E+00   1.23364960E+00   2080.30835969    1.68379553E-05   4.29526485E+18   1.52785218E+08   1.34196060E+08   8.69956331E+07   0.23746471      
  73               4.10765492E+00   1.33832872E+00   2120.40478299    1.79163981E-05   4.57161726E+18   1.41029495E+08   1.45930925E+08   8.50897656E+07   0.23356562      
  74               4.99830483E+00   1.45547135E+00   2162.26568152    1.91009947E-05   4.87551441E+18   1.28905560E+08   1.58034515E+08   8.30873009E+07   0.22951964      
  75               6.08207157E+00   1.58642364E+00   2204.84905491    2.04093748E-05   5.21154090E+18   1.16548264E+08   1.70371364E+08   8.09899361E+07   0.22509941      
  76               7.40082804E+00   1.73269590E+00   2248.85703554    2.18445670E-05   5.58066996E+18   1.04211705E+08   1.82687998E+08   7.87992517E+07   0.22048584      
  77               9.00552635E+00   1.89596931E+00   2293.27205082    2.34271407E-05   5.98827264E+18   9.20369395E+07   1.94844860E+08   7.65168660E+07   0.21538216      
  78               1.09581663E+01   2.07796609E+00   2338.66066503    2.51636559E-05   6.43571917E+18   8.04270984E+07   2.06438354E+08   7.41463923E+07   0.21035971      
  79               1.33341911E+01   2.28078859E+00   2384.21659217    2.70721356E-05   6.92891392E+18   6.97490478E+07   2.17102416E+08   7.16890020E+07   0.2051465       
  80               1.62254019E+01   2.50694587E+00   2430.50010432    2.91651687E-05   7.47093836E+18   6.02641924E+07   2.26575874E+08   6.91437905E+07   0.20012769      
  81               1.97435049E+01   2.75899615E+00   2476.83324261    3.14671488E-05   8.06826522E+18   5.17587778E+07   2.35072276E+08   6.65127140E+07   0.19494517      
  82               2.40244270E+01   3.03979132E+00   2523.59247056    3.39910513E-05   8.72469768E+18   4.43335583E+07   2.42490240E+08   6.37976099E+07   0.19011988      
  83               2.92335681E+01   3.35246125E+00   2570.33541887    3.67623819E-05   9.44712812E+18   3.79370721E+07   2.48881880E+08   6.10004956E+07   0.18521668      
  84               3.55721908E+01   3.70047825E+00   2617.25110769    3.97997587E-05   1.02409042E+19   3.25283919E+07   2.54287668E+08   5.81233153E+07   0.18054801      
  85               4.32851972E+01   4.08766224E+00   2664.05166031    4.31311762E-05   1.11136880E+19   2.79367601E+07   2.58877601E+08   5.51680910E+07   0.1762038       
  86               5.26705906E+01   4.51812699E+00   2710.98787539    4.67766223E-05   1.20713738E+19   2.40007349E+07   2.62813265E+08   5.21374340E+07   0.17195355      
  87               6.40909893E+01   4.99630312E+00   2757.63820887    5.07698069E-05   1.31231270E+19   2.06121980E+07   2.66203352E+08   4.90344463E+07   0.16793564      
  88               7.79876373E+01   5.52693789E+00   2804.34056405    5.51308765E-05   1.42751168E+19   1.77208377E+07   2.69098376E+08   4.58626515E+07   0.16426477      
  89               9.48974517E+01   6.11509082E+00   2850.73110598    5.98957143E-05   1.55371907E+19   1.52385016E+07   2.71586651E+08   4.26259364E+07   0.16096539      
  90               1.15473768E+02   6.76615176E+00   2897.18633835    6.50842411E-05   1.69157456E+19   1.31098271E+07   2.73724897E+08   3.93283548E+07   0.15786378      
  91               1.40511583E+02   7.48592293E+00   2943.24755585    7.07389233E-05   1.84223233E+19   1.12841002E+07   2.75565125E+08   3.59737850E+07   0.15503269      
  92               1.70978268E+02   8.28071723E+00   2989.37202221    7.68802141E-05   2.00638295E+19   9.73455831E+06   2.77135625E+08   3.25655633E+07   0.15245238      
  93               2.08050949E+02   9.15730384E+00   3035.09721292    8.35569088E-05   2.18534927E+19   8.39628109E+06   2.78503143E+08   2.91069204E+07   0.15006471      
  94               2.53161982E+02   1.01225422E+01   3080.85630598    9.07881164E-05   2.37981936E+19   7.24142608E+06   2.79698335E+08   2.56023219E+07   0.14783829      
  95               3.08054300E+02   1.11837494E+01   3126.15318907    9.86265399E-05   2.59121238E+19   6.23865530E+06   2.80754261E+08   2.20558394E+07   0.14586067      
  96               3.74848746E+02   1.23489525E+01   3171.51873189    1.07090620E-04   2.82025696E+19   5.37633303E+06   2.81684098E+08   1.84704357E+07   0.14411695      
  97               4.56126023E+02   1.36269703E+01   3216.46748511    1.16243253E-04   3.06864029E+19   4.62658761E+06   2.82516736E+08   1.48481225E+07   0.1425648       
  98               5.55026396E+02   1.50275439E+01   3261.54854794    1.26107044E-04   3.33725965E+19   3.98348042E+06   2.83259412E+08   1.11899760E+07   0.14114529      
  99               6.75371026E+02   1.65614730E+01   3306.25055276    1.36759674E-04   3.62818179E+19   3.42976722E+06   2.83929611E+08   7.49624775E+06   0.13989664      
  100              8.21809604E+02   1.82406941E+01   3351.18280912    1.48226946E-04   3.94247621E+19   2.95634845E+06   2.84536742E+08   3.76654985E+06   0.13878725      
  101              1.00000000E+03   2.00783997E+01   3395.81430282    1.60602883E-04   4.28263440E+19   2.72698058E+06   2.84862432E+08   0.00000000E+00   0.13781467      
