# ATMO pressure-temperature profile
# Effective temperature = 800.0K
# log(g) = 3.5cm/s^2
# M/H = 0.0
# Optical depth grid in band 17 (1.20-1.33microns)
# All parameters in cgs units
#
# Model Level      Optical Depth    Pressure         Temperature      Density          Number Density   Rad Flux         Conv Flux        Radial Extension Adiabatic Gradient
#                                   [Ba]             [K]              [g/cm^3]         [/cm^3]          [ergs/s/cm^2/sr] [ergs/s/cm^2/sr] [cm]             [K/Ba]          
  1                5.00000000E-05   1.00000000E-05   225.83200448     1.25470694E-09   3.20730566E+14   2.32237091E+07   0.00000000E+00   1.28769163E+08   0.3151077       
  2                5.91534807E-05   1.42708812E-04   260.08723872     1.55474631E-08   3.97427199E+15   2.32237091E+07   0.00000000E+00   1.19267517E+08   0.30420912      
  3                6.99826855E-05   2.88881052E-04   283.03306544     2.89207572E-08   7.39277897E+15   2.32237091E+07   0.00000000E+00   1.17087648E+08   0.30592682      
  4                8.27943887E-05   4.55485830E-04   291.60603685     4.42594622E-08   1.13136881E+16   2.32237091E+07   0.00000000E+00   1.15615066E+08   0.3024491       
  5                9.79515255E-05   6.47809714E-04   304.86752982     6.02093625E-08   1.53908329E+16   2.32237091E+07   0.00000000E+00   1.14436922E+08   0.30384519      
  6                1.15883473E-04   8.70837443E-04   309.61628355     7.96968317E-08   2.03722567E+16   2.32237091E+07   0.00000000E+00   1.13418785E+08   0.30169176      
  7                1.37098216E-04   1.13021610E-03   320.80467202     9.98271132E-08   2.55180006E+16   2.32237091E+07   0.00000000E+00   1.12499205E+08   0.30277669      
  8                1.62196734E-04   1.43218253E-03   324.69402371     1.24983242E-07   3.19484591E+16   2.32237091E+07   0.00000000E+00   1.11644319E+08   0.30119334      
  9                1.91890027E-04   1.78402919E-03   335.50900094     1.50669540E-07   3.85144427E+16   2.32237091E+07   0.00000000E+00   1.10833517E+08   0.30201681      
  10               2.27019260E-04   2.19403102E-03   339.43784974     1.83151374E-07   4.68175125E+16   2.32237091E+07   0.00000000E+00   1.10053026E+08   0.30081421      
  11               2.68579588E-04   2.67207887E-03   350.07478625     2.16279813E-07   5.52858868E+16   2.32237091E+07   0.00000000E+00   1.09293472E+08   0.30143658      
  12               3.17748350E-04   3.22957722E-03   353.98267473     2.58518379E-07   6.60829628E+16   2.32237091E+07   0.00000000E+00   1.08547900E+08   0.30051825      
  13               3.75918418E-04   3.88014962E-03   364.40084961     3.01714829E-07   7.71249563E+16   2.32237091E+07   0.00000000E+00   1.07811266E+08   0.30100011      
  14               4.44737657E-04   4.63950092E-03   368.17629205     3.57061498E-07   9.12727813E+16   2.32237091E+07   0.00000000E+00   1.07079667E+08   0.30028506      
  15               5.26155608E-04   5.52612867E-03   378.49352716     4.13704097E-07   1.05751948E+17   2.32237091E+07   0.00000000E+00   1.06350168E+08   0.30066916      
  16               6.22478712E-04   6.56131144E-03   382.33647748     4.86264895E-07   1.24299894E+17   2.32237091E+07   0.00000000E+00   1.05620314E+08   0.30009673      
  17               7.36435649E-04   7.76995559E-03   392.92353588     5.60322602E-07   1.43230772E+17   2.32237091E+07   0.00000000E+00   1.04888092E+08   0.30040583      
  18               8.71254639E-04   9.18074797E-03   397.03367513     6.55206788E-07   1.67485248E+17   2.32237091E+07   0.00000000E+00   1.04151792E+08   0.29993843      
  19               1.03075489E-03   1.08269689E-02   408.13396729     7.51676989E-07   1.92145399E+17   2.32237091E+07   0.00000000E+00   1.03409998E+08   0.30017158      
  20               1.21945479E-03   1.27468024E-02   412.76622887     8.75037446E-07   2.23677828E+17   2.32237091E+07   0.00000000E+00   1.02661424E+08   0.29988542      
  21               1.44269991E-03   1.49848460E-02   424.56789227     1.00007852E-06   2.55641276E+17   2.32237091E+07   0.00000000E+00   1.01904873E+08   0.3000712       
  22               1.70681442E-03   1.75928019E-02   429.83732357     1.15973780E-06   2.96453600E+17   2.32237091E+07   0.00000000E+00   1.01139094E+08   0.29965804      
  23               2.01928028E-03   2.06307102E-02   442.42921361     1.32129040E-06   3.37750673E+17   2.32237091E+07   0.00000000E+00   1.00363033E+08   0.29978672      
  24               2.38894914E-03   2.41659647E-02   448.83188821     1.52565890E-06   3.89983536E+17   2.32237091E+07   0.00000000E+00   9.95756354E+07   0.29952144      
  25               2.82629313E-03   2.82753381E-02   462.99768755     1.73048594E-06   4.42338585E+17   2.32237091E+07   0.00000000E+00   9.87758681E+07   0.29969582      
  26               3.34370152E-03   3.30449835E-02   470.84826458     1.98867339E-06   5.08335459E+17   2.32237091E+07   0.00000000E+00   9.79628123E+07   0.29948811      
  27               3.95583167E-03   3.85847967E-02   484.68462570     2.25576580E-06   5.76610853E+17   2.32237091E+07   0.00000000E+00   9.71356964E+07   0.299602        
  28               4.68002425E-03   4.50126953E-02   493.35676169     2.58545490E-06   6.60845252E+17   2.32237091E+07   0.00000000E+00   9.62939968E+07   0.29936706      
  29               5.53679448E-03   5.24628713E-02   508.32740878     2.92462908E-06   7.47539883E+17   2.32237091E+07   0.00000000E+00   9.54372300E+07   0.29946873      
  30               6.55041330E-03   6.10878549E-02   518.34457698     3.33962974E-06   8.53615231E+17   2.32237092E+07   0.00000000E+00   9.45645124E+07   0.29923143      
  31               7.74959494E-03   7.10665324E-02   534.74738106     3.76597775E-06   9.62592112E+17   2.32237093E+07   0.00000000E+00   9.36747277E+07   0.29933626      
  32               9.16831029E-03   8.25969379E-02   546.43282768     4.28339543E-06   1.09484592E+18   2.32237094E+07   0.00000000E+00   9.27668829E+07   0.29904739      
  33               1.08467493E-02   9.59010208E-02   564.69616999     4.81247800E-06   1.23008246E+18   2.32237095E+07   0.00000000E+00   9.18402526E+07   0.29914284      
  34               1.28324595E-02   1.11221111E-01   578.63617687     5.44680358E-06   1.39221877E+18   2.32237098E+07   0.00000000E+00   9.08940022E+07   0.29882123      
  35               1.51816929E-02   1.28831933E-01   599.34367530     6.09125996E-06   1.55694559E+18   2.32237099E+07   0.00000000E+00   8.99271609E+07   0.29891569      
  36               1.79609996E-02   1.49023445E-01   616.06612237     6.85466961E-06   1.75207669E+18   2.32237101E+07   0.00000000E+00   8.89390128E+07   0.29850778      
  37               2.12491128E-02   1.72114813E-01   639.75737061     7.62362947E-06   1.94862734E+18   2.32237101E+07   0.00000000E+00   8.79288869E+07   0.29856067      
  38               2.51391797E-02   1.98470606E-01   659.95738414     8.52194833E-06   2.17824208E+18   2.32237104E+07   0.00000000E+00   8.68948745E+07   0.29800183      
  39               2.97413996E-02   2.28493849E-01   687.28248990     9.42101213E-06   2.40804763E+18   2.32237099E+07   0.00000000E+00   8.58352808E+07   0.29804676      
  40               3.51861462E-02   2.62601681E-01   711.49796916     1.04588066E-05   2.67331218E+18   2.32237231E+07   0.00000000E+00   8.47486943E+07   0.29738725      
  41               4.16276604E-02   3.01198250E-01   743.58697454     1.14783527E-05   2.93390813E+18   2.31795743E+07   4.41467177E+04   8.36347383E+07   0.29735527      
  42               4.92484201E-02   3.44688577E-01   771.43680040     1.26615760E-05   3.23632686E+18   2.30608972E+07   1.62790491E+05   8.24939387E+07   0.29639368      
  43               5.82643093E-02   3.93694677E-01   805.01704600     1.38585581E-05   3.54225895E+18   2.28956900E+07   3.27974570E+05   8.13240416E+07   0.29625173      
  44               6.89307339E-02   4.48914655E-01   834.24233537     1.52487772E-05   3.89760118E+18   2.27201911E+07   5.03407590E+05   8.01228294E+07   0.29502822      
  45               8.15498567E-02   5.11082700E-01   869.44505222     1.66576029E-05   4.25769826E+18   2.25531677E+07   6.70388194E+05   7.88893170E+07   0.2948181       
  46               9.64791575E-02   5.80894436E-01   900.10534674     1.82880681E-05   4.67444135E+18   2.24196355E+07   8.03851009E+05   7.76244689E+07   0.29334704      
  47               1.14141560E-01   6.59015601E-01   936.76380339     1.99357356E-05   5.09555430E+18   2.23307728E+07   8.92676617E+05   7.63306629E+07   0.293072        
  48               1.35037411E-01   7.46285816E-01   968.68591690     2.18323136E-05   5.58017785E+18   2.22992305E+07   9.24166805E+05   7.50078416E+07   0.29138331      
  49               1.59758657E-01   8.43737048E-01   1006.69948113    2.37509656E-05   6.07062092E+18   2.23356339E+07   8.87753204E+05   7.36545327E+07   0.29104754      
  50               1.89005613E-01   9.52474288E-01   1039.96750861    2.59539140E-05   6.63375349E+18   2.24334047E+07   7.89953734E+05   7.22695757E+07   0.2891572       
  51               2.23606798E-01   1.07367859E+00   1079.35877745    2.81883378E-05   7.20500534E+18   2.25924657E+07   6.30913238E+05   7.08525359E+07   0.28876613      
  52               2.64542408E-01   1.20849124E+00   1113.97623401    3.07411330E-05   7.85766341E+18   2.27871183E+07   4.36237307E+05   6.94043108E+07   0.28663973      
  53               3.12972084E-01   1.35816384E+00   1154.58467965    3.33323839E-05   8.52024755E+18   2.30120169E+07   2.11414821E+05   6.79257153E+07   0.28620898      
  54               3.70267763E-01   1.52434457E+00   1190.52180115    3.62806948E-05   9.27409699E+18   2.32150949E+07   7.55891674E+04   6.64145575E+07   0.28389862      
  55               4.38052539E-01   1.70880894E+00   1232.37341036    3.92888362E-05   1.00433137E+19   2.32235016E+07   0.00000000E+00   6.48695154E+07   0.28349464      
  56               5.18246648E-01   1.91391661E+00   1266.41539645    4.28210580E-05   1.09464341E+19   2.32237055E+07   0.00000000E+00   6.32881992E+07   0.28119664      
  57               6.13121862E-01   2.14228066E+00   1307.21504489    4.64335072E-05   1.18701217E+19   2.32237078E+07   0.00000000E+00   6.16686899E+07   0.2808616       
  58               7.25365844E-01   2.39660094E+00   1340.34075440    5.06614469E-05   1.29510906E+19   2.32237038E+07   0.00000000E+00   6.00105296E+07   0.27860574      
  59               8.58158289E-01   2.67978676E+00   1380.78614979    5.49875907E-05   1.40572269E+19   2.32237055E+07   0.00000000E+00   5.83138473E+07   0.27833582      
  60               1.01526100E+00   2.99550666E+00   1413.68176240    6.00350163E-05   1.53477414E+19   2.32237057E+07   0.00000000E+00   5.65761764E+07   0.27603471      
  61               1.20112443E+00   3.34836060E+00   1454.65509886    6.52162273E-05   1.66723965E+19   2.32237010E+07   0.00000000E+00   5.47929085E+07   0.27577656      
  62               1.42101382E+00   3.74331554E+00   1488.32417836    7.12578167E-05   1.82173306E+19   2.32237063E+07   0.00000000E+00   5.29607883E+07   0.27331251      
  63               1.68115827E+00   4.18586873E+00   1530.87061153    7.74734404E-05   1.98049139E+19   2.32236979E+07   0.00000000E+00   5.10772079E+07   0.27302154      
  64               1.98892727E+00   4.67882893E+00   1566.68140643    8.46165352E-05   2.16312849E+19   2.32236957E+07   0.00000000E+00   4.91518608E+07   0.27045442      
  65               2.35303941E+00   5.21948143E+00   1612.36763356    9.17453010E-05   2.34470994E+19   2.32304802E+07   0.00000000E+00   4.72113397E+07   0.27004618      
  66               2.78380943E+00   5.79496470E+00   1652.98086314    9.93632312E-05   2.53926957E+19   2.28275319E+07   3.94545663E+05   4.53053092E+07   0.26748679      
  67               3.29344035E+00   6.38575380E+00   1701.73504902    1.06379541E-04   2.71797881E+19   2.09943044E+07   2.22619095E+06   4.34881220E+07   0.2668182       
  68               3.89636920E+00   6.96092182E+00   1735.84545438    1.13720262E-04   2.90456794E+19   1.85160946E+07   4.70535556E+06   4.18344324E+07   0.26441208      
  69               4.60967600E+00   7.46979641E+00   1773.77212802    1.19514816E-04   3.05025943E+19   1.56777847E+07   7.55085637E+06   4.04540308E+07   0.26411685      
  70               5.45356761E+00   7.88119300E+00   1793.71706616    1.24757544E-04   3.18246666E+19   1.37565058E+07   9.48013086E+06   3.93886065E+07   0.26223098      
  71               6.45195012E+00   8.33532109E+00   1825.50868110    1.29650807E-04   3.30722903E+19   1.27381991E+07   1.05005421E+07   3.82594410E+07   0.26220492      
  72               7.63310614E+00   8.84017345E+00   1848.54546651    1.35787186E-04   3.46382936E+19   1.14726259E+07   1.17704751E+07   3.70562142E+07   0.26010544      
  73               9.03049593E+00   9.25791956E+00   1876.04267717    1.40162597E-04   3.57434549E+19   9.81892618E+06   1.34303758E+07   3.60986092E+07   0.26027321      
  74               1.06837053E+01   9.58152678E+00   1887.70087494    1.44165047E-04   3.67643913E+19   8.89961134E+06   1.43515764E+07   3.53787092E+07   0.25845388      
  75               1.26395671E+01   9.94826651E+00   1911.24121988    1.47836464E-04   3.77014234E+19   8.56279570E+06   1.46886592E+07   3.45843126E+07   0.25880713      
  76               1.49534878E+01   1.03621036E+01   1926.35486945    1.52776331E-04   3.89616620E+19   7.96095794E+06   1.52902734E+07   3.37135282E+07   0.2567599       
  77               1.76910170E+01   1.08272506E+01   1953.24643123    1.57426510E-04   4.01501329E+19   7.11389686E+06   1.61346051E+07   3.27650584E+07   0.25703599      
  78               2.09297047E+01   1.11807971E+01   1964.37823507    1.61779937E-04   4.12262177E+19   6.27647325E+06   1.69628643E+07   3.20644262E+07   0.25501539      
  79               2.47612977E+01   1.14433192E+01   1981.00794005    1.64185101E-04   4.18399961E+19   5.66924370E+06   1.75649393E+07   3.15550522E+07   0.25573144      
  80               2.92943389E+01   1.17444364E+01   1989.24167299    1.67806545E-04   4.27632271E+19   5.22806554E+06   1.80087823E+07   3.09813794E+07   0.25386935      
  81               3.46572422E+01   1.20884530E+01   2008.78398648    1.71037259E-04   4.35876375E+19   5.19680319E+06   1.80432726E+07   3.03392392E+07   0.25449792      
  82               4.10019301E+01   1.24798268E+01   2020.22842168    1.75571955E-04   4.47439089E+19   4.80185062E+06   1.84403643E+07   2.96250409E+07   0.25238126      
  83               4.85081376E+01   1.29239966E+01   2042.95638582    1.79791836E-04   4.58208964E+19   4.74449033E+06   1.84984656E+07   2.88344775E+07   0.25291049      
  84               5.73885036E+01   1.34260961E+01   2057.91949764    1.85414542E-04   4.72549391E+19   4.38432613E+06   1.88595456E+07   2.79648506E+07   0.25050354      
  85               6.78945948E+01   1.39935590E+01   2084.05684317    1.90818379E-04   4.86345008E+19   4.31032776E+06   1.89354522E+07   2.70108342E+07   0.25093231      
  86               8.03240320E+01   1.46326288E+01   2102.84192889    1.97743503E-04   5.04012800E+19   3.98207989E+06   1.92650092E+07   2.59704656E+07   0.24813974      
  87               9.50289215E+01   1.53502353E+01   2132.46435459    2.04546124E-04   5.21385677E+19   3.87219104E+06   1.93761613E+07   2.48421252E+07   0.24847245      
  88               1.12425830E+02   1.61534189E+01   2155.14665863    2.12972261E-04   5.42892030E+19   3.56393845E+06   1.96847645E+07   2.36252166E+07   0.24529913      
  89               1.33007583E+02   1.70501428E+01   2188.11874392    2.21387726E-04   5.64394762E+19   3.42900655E+06   1.98198324E+07   2.23192827E+07   0.24554824      
  90               1.57357229E+02   1.80484685E+01   2214.65775458    2.31524532E-04   5.90282048E+19   3.13941239E+06   2.01083708E+07   2.09248504E+07   0.24182281      
  91               1.86164557E+02   1.91577550E+01   2250.66792087    2.41792837E-04   6.16536841E+19   2.99015703E+06   2.02562387E+07   1.94422489E+07   0.24201618      
  92               2.20245630E+02   2.03874381E+01   2280.94577957    2.53869337E-04   6.47401251E+19   2.71978317E+06   2.05238943E+07   1.78727280E+07   0.23762262      
  93               2.60565913E+02   2.17487684E+01   2319.54258715    2.66270301E-04   6.79138197E+19   2.56217599E+06   2.06783543E+07   1.62169644E+07   0.23780531      
  94               3.08267614E+02   2.32524590E+01   2353.39815833    2.80569355E-04   7.15647764E+19   2.30651753E+06   2.09295830E+07   1.44771975E+07   0.23276106      
  95               3.64702046E+02   2.49122947E+01   2394.03589687    2.95431133E-04   7.53718048E+19   2.15257687E+06   2.10787095E+07   1.26540636E+07   0.23299228      
  96               4.31467909E+02   2.67424361E+01   2431.34050442    3.12201448E-04   7.96674691E+19   1.92994905E+06   2.12956467E+07   1.07484252E+07   0.22731083      
  97               5.10456573E+02   2.87598277E+01   2473.48269930    3.29941399E-04   8.42176739E+19   1.78853396E+06   2.14308204E+07   8.76069959E+06   0.2278311       
  98               6.03905660E+02   3.09810271E+01   2514.21997350    3.49562126E-04   8.92520868E+19   1.59330013E+06   2.16194919E+07   6.69242128E+06   0.22143699      
  99               7.14462436E+02   3.34275352E+01   2557.24866154    3.70691608E-04   9.46797787E+19   1.44486072E+06   2.17614804E+07   4.54320303E+06   0.21840696      
  100              8.45258798E+02   3.61224188E+01   2599.96262286    3.93846955E-04   1.00631874E+20   1.27729733E+06   2.19234270E+07   2.31285631E+06   0.21067977      
  101              1.00000000E+03   3.90939696E+01   2643.02061513    4.19128119E-04   1.07135909E+20   1.20349974E+06   2.19936913E+07   0.00000000E+00   0.20776951      
