# ATMO pressure-temperature profile
# Effective temperature = 300.0K
# log(g) = 3.0cm/s^2
# M/H = 0.0
# Optical depth grid in band 17 (1.20-1.33microns)
# All parameters in cgs units
#
# Model Level      Optical Depth    Pressure         Temperature      Density          Number Density   Rad Flux         Conv Flux        Radial Extension Adiabatic Gradient
#                                   [Ba]             [K]              [g/cm^3]         [/cm^3]          [ergs/s/cm^2/sr] [ergs/s/cm^2/sr] [cm]             [K/Ba]          
  1                1.00000000E-04   1.00000000E-05   36.87955134      7.68289219E-09   1.96399424E+15   4.59532394E+05   0.00000000E+00   2.45266576E+08   0.34574383      
  2                1.17489755E-04   5.09240355E-05   45.38488301      3.17923009E-08   8.12713420E+15   4.59532394E+05   0.00000000E+00   2.42648060E+08   0.34574383      
  3                1.38038426E-04   9.89648300E-05   49.98735841      5.60958928E-08   1.43399136E+16   4.59532394E+05   0.00000000E+00   2.41510476E+08   0.34574383      
  4                1.62181010E-04   1.55360549E-04   53.50124833      8.22786580E-08   2.10330702E+16   4.59532394E+05   0.00000000E+00   2.40680363E+08   0.31479519      
  5                1.90546072E-04   2.21557377E-04   56.33141096      1.11441245E-07   2.84879649E+16   4.59532394E+05   0.00000000E+00   2.39989057E+08   0.31480709      
  6                2.23872114E-04   2.99253366E-04   59.03733293      1.43622566E-07   3.67145453E+16   4.59532395E+05   0.00000000E+00   2.39374921E+08   0.31481757      
  7                2.63026799E-04   3.90428052E-04   61.46481310      1.79980236E-07   4.60087345E+16   4.59532395E+05   0.00000000E+00   2.38807833E+08   0.31482714      
  8                3.09029543E-04   4.97411205E-04   63.95560419      2.20367389E-07   5.63329893E+16   4.59532395E+05   0.00000000E+00   2.38270641E+08   0.31483611      
  9                3.63078055E-04   6.22917386E-04   66.27703040      2.66304055E-07   6.80758779E+16   4.59532395E+05   0.00000000E+00   2.37752555E+08   0.31484467      
  10               4.26579519E-04   7.70112048E-04   68.80511867      3.17134535E-07   8.10697828E+16   4.59532395E+05   0.00000000E+00   2.37246052E+08   0.31485295      
  11               5.01187234E-04   9.42720983E-04   71.19013985      3.75209388E-07   9.59155822E+16   4.59532396E+05   0.00000000E+00   2.36745667E+08   0.31486105      
  12               5.88843655E-04   1.14435391E-03   73.84869361      4.39064080E-07   1.12238894E+17   4.59532397E+05   0.00000000E+00   2.36248891E+08   0.31486902      
  13               6.91830971E-04   1.37832232E-03   76.46424303      5.10743403E-07   1.30562434E+17   4.59532398E+05   0.00000000E+00   2.35754817E+08   0.31487692      
  14               8.12830516E-04   1.64842285E-03   79.41966222      5.88099702E-07   1.50337191E+17   4.59532399E+05   0.00000000E+00   2.35261985E+08   0.31488476      
  15               9.54992586E-04   1.95917130E-03   82.31449220      6.74382784E-07   1.72393920E+17   4.59532401E+05   0.00000000E+00   2.34768550E+08   0.31489255      
  16               1.12201845E-03   2.31596849E-03   85.59990452      7.66601622E-07   1.95968020E+17   4.59532404E+05   0.00000000E+00   2.34272320E+08   0.3149003       
  17               1.31825674E-03   2.72550016E-03   88.94267753      8.68253179E-07   2.21953426E+17   4.59532408E+05   0.00000000E+00   2.33770348E+08   0.31490802      
  18               1.54881662E-03   3.19576355E-03   92.77553957      9.76003824E-07   2.49497955E+17   4.59532413E+05   0.00000000E+00   2.33259499E+08   0.31491574      
  19               1.81970086E-03   3.73595744E-03   96.66300680      1.09509548E-06   2.79941612E+17   4.59532420E+05   0.00000000E+00   2.32736985E+08   0.31492349      
  20               2.13796209E-03   4.35656112E-03   101.15439703     1.22030653E-06   3.11949925E+17   4.59532431E+05   0.00000000E+00   2.32200134E+08   0.31493131      
  21               2.51188643E-03   5.06899358E-03   106.18525529     1.35258891E-06   3.45766859E+17   4.59528010E+05   4.43240425E+00   2.31645602E+08   0.31493922      
  22               2.95120923E-03   5.88754753E-03   111.21820475     1.49989419E-06   3.83428496E+17   4.59519149E+05   1.33095265E+01   2.31070912E+08   0.31494725      
  23               3.46736850E-03   6.82921672E-03   116.63634684     1.65884590E-06   4.24094681E+17   4.59507263E+05   2.52195773E+01   2.30473924E+08   0.31495542      
  24               4.07380278E-03   7.91346048E-03   122.07487597     1.83675370E-06   4.69532854E+17   4.59493485E+05   3.90295759E+01   2.29852772E+08   0.31915029      
  25               4.78630092E-03   9.16222473E-03   128.10531150     2.02648887E-06   5.18035644E+17   4.59475240E+05   5.73205189E+01   2.29205506E+08   0.31975526      
  26               5.62341325E-03   1.06005964E-02   134.03669994     2.24087374E-06   5.72838782E+17   4.59452827E+05   7.97857341E+01   2.28530526E+08   0.32367605      
  27               6.60693448E-03   1.22574288E-02   140.76003430     2.46735040E-06   6.30733439E+17   4.59423699E+05   1.08970738E+02   2.27825907E+08   0.3240532       
  28               7.76247117E-03   1.41665702E-02   147.24252778     2.72610300E-06   6.96878863E+17   4.59392478E+05   1.40237240E+02   2.27089782E+08   0.32585334      
  29               9.12010839E-03   1.63668374E-02   154.66617928     2.99833526E-06   7.66470159E+17   4.59359499E+05   1.73248330E+02   2.26320184E+08   0.32579352      
  30               1.07151931E-02   1.89033638E-02   161.75098661     3.31133257E-06   8.46482519E+17   4.59327945E+05   2.04803272E+02   2.25515180E+08   0.32500383      
  31               1.25892541E-02   2.18288838E-02   169.84103478     3.64165713E-06   9.30925101E+17   4.59296221E+05   2.36474718E+02   2.24672715E+08   0.32487961      
  32               1.47910839E-02   2.52029155E-02   177.59400144     4.02096686E-06   1.02789400E+18   4.59264486E+05   2.68132081E+02   2.23790987E+08   0.32390001      
  33               1.73780083E-02   2.90926516E-02   186.40167872     4.42216135E-06   1.13047074E+18   4.59226859E+05   3.05651833E+02   2.22868548E+08   0.32353685      
  34               2.04173794E-02   3.35731346E-02   194.85969459     4.88141715E-06   1.24794577E+18   4.59189672E+05   3.42854821E+02   2.21904198E+08   0.32096574      
  35               2.39883292E-02   3.87285407E-02   204.32861825     5.36691550E-06   1.37286482E+18   4.59288853E+05   2.44361529E+02   2.20896971E+08   0.32025287      
  36               2.81838293E-02   4.46560440E-02   213.49990109     5.92646938E-06   1.51498527E+18   4.59515867E+05   1.95559700E+01   2.19845950E+08   0.31707227      
  37               3.31131121E-02   5.14680798E-02   223.60926813     6.52170389E-06   1.66714742E+18   4.59540258E+05   0.00000000E+00   2.18750233E+08   0.31616263      
  38               3.89045145E-02   5.93065979E-02   231.22198348     7.26751209E-06   1.85780329E+18   4.59548512E+05   0.00000000E+00   2.17611661E+08   0.31329186      
  39               4.57088190E-02   6.83303165E-02   240.61986195     8.04628929E-06   2.05687452E+18   4.59562582E+05   0.00000000E+00   2.16431626E+08   0.31251236      
  40               5.37031796E-02   7.87180895E-02   248.33302671     8.98160076E-06   2.29596838E+18   4.59583574E+05   0.00000000E+00   2.15209692E+08   0.31019004      
  41               6.30957344E-02   9.06761124E-02   258.32397153     9.94584907E-06   2.54245938E+18   4.59613295E+05   0.00000000E+00   2.13944485E+08   0.30959243      
  42               7.41310241E-02   1.04430022E-01   267.16889843     1.10752397E-05   2.83116582E+18   4.59645475E+05   0.00000000E+00   2.12634010E+08   0.3077075       
  43               8.70963590E-02   1.20221266E-01   279.43240757     1.21904071E-05   3.11623616E+18   4.58765012E+05   9.24700579E+02   2.11274975E+08   0.30715322      
  44               1.02329299E-01   1.38306975E-01   291.24897092     1.34552994E-05   3.43958085E+18   4.54453692E+05   5.28534967E+03   2.09862829E+08   0.30550392      
  45               1.20226443E-01   1.59019247E-01   304.35890386     1.48039417E-05   3.78433454E+18   4.46764981E+05   1.30167325E+04   2.08395280E+08   0.30474927      
  46               1.41253754E-01   1.82735781E-01   317.05389280     1.63306770E-05   4.17461418E+18   4.35636287E+05   2.41644408E+04   2.06869962E+08   0.3034585       
  47               1.65958691E-01   2.09880976E-01   331.10079535     1.79608356E-05   4.59133193E+18   4.21166637E+05   3.86145091E+04   2.05284968E+08   0.30288701      
  48               1.94984460E-01   2.40930789E-01   344.74723505     1.98018247E-05   5.06194417E+18   4.03771588E+05   5.59510357E+04   2.03638539E+08   0.30208889      
  49               2.29086765E-01   2.76424832E-01   359.82536363     2.17670201E-05   5.56430748E+18   3.83648239E+05   7.59871513E+04   2.01928904E+08   0.30173066      
  50               2.69153480E-01   3.16979040E-01   374.49758278     2.39825463E-05   6.13066192E+18   3.61103186E+05   9.84381841E+04   2.00153943E+08   0.30114768      
  51               3.16227766E-01   3.63269117E-01   390.68251759     2.63462050E-05   6.73488741E+18   3.36566035E+05   1.22886361E+05   1.98312403E+08   0.30082946      
  52               3.71535229E-01   4.16034178E-01   406.42193730     2.90048254E-05   7.41442895E+18   3.11080948E+05   1.48295711E+05   1.96403630E+08   0.30043358      
  53               4.36515832E-01   4.76100362E-01   423.75667944     3.18346712E-05   8.13781466E+18   2.86227325E+05   1.73091001E+05   1.94426912E+08   0.30028096      
  54               5.12861384E-01   5.44415681E-01   440.60667711     3.50104714E-05   8.94963639E+18   2.62761984E+05   1.96511610E+05   1.92380614E+08   0.30007412      
  55               6.02559586E-01   6.22052312E-01   459.16026736     3.83867115E-05   9.81269834E+18   2.39603989E+05   2.19637875E+05   1.90262852E+08   0.29995672      
  56               7.07945784E-01   7.10173457E-01   477.17405036     4.21705194E-05   1.07798684E+19   2.14165063E+05   2.45051315E+05   1.88072639E+08   0.29975933      
  57               8.31763771E-01   8.10040624E-01   496.98266704     4.61833539E-05   1.18056906E+19   1.91633960E+05   2.67564145E+05   1.85809686E+08   0.29965468      
  58               9.77237221E-01   9.23101240E-01   516.18277431     5.06756524E-05   1.29530388E+19   1.76950517E+05   2.82239086E+05   1.83472588E+08   0.29951026      
  59               1.14815362E+00   1.05111151E+00   537.31496923     5.54336587E-05   1.41692118E+19   1.65343160E+05   2.93846224E+05   1.81057359E+08   0.29943751      
  60               1.34896288E+00   1.19603139E+00   557.81305621     6.07585514E-05   1.55302964E+19   1.54698391E+05   3.04490282E+05   1.78560250E+08   0.29924378      
  61               1.58489319E+00   1.35994930E+00   580.37266729     6.64001344E-05   1.69723354E+19   1.44965304E+05   3.14219666E+05   1.75979546E+08   0.29910279      
  62               1.86208714E+00   1.54504963E+00   602.21179980     7.27019332E-05   1.85831363E+19   1.35524258E+05   3.23653799E+05   1.73315451E+08   0.29881208      
  63               2.18776162E+00   1.75361559E+00   626.18067811     7.93573100E-05   2.02843257E+19   1.27477020E+05   3.31697883E+05   1.70569599E+08   0.29866866      
  64               2.57039578E+00   1.98851498E+00   649.35117396     8.67762357E-05   2.21806912E+19   1.20767830E+05   3.38407663E+05   1.67738938E+08   0.29833418      
  65               3.01995172E+00   2.25315972E+00   674.80129437     9.46164959E-05   2.41847672E+19   1.15869472E+05   3.43301997E+05   1.64818288E+08   0.29812901      
  66               3.54813389E+00   2.55102193E+00   699.41202228     1.03354921E-04   2.64184260E+19   1.11893129E+05   3.47269875E+05   1.61806209E+08   0.29753082      
  67               4.16869383E+00   2.88565439E+00   726.35100608     1.12576328E-04   2.87755486E+19   1.09282202E+05   3.49869404E+05   1.58703943E+08   0.29722491      
  68               4.89778819E+00   3.26070163E+00   752.34418488     1.22812693E-04   3.13920973E+19   1.07444099E+05   3.51703283E+05   1.55514309E+08   0.29645996      
  69               5.75439937E+00   3.68029497E+00   780.66423097     1.33587799E-04   3.41463421E+19   1.07152540E+05   3.52003190E+05   1.52238462E+08   0.29615066      
  70               6.76082975E+00   4.15058184E+00   808.07697054     1.45548197E-04   3.72033537E+19   1.08025431E+05   3.51136003E+05   1.48865771E+08   0.29520352      
  71               7.94328235E+00   4.67802400E+00   837.95114774     1.58195638E-04   4.04361301E+19   1.10559778E+05   3.48594263E+05   1.45389815E+08   0.29482722      
  72               9.33254301E+00   5.26890522E+00   866.96256717     1.72215615E-04   4.40195785E+19   1.14340644E+05   3.44793540E+05   1.41809948E+08   0.29364949      
  73               1.09647820E+01   5.92932319E+00   898.35482241     1.87029191E-04   4.78060718E+19   1.19542744E+05   3.39558988E+05   1.38130116E+08   0.29320644      
  74               1.28824955E+01   6.66498646E+00   928.81807200     2.03339037E-04   5.19749948E+19   1.25775390E+05   3.33306100E+05   1.34357748E+08   0.29189109      
  75               1.51356125E+01   7.48244431E+00   961.47990947     2.20524089E-04   5.63675448E+19   1.32872622E+05   3.26207512E+05   1.30497395E+08   0.2913736       
  76               1.77827941E+01   8.39148163E+00   993.29806353     2.39394312E-04   6.11906264E+19   1.40429351E+05   3.18645800E+05   1.26541024E+08   0.28998185      
  77               2.08929613E+01   9.40225824E+00   1027.31402969    2.59351931E-04   6.62910344E+19   1.47801778E+05   3.11261701E+05   1.22484500E+08   0.28934271      
  78               2.45470892E+01   1.05246169E+01   1060.57559331    2.81210998E-04   7.18770935E+19   1.55507439E+05   3.03542227E+05   1.18328542E+08   0.28785342      
  79               2.88403150E+01   1.17687292E+01   1095.89323692    3.04318439E-04   7.77834426E+19   1.63926602E+05   2.95110444E+05   1.14075699E+08   0.28706237      
  80               3.38844156E+01   1.31450242E+01   1130.46995669    3.29509994E-04   8.42225150E+19   1.72543856E+05   2.86501662E+05   1.09729465E+08   0.28547446      
  81               3.98107171E+01   1.46651181E+01   1166.93616315    3.56126185E-04   9.10257581E+19   1.80844704E+05   2.78228406E+05   1.05292007E+08   0.28454971      
  82               4.67735141E+01   1.63460659E+01   1202.79670953    3.85111026E-04   9.84343897E+19   1.88944767E+05   2.70144081E+05   1.00753016E+08   0.28289148      
  83               5.49540874E+01   1.82073519E+01   1240.58913188    4.15895360E-04   1.06302787E+20   1.96622405E+05   2.62463117E+05   9.61022107E+07   0.28186126      
  84               6.45654229E+01   2.02672682E+01   1277.94755154    4.49417900E-04   1.14870371E+20   2.03017459E+05   2.56047848E+05   9.13375451E+07   0.28014674      
  85               7.58577575E+01   2.25429660E+01   1317.09049505    4.85033960E-04   1.23971335E+20   2.08005178E+05   2.51020511E+05   8.64633433E+07   0.2790498       
  86               8.91250938E+01   2.50501182E+01   1355.78151302    5.23619256E-04   1.33827668E+20   2.10798244E+05   2.48205801E+05   8.14884100E+07   0.27732844      
  87               1.04712855E+02   2.78047973E+01   1395.99117214    5.64500689E-04   1.44265638E+20   2.12283441E+05   2.46770692E+05   7.64216291E+07   0.27617502      
  88               1.23026877E+02   3.08348743E+01   1435.85197579    6.08693437E-04   1.55545823E+20   2.12761132E+05   2.46351320E+05   7.12524181E+07   0.27435173      
  89               1.44543977E+02   3.41868124E+01   1477.41570689    6.55922534E-04   1.67602980E+20   2.13687451E+05   2.45392928E+05   6.59475629E+07   0.27314333      
  90               1.69824365E+02   3.79114892E+01   1519.21233311    7.07385138E-04   1.80749959E+20   2.13783323E+05   2.45164458E+05   6.04794428E+07   0.27130287      
  91               1.99526231E+02   4.20537446E+01   1562.80703348    7.62767247E-04   1.94905976E+20   2.13110155E+05   2.45598322E+05   5.48402479E+07   0.27008027      
  92               2.34422882E+02   4.66368580E+01   1606.62490668    8.22803385E-04   2.10252238E+20   2.09553730E+05   2.48818203E+05   4.90550082E+07   0.26823099      
  93               2.75422870E+02   5.16531459E+01   1651.41522328    8.86571902E-04   2.26551182E+20   2.03042679E+05   2.54988003E+05   4.31816978E+07   0.26699534      
  94               3.23593657E+02   5.70512465E+01   1695.45464607    9.54185536E-04   2.43727650E+20   1.92776630E+05   2.65088946E+05   3.73121436E+07   0.26511187      
  95               3.80189396E+02   6.27988172E+01   1739.21103772    1.02385527E-03   2.61532112E+20   1.80775146E+05   2.77096613E+05   3.14971209E+07   0.26392414      
  96               4.46683592E+02   6.88463187E+01   1781.66690724    1.09572240E-03   2.79885274E+20   1.65876299E+05   2.92063468E+05   2.57874559E+07   0.26205845      
  97               5.24807460E+02   7.50338995E+01   1822.26276051    1.16767200E-03   2.98244441E+20   1.54055196E+05   3.03959803E+05   2.03171215E+07   0.26097366      
  98               6.16595002E+02   8.16853587E+01   1862.97634921    1.24364372E-03   3.17587001E+20   1.41761891E+05   3.16365132E+05   1.47974303E+07   0.25939099      
  99               7.24435960E+02   8.83453219E+01   1901.11586643    1.31858790E-03   3.36589691E+20   1.24752453E+05   3.33592121E+05   9.59651036E+06   0.25827536      
  100              8.51138038E+02   9.47595458E+01   1935.80061355    1.39041315E-03   3.54558733E+20   1.12187729E+05   3.46342187E+05   4.85905009E+06   0.25674724      
  101              1.00000000E+03   1.01695322E+02   1971.06217202    1.46536132E-03   3.73702920E+20   1.08418333E+05   3.50132656E+05   0.00000000E+00   0.25554778      
