# ATMO pressure-temperature profile
# Effective temperature = 400.0K
# log(g) = 5.5cm/s^2
# M/H = 0.0
# Optical depth grid in band 17 (1.20-1.33microns)
# All parameters in cgs units
#
# Model Level      Optical Depth    Pressure         Temperature      Density          Number Density   Rad Flux         Conv Flux        Radial Extension Adiabatic Gradient
#                                   [Ba]             [K]              [g/cm^3]         [/cm^3]          [ergs/s/cm^2/sr] [ergs/s/cm^2/sr] [cm]             [K/Ba]          
  1                8.00000000E-07   1.00000000E-05   33.72565210      8.40656326E-09   2.14765978E+15   1.45139533E+06   0.00000000E+00   1.04206728E+06   0.34574493      
  2                9.86413681E-07   6.00382041E-05   43.24546643      3.93609842E-08   1.00557148E+16   1.45139533E+06   0.00000000E+00   1.03336847E+06   0.34574493      
  3                1.21626494E-06   1.21651900E-04   46.64428849      7.39433744E-08   1.88906222E+16   1.45139533E+06   0.00000000E+00   1.02975691E+06   0.31479388      
  4                1.49967547E-06   1.97514007E-04   49.83136883      1.12376092E-07   2.87091889E+16   1.45139533E+06   0.00000000E+00   1.02712520E+06   0.31481039      
  5                1.84912550E-06   2.90905443E-04   52.18826872      1.58036644E-07   4.03742806E+16   1.45139533E+06   0.00000000E+00   1.02490909E+06   0.31482422      
  6                2.28000336E-06   4.05845542E-04   54.83904921      2.09821364E-07   5.36039389E+16   1.45139533E+06   0.00000000E+00   1.02291306E+06   0.31483657      
  7                2.81128314E-06   5.47281458E-04   56.91855068      2.72606209E-07   6.96438451E+16   1.45139533E+06   0.00000000E+00   1.02104295E+06   0.31484806      
  8                3.46636019E-06   7.21255404E-04   59.42543960      3.44108593E-07   8.79108575E+16   1.45139533E+06   0.00000000E+00   1.01924669E+06   0.31485902      
  9                4.27408139E-06   9.35187883E-04   61.37673515      4.31990235E-07   1.10362347E+17   1.45139533E+06   0.00000000E+00   1.01749204E+06   0.31486966      
  10               5.27001545E-06   1.19816100E-03   63.93069195      5.31354808E-07   1.35747429E+17   1.45139533E+06   0.00000000E+00   1.01575631E+06   0.31488013      
  11               6.49801917E-06   1.52121869E-03   66.03687320      6.53106479E-07   1.66851836E+17   1.45139533E+06   0.00000000E+00   1.01402212E+06   0.31489054      
  12               8.01216876E-06   1.91793418E-03   68.70646959      7.91434372E-07   2.02191040E+17   1.45139533E+06   0.00000000E+00   1.01227718E+06   0.31490097      
  13               9.87914110E-06   2.40480943E-03   70.90671100      9.61550652E-07   2.45651355E+17   1.45139533E+06   0.00000000E+00   1.01051227E+06   0.31491148      
  14               1.21811499E-05   3.00060251E-03   73.80210826      1.15270597E-06   2.94486601E+17   1.45139533E+06   0.00000000E+00   1.00872269E+06   0.31492214      
  15               1.50195662E-05   3.72639123E-03   76.18847616      1.38668559E-06   3.54262352E+17   1.45139533E+06   0.00000000E+00   1.00690734E+06   0.31493298      
  16               1.85193820E-05   4.60737335E-03   79.38299191      1.64552613E-06   4.20389424E+17   1.45139533E+06   0.00000000E+00   1.00506306E+06   0.31494401      
  17               2.28347147E-05   5.67367702E-03   82.04664920      1.96057113E-06   5.00875282E+17   1.45139533E+06   0.00000000E+00   1.00318575E+06   0.31495527      
  18               2.81555937E-05   6.96226273E-03   85.59467439      2.30612320E-06   5.89154913E+17   1.45139533E+06   0.00000000E+00   1.00126937E+06   0.31496679      
  19               3.47163285E-05   8.51983396E-03   88.58198335      2.72687087E-06   6.96645075E+17   1.45139533E+06   0.00000000E+00   9.99305220E+05   0.31497864      
  20               4.28058268E-05   1.04029978E-02   92.55288110      3.18674569E-06   8.14131211E+17   1.45139533E+06   0.00000000E+00   9.97285077E+05   0.3149909       
  21               5.27803164E-05   1.26790803E-02   95.92279142      3.74752714E-06   9.57396387E+17   1.45139533E+06   0.00000000E+00   9.95202304E+05   0.31500366      
  22               6.50790328E-05   1.54302368E-02   100.38674891     4.35787741E-06   1.11332521E+18   1.45139533E+06   0.00000000E+00   9.93049496E+05   0.31501702      
  23               8.02435604E-05   1.87561551E-02   104.26858200     5.09998601E-06   1.30291531E+18   1.45139533E+06   0.00000000E+00   9.90818547E+05   0.31503107      
  24               9.89416822E-05   2.27768613E-02   109.35622410     5.90511946E-06   1.50860732E+18   1.45139533E+06   0.00000000E+00   9.88501667E+05   0.31577017      
  25               1.21996786E-04   2.76364717E-02   113.83021627     6.88337034E-06   1.75853443E+18   1.45139533E+06   0.00000000E+00   9.86091282E+05   0.31703964      
  26               1.50424124E-04   3.35096959E-02   119.57414310     7.94520960E-06   2.02982711E+18   1.45139533E+06   0.00000000E+00   9.83579839E+05   0.32138443      
  27               1.85475517E-04   4.06083455E-02   124.72745945     9.22974932E-06   2.35819144E+18   1.45139533E+06   0.00000000E+00   9.80958470E+05   0.32233348      
  28               2.28694484E-04   4.91888941E-02   131.28702883     1.06224391E-05   2.71375776E+18   1.45139533E+06   0.00000000E+00   9.78218108E+05   0.32501828      
  29               2.81984210E-04   5.95585327E-02   137.22343527     1.23053798E-05   3.14370324E+18   1.45139533E+06   0.00000000E+00   9.75349944E+05   0.32570679      
  30               3.47691354E-04   7.20879749E-02   144.65145545     1.41292574E-05   3.60965634E+18   1.45139533E+06   0.00000000E+00   9.72345082E+05   0.32533645      
  31               4.28709385E-04   8.72284948E-02   151.48389028     1.63256788E-05   4.17078467E+18   1.45139533E+06   0.00000000E+00   9.69192651E+05   0.32515258      
  32               5.28606003E-04   1.05528546E-01   159.80820366     1.87219118E-05   4.78295971E+18   1.45139533E+06   0.00000000E+00   9.65882548E+05   0.3247948       
  33               6.51780242E-04   1.27644692E-01   167.34399272     2.16257857E-05   5.52482433E+18   1.45139533E+06   0.00000000E+00   9.62406799E+05   0.32451767      
  34               8.03656185E-04   1.54370761E-01   176.20603149     2.48383880E-05   6.34556232E+18   1.45139533E+06   0.00000000E+00   9.58760205E+05   0.32293136      
  35               9.90921819E-04   1.86675349E-01   184.28838799     2.87188747E-05   7.33693784E+18   1.45139533E+06   0.00000000E+00   9.54935316E+05   0.3219808       
  36               1.22182355E-03   2.25745132E-01   193.84104316     3.30178865E-05   8.43526044E+18   1.45139533E+06   0.00000000E+00   9.50923115E+05   0.31923631      
  37               1.50652933E-03   2.72930726E-01   203.00737375     3.81162373E-05   9.73792570E+18   1.45139533E+06   0.00000000E+00   9.46717013E+05   0.31797995      
  38               1.85757643E-03   3.29869537E-01   212.99860164     4.38996179E-05   1.12173765E+19   1.45139533E+06   0.00000000E+00   9.42315287E+05   0.31524244      
  39               2.29042351E-03   3.98583176E-01   222.10946961     5.08781674E-05   1.29980358E+19   1.45139533E+06   0.00000000E+00   9.37717521E+05   0.31400944      
  40               2.82413135E-03   4.81565771E-01   231.75138339     5.88809756E-05   1.50507837E+19   1.45139533E+06   0.00000000E+00   9.32923127E+05   0.31170056      
  41               3.48220225E-03   5.81947795E-01   240.53321127     6.85944611E-05   1.75240634E+19   1.45139533E+06   0.00000000E+00   9.27928260E+05   0.31070923      
  42               4.29361493E-03   7.03487464E-01   250.11239058     7.97450174E-05   2.03726252E+19   1.45139533E+06   0.00000000E+00   9.22731630E+05   0.30885709      
  43               5.29410063E-03   8.50617461E-01   259.28364779     9.30125535E-05   2.37621102E+19   1.45139533E+06   0.00000000E+00   9.17329331E+05   0.30800344      
  44               6.52771662E-03   1.02877950E+00   269.80482829     1.08107292E-04   2.76183943E+19   1.45139533E+06   0.00000000E+00   9.11710876E+05   0.30648025      
  45               8.04878622E-03   1.24442312E+00   280.45291421     1.25802860E-04   3.21391178E+19   1.45139533E+06   0.00000000E+00   9.05863462E+05   0.30572797      
  46               9.92429106E-03   1.50493211E+00   292.76016999     1.45742870E-04   3.72332337E+19   1.45139533E+06   0.00000000E+00   8.99779537E+05   0.30446023      
  47               1.22368206E-02   1.81887164E+00   305.59181102     1.68749596E-04   4.31108097E+19   1.45139533E+06   0.00000000E+00   8.93449140E+05   0.30375151      
  48               1.50882091E-02   2.19652124E+00   320.77787300     1.94139276E-04   4.95971639E+19   1.45139532E+06   0.00000000E+00   8.86851161E+05   0.30274928      
  49               1.86040198E-02   2.64971840E+00   337.37842035     2.22671597E-04   5.68863750E+19   1.45136977E+06   0.00000000E+00   8.79958323E+05   0.30215193      
  50               2.29390746E-02   3.19144520E+00   357.60190569     2.53028809E-04   6.46417949E+19   1.44625185E+06   5.14450776E+03   8.72741219E+05   0.30143086      
  51               2.82842712E-02   3.83686728E+00   377.20764987     2.88389015E-04   7.36753358E+19   1.43556165E+06   1.58346617E+04   8.65185610E+05   0.30092957      
  52               3.48749902E-02   4.60511289E+00   399.32249307     3.26963106E-04   8.35299742E+19   1.42193017E+06   2.94653294E+04   8.57274064E+05   0.30054358      
  53               4.30014593E-02   5.51648949E+00   420.69957297     3.71772704E-04   9.49765880E+19   1.40913403E+06   4.22617653E+04   8.49007755E+05   0.30029855      
  54               5.30215347E-02   6.59077513E+00   444.71234519     4.20188425E-04   1.07345328E+20   1.40020995E+06   5.11851934E+04   8.40412495E+05   0.30005625      
  55               6.53764590E-02   7.84845464E+00   467.64592419     4.75832114E-04   1.21560601E+20   1.39906092E+06   5.23344836E+04   8.31518005E+05   0.29987043      
  56               8.06102920E-02   9.31817495E+00   493.37605034     5.35475957E-04   1.36797650E+20   1.40642977E+06   4.49646760E+04   8.22310583E+05   0.29970056      
  57               9.93938685E-02   1.10315128E+01   517.87888005     6.03943936E-04   1.54288201E+20   1.42422411E+06   2.71702802E+04   8.12783166E+05   0.29954981      
  58               1.22554340E-01   1.30216123E+01   545.39710988     6.76924556E-04   1.72932957E+20   1.44591989E+06   5.47148722E+03   8.02940645E+05   0.29936471      
  59               1.51111597E-01   1.53215194E+01   571.39653373     7.60303335E-04   1.94218266E+20   1.45157791E+06   0.00000000E+00   7.92802580E+05   0.29916973      
  60               1.86323183E-01   1.79815783E+01   598.16042384     8.52379098E-04   2.17738873E+20   1.45139628E+06   0.00000000E+00   7.82353420E+05   0.29893773      
  61               2.29739671E-01   2.10557495E+01   624.73306900     9.55649997E-04   2.44119262E+20   1.45151534E+06   0.00000000E+00   7.71582266E+05   0.2986872       
  62               2.83272943E-01   2.45908511E+01   654.20233605     1.06582060E-03   2.72262175E+20   1.44824793E+06   3.14365505E+03   7.60505565E+05   0.29839551      
  63               3.49280383E-01   2.86299902E+01   684.72396200     1.18557300E-03   3.02852744E+20   1.41488199E+06   3.65108278E+04   7.49142837E+05   0.29805147      
  64               4.30668686E-01   3.32291387E+01   715.61757977     1.31662074E-03   3.36328696E+20   1.36457707E+06   8.68164565E+04   7.37502034E+05   0.29754841      
  65               5.31021855E-01   3.84880454E+01   747.74222264     1.45947453E-03   3.72820506E+20   1.30021177E+06   1.51182270E+05   7.25505195E+05   0.29701882      
  66               6.54759028E-01   4.45051366E+01   780.49488066     1.61682350E-03   4.13015090E+20   1.22465443E+06   2.26739959E+05   7.13118454E+05   0.29635219      
  67               8.07329079E-01   5.13852803E+01   814.60665016     1.78860037E-03   4.56895224E+20   1.14524450E+06   3.06149966E+05   7.00324360E+05   0.29568034      
  68               9.95450561E-01   5.92236621E+01   849.29706623     1.97723514E-03   5.05081515E+20   1.07447708E+06   3.76917132E+05   6.87143594E+05   0.29480138      
  69               1.22740757E+00   6.81345039E+01   885.25730279     2.18233575E-03   5.57472463E+20   1.02635246E+06   4.25041284E+05   6.73578304E+05   0.29392165      
  70               1.51341452E+00   7.82898828E+01   921.90466643     2.40793828E-03   6.15099635E+20   1.00485425E+06   4.46538945E+05   6.59569117E+05   0.29280241      
  71               1.86606598E+00   8.98101865E+01   959.82860110     2.65313793E-03   6.77731624E+20   1.00585264E+06   4.45540073E+05   6.45155874E+05   0.29171937      
  72               2.30089127E+00   1.02793308E+02   998.12409407     2.92017052E-03   7.45943858E+20   1.02060761E+06   4.30784699E+05   6.30405768E+05   0.29037028      
  73               2.83703828E+00   1.17320636E+02   1037.26765634    3.20709524E-03   8.19236721E+20   1.04329944E+06   4.08092523E+05   6.15394210E+05   0.28912735      
  74               3.49811672E+00   1.33503098E+02   1076.48548092    3.51651758E-03   8.98274368E+20   1.06754594E+06   3.83845773E+05   6.00156054E+05   0.28763176      
  75               4.31323774E+00   1.51628994E+02   1116.69684055    3.85017181E-03   9.83496468E+20   1.08688564E+06   3.64505958E+05   5.84578353E+05   0.28627588      
  76               5.31829590E+00   1.71952743E+02   1157.37739489    4.21287458E-03   1.07611814E+21   1.09879095E+06   3.52600668E+05   5.68620464E+05   0.28462305      
  77               6.55754979E+00   1.94693554E+02   1199.04817209    4.60425017E-03   1.17609061E+21   1.11494957E+06   3.36441994E+05   5.52292303E+05   0.2830756       
  78               8.08557104E+00   2.20076446E+02   1241.11107151    5.02812989E-03   1.28436587E+21   1.13370376E+06   3.17687715E+05   5.35609906E+05   0.28136946      
  79               9.96964736E+00   2.48265705E+02   1283.92440227    5.48302875E-03   1.40056451E+21   1.14835642E+06   3.03035010E+05   5.18632545E+05   0.27977666      
  80               1.22927457E+01   2.79571680E+02   1327.04283055    5.97380790E-03   1.52592812E+21   1.16252318E+06   2.88868219E+05   5.01334724E+05   0.27803868      
  81               1.51571657E+01   3.14548627E+02   1371.24100159    6.50454475E-03   1.66149808E+21   1.17715813E+06   2.74233201E+05   4.83590872E+05   0.27641597      
  82               1.86890445E+01   3.53698149E+02   1416.17839987    7.08202933E-03   1.80900872E+21   1.18865794E+06   2.62733352E+05   4.65350267E+05   0.27462832      
  83               2.30439114E+01   3.97558243E+02   1462.33561751    7.70897473E-03   1.96915338E+21   1.19389007E+06   2.57501277E+05   4.46579047E+05   0.27290641      
  84               2.84135369E+01   4.46509097E+02   1509.16047950    8.38953124E-03   2.14299288E+21   1.18507727E+06   2.66314301E+05   4.27330709E+05   0.27104877      
  85               3.50343769E+01   5.00759653E+02   1556.73214355    9.12132653E-03   2.32992143E+21   1.15245266E+06   2.98939251E+05   4.07719403E+05   0.26931343      
  86               4.31979859E+01   5.59387659E+02   1603.60174083    9.89142426E-03   2.52663322E+21   1.10346536E+06   3.47926928E+05   3.88200882E+05   0.26750192      
  87               5.32638553E+01   6.23123168E+02   1650.48564659    1.07052418E-02   2.73456334E+21   1.04520071E+06   4.06192495E+05   3.68614507E+05   0.26585396      
  88               6.56752445E+01   6.93282621E+02   1697.74879155    1.15850831E-02   2.95775858E+21   9.82877130E+05   4.68516810E+05   3.48688922E+05   0.264085        
  89               8.09786996E+01   7.71417638E+02   1746.21040795    1.25329764E-02   3.19977051E+21   9.34071158E+05   5.17322903E+05   3.28183476E+05   0.26241558      
  90               9.98481215E+01   8.59586881E+02   1796.29499767    1.35760579E-02   3.46607501E+21   8.96819794E+05   5.54574455E+05   3.06808598E+05   0.26056067      
  91               1.23114441E+02   9.60590956E+02   1848.90544739    1.47395975E-02   3.76313355E+21   8.70318848E+05   5.81075731E+05   2.84229339E+05   0.25876484      
  92               1.51802212E+02   1.07847787E+03   1904.89724553    1.60624201E-02   4.10077105E+21   8.48325058E+05   6.03069691E+05   2.60001261E+05   0.25673231      
  93               1.87174723E+02   1.21696192E+03   1964.67626018    1.75741111E-02   4.48654296E+21   8.22706113E+05   6.28688884E+05   2.33936174E+05   0.25473467      
  94               2.30789634E+02   1.37928035E+03   2028.09242785    1.92983144E-02   4.92595731E+21   7.92216543E+05   6.59179295E+05   2.06063622E+05   0.25246819      
  95               2.84567566E+02   1.56858270E+03   2094.69443300    2.12580619E-02   5.42391134E+21   7.52375986E+05   6.99026721E+05   1.76507519E+05   0.25026342      
  96               3.50876675E+02   1.78325603E+03   2162.75549211    2.34370950E-02   5.97216939E+21   6.80487752E+05   7.70965875E+05   1.46091145E+05   0.24783508      
  97               4.32636941E+02   2.01445134E+03   2228.68045622    2.56920162E-02   6.54688658E+21   6.19913788E+05   8.31666277E+05   1.16297156E+05   0.24566106      
  98               5.33448747E+02   2.28631841E+03   2298.89909264    2.82677825E-02   7.20348481E+21   5.58979322E+05   8.92968059E+05   8.43955629E+04   0.24339181      
  99               6.57751428E+02   2.56560166E+03   2363.80607662    3.08562440E-02   7.86146024E+21   4.64089345E+05   9.89072168E+05   5.44900656E+04   0.24136362      
  100              8.11018759E+02   2.83201912E+03   2420.78904403    3.32577772E-02   8.47354374E+21   4.00290685E+05   1.05457008E+06   2.81907082E+04   0.23913299      
  101              1.00000000E+03   3.14040986E+03   2480.88727389    3.59831238E-02   9.16864464E+21   3.83242235E+05   1.07242579E+06   0.00000000E+00   0.2372477       
