# ATMO pressure-temperature profile
# Effective temperature = 1500.0K
# log(g) = 2.5cm/s^2
# M/H = 0.0
# Optical depth grid in band 17 (1.20-1.33microns)
# All parameters in cgs units
#
# Model Level      Optical Depth    Pressure         Temperature      Density          Number Density   Rad Flux         Conv Flux        Radial Extension Adiabatic Gradient
#                                   [Ba]             [K]              [g/cm^3]         [/cm^3]          [ergs/s/cm^2/sr] [ergs/s/cm^2/sr] [cm]             [K/Ba]          
  1                1.00000000E-04   1.00000000E-05   394.00572163     7.19568624E-10   1.83832931E+14   2.87040581E+08   0.00000000E+00   1.90881747E+09   0.29801046      
  2                1.17489755E-04   2.74235741E-05   495.31420738     1.56971599E-09   4.01022841E+14   2.87040581E+08   0.00000000E+00   1.85697427E+09   0.29767241      
  3                1.38038426E-04   4.57728552E-05   531.60228586     2.44117461E-09   6.23658726E+14   2.87040580E+08   0.00000000E+00   1.82733215E+09   0.29727079      
  4                1.62181010E-04   6.63994044E-05   556.74431221     3.38131578E-09   8.63841838E+14   2.87040579E+08   0.00000000E+00   1.80462910E+09   0.29697937      
  5                1.90546072E-04   8.99063112E-05   575.25288869     4.43106535E-09   1.13202811E+15   2.87040579E+08   0.00000000E+00   1.78542479E+09   0.29661416      
  6                2.23872114E-04   1.16847477E-04   592.38746345     5.59228820E-09   1.42869433E+15   2.87040578E+08   0.00000000E+00   1.76831016E+09   0.29681209      
  7                2.63026799E-04   1.47807330E-04   606.73188607     6.90675116E-09   1.76451353E+15   2.87040578E+08   0.00000000E+00   1.75255701E+09   0.29657118      
  8                3.09029543E-04   1.83444785E-04   621.13439406     8.37325048E-09   2.13917164E+15   2.87040578E+08   0.00000000E+00   1.73773787E+09   0.29642263      
  9                3.63078055E-04   2.24526169E-04   633.47585919     1.00486831E-08   2.56721793E+15   2.87040577E+08   0.00000000E+00   1.72357525E+09   0.29618806      
  10               4.26579519E-04   2.71960836E-04   646.31834416     1.19296518E-08   3.04779480E+15   2.87040577E+08   0.00000000E+00   1.70987503E+09   0.29604661      
  11               5.01187234E-04   3.26792269E-04   657.45785127     1.40919272E-08   3.60022544E+15   2.87040577E+08   0.00000000E+00   1.69650197E+09   0.29580483      
  12               5.88843655E-04   3.90218382E-04   669.48676191     1.65244445E-08   4.22174083E+15   2.87040577E+08   0.00000000E+00   1.68335821E+09   0.29566131      
  13               6.91830971E-04   4.63612182E-04   680.10557739     1.93257067E-08   4.93746854E+15   2.87040578E+08   0.00000000E+00   1.67037063E+09   0.29540873      
  14               8.12830516E-04   5.48552065E-04   691.84112576     2.24782428E-08   5.74298021E+15   2.87040578E+08   0.00000000E+00   1.65748331E+09   0.29526136      
  15               9.54992586E-04   6.46846501E-04   702.35181426     2.61091610E-08   6.67071466E+15   2.87040579E+08   0.00000000E+00   1.64465258E+09   0.29499361      
  16               1.12201845E-03   7.60570197E-04   714.13778610     3.01923960E-08   7.71406210E+15   2.87040580E+08   0.00000000E+00   1.63184386E+09   0.29483773      
  17               1.31825674E-03   8.92097150E-04   724.80361416     3.48921436E-08   8.91492392E+15   2.87040581E+08   0.00000000E+00   1.61902935E+09   0.29455179      
  18               1.54881662E-03   1.04413875E-03   736.90002657     4.01679580E-08   1.02630272E+16   2.87040583E+08   0.00000000E+00   1.60618657E+09   0.29438574      
  19               1.81970086E-03   1.21977840E-03   748.00478274     4.62277106E-08   1.18114279E+16   2.87040586E+08   0.00000000E+00   1.59329721E+09   0.29407825      
  20               2.13796209E-03   1.42252005E-03   760.70871940     5.30103806E-08   1.35445894E+16   2.87040590E+08   0.00000000E+00   1.58034597E+09   0.29389615      
  21               2.51188643E-03   1.65648558E-03   772.50818947     6.07856859E-08   1.55313929E+16   2.87040595E+08   0.00000000E+00   1.56731218E+09   0.29356004      
  22               2.95120923E-03   1.92644378E-03   785.96835290     6.94808564E-08   1.77532194E+16   2.87040601E+08   0.00000000E+00   1.55417616E+09   0.29335745      
  23               3.46736850E-03   2.23783772E-03   798.52412584     7.94420824E-08   2.02986141E+16   2.87040609E+08   0.00000000E+00   1.54092200E+09   0.29299065      
  24               4.07380278E-03   2.59684506E-03   812.83528103     9.05631993E-08   2.31403185E+16   2.87040618E+08   0.00000000E+00   1.52753750E+09   0.29276328      
  25               4.78630092E-03   3.01041312E-03   826.37261243     1.03266376E-07   2.63861497E+16   2.87040628E+08   0.00000000E+00   1.51401391E+09   0.29235551      
  26               5.62341325E-03   3.48633556E-03   841.85829875     1.17393199E-07   2.99954946E+16   2.87040640E+08   0.00000000E+00   1.50034494E+09   0.29209543      
  27               6.60693448E-03   4.03336965E-03   856.62427391     1.33471209E-07   3.41038562E+16   2.87040654E+08   0.00000000E+00   1.48652523E+09   0.29163961      
  28               7.76247117E-03   4.66128556E-03   873.45922923     1.51275964E-07   3.86535077E+16   2.87040670E+08   0.00000000E+00   1.47255116E+09   0.29134016      
  29               9.12010839E-03   5.38076751E-03   889.71663033     1.71434070E-07   4.38044628E+16   2.87040687E+08   0.00000000E+00   1.45842297E+09   0.29082847      
  30               1.07151931E-02   6.20344338E-03   908.29531724     1.93601192E-07   4.94688241E+16   2.87040707E+08   0.00000000E+00   1.44414304E+09   0.29047862      
  31               1.25892541E-02   7.14182152E-03   926.48279865     2.18510459E-07   5.58338366E+16   2.87040729E+08   0.00000000E+00   1.42971565E+09   0.28989838      
  32               1.47910839E-02   8.21082332E-03   946.96883202     2.45781956E-07   6.28024898E+16   2.87040752E+08   0.00000000E+00   1.41512860E+09   0.28950302      
  33               1.73780083E-02   9.42775007E-03   967.09377055     2.76335895E-07   7.06098542E+16   2.87040775E+08   0.00000000E+00   1.40036233E+09   0.28884607      
  34               2.04173794E-02   1.08112945E-02   989.78847349     3.09622179E-07   7.91154215E+16   2.87040797E+08   0.00000000E+00   1.38540485E+09   0.28818387      
  35               2.39883292E-02   1.23810799E-02   1012.51326988    3.46620128E-07   8.85693879E+16   2.87040817E+08   0.00000000E+00   1.37025189E+09   0.28711184      
  36               2.81838293E-02   1.41573688E-02   1038.22814533    3.86531590E-07   9.87678470E+16   2.87040834E+08   0.00000000E+00   1.35490592E+09   0.28630887      
  37               3.31131121E-02   1.61605326E-02   1064.20345052    4.30452950E-07   1.09990923E+17   2.87040846E+08   0.00000000E+00   1.33937629E+09   0.28519359      
  38               3.89045145E-02   1.84105761E-02   1093.41294866    4.77284471E-07   1.21957638E+17   2.87040853E+08   0.00000000E+00   1.32367847E+09   0.28438022      
  39               4.57088190E-02   2.09260441E-02   1123.18316613    5.28117097E-07   1.34946737E+17   2.87040855E+08   0.00000000E+00   1.30783446E+09   0.28343277      
  40               5.37031796E-02   2.37270356E-02   1156.54954452    5.81530454E-07   1.48595302E+17   2.87040853E+08   0.00000000E+00   1.29185138E+09   0.28278897      
  41               6.30957344E-02   2.68398115E-02   1191.17092853    6.38701877E-07   1.63204157E+17   2.87040871E+08   0.00000000E+00   1.27569989E+09   0.28188271      
  42               7.41310241E-02   3.02817038E-02   1232.35626823    6.96524597E-07   1.77979453E+17   2.86791349E+08   2.50005183E+05   1.25938139E+09   0.28105574      
  43               8.70963590E-02   3.40672033E-02   1273.74496942    7.58134823E-07   1.93722400E+17   2.85913078E+08   1.12844789E+06   1.24290804E+09   0.27954088      
  44               1.02329299E-01   3.82257460E-02   1315.30515058    8.23803792E-07   2.10501545E+17   2.84458703E+08   2.58286320E+06   1.22626791E+09   0.27770831      
  45               1.20226443E-01   4.27858911E-02   1356.99202047    8.93776680E-07   2.28375298E+17   2.82405421E+08   4.63606538E+06   1.20946227E+09   0.27587228      
  46               1.41253754E-01   4.77718832E-02   1398.78482184    9.68172309E-07   2.47370149E+17   2.79736739E+08   7.30444877E+06   1.19251237E+09   0.27397346      
  47               1.65958691E-01   5.32194702E-02   1440.65677926    1.04753558E-06   2.67569039E+17   2.76474200E+08   1.05665987E+07   1.17540557E+09   0.27196035      
  48               1.94984460E-01   5.91398488E-02   1482.46816366    1.13135842E-06   2.88948653E+17   2.72619312E+08   1.44205686E+07   1.15820775E+09   0.26997913      
  49               2.29086765E-01   6.54311385E-02   1523.36911807    1.21830319E-06   3.11103695E+17   2.68230610E+08   1.88118957E+07   1.14126160E+09   0.26826671      
  50               2.69153480E-01   7.19224845E-02   1562.45947695    1.30655186E-06   3.33412408E+17   2.63367539E+08   2.36843132E+07   1.12499003E+09   0.26679914      
  51               3.16227766E-01   7.83400854E-02   1598.42969586    1.39173392E-06   3.54990181E+17   2.58178021E+08   2.89271884E+07   1.10993978E+09   0.26552096      
  52               3.71535229E-01   8.41224747E-02   1628.92056385    1.46791516E-06   3.74057162E+17   2.53218035E+08   3.41353028E+07   1.09714437E+09   0.26438967      
  53               4.36515832E-01   8.89835443E-02   1653.25922046    1.52983942E-06   3.89847350E+17   2.48908679E+08   3.84397844E+07   1.08688646E+09   0.26314233      
  54               5.12861384E-01   9.43499593E-02   1678.92282164    1.59724767E-06   4.07039751E+17   2.44055466E+08   4.29873967E+07   1.07603031E+09   0.26164769      
  55               6.02559586E-01   1.00279551E-01   1705.85057804    1.67075443E-06   4.25791742E+17   2.38503858E+08   4.85351075E+07   1.06455187E+09   0.25997752      
  56               7.07945784E-01   1.06805399E-01   1734.01192787    1.75047930E-06   4.46135689E+17   2.32142368E+08   5.48939495E+07   1.05248478E+09   0.25809826      
  57               8.31763771E-01   1.13946069E-01   1763.13064195    1.83653407E-06   4.68102213E+17   2.24864758E+08   6.21745372E+07   1.03989083E+09   0.25596115      
  58               9.77237221E-01   1.21686433E-01   1792.98012916    1.92846412E-06   4.91578095E+17   2.16670826E+08   7.03683516E+07   1.02688443E+09   0.25356476      
  59               1.14815362E+00   1.29948860E-01   1822.97361977    2.02530285E-06   5.16318789E+17   2.07968229E+08   7.90404179E+07   1.01366362E+09   0.25103246      
  60               1.34896288E+00   1.38828262E-01   1853.39550264    2.12789592E-06   5.42544819E+17   1.99341180E+08   8.76386894E+07   1.00013776E+09   0.24829015      
  61               1.58489319E+00   1.48601956E-01   1884.81617074    2.23937008E-06   5.71059508E+17   1.90601639E+08   9.63711649E+07   9.85979097E+08   0.24516744      
  62               1.86208714E+00   1.59347476E-01   1917.21787885    2.36025102E-06   6.02004252E+17   1.81433621E+08   1.05531752E+08   9.71198656E+08   0.24166932      
  63               2.18776162E+00   1.71150269E-01   1950.39445101    2.49135599E-06   6.35595732E+17   1.71784304E+08   1.15171440E+08   9.55806832E+08   0.23787149      
  64               2.57039578E+00   1.84104636E-01   1984.34525522    2.63331692E-06   6.72006273E+17   1.61675327E+08   1.25269021E+08   9.39813111E+08   0.23372398      
  65               3.01995172E+00   1.98315031E-01   2018.84196577    2.78714969E-06   7.11506952E+17   1.51180393E+08   1.35753120E+08   9.23225737E+08   0.22917047      
  66               3.54813389E+00   2.13898143E-01   2053.86786696    2.95369562E-06   7.54328215E+17   1.40433902E+08   1.46488971E+08   9.06050812E+08   0.22423218      
  67               4.16869383E+00   2.30986122E-01   2089.19797882    3.13424165E-06   8.00814872E+17   1.29618772E+08   1.57293439E+08   8.88290698E+08   0.21907249      
  68               4.89778819E+00   2.49725470E-01   2124.86971263    3.32980396E-06   8.51248524E+17   1.18882760E+08   1.68020013E+08   8.69947140E+08   0.21381567      
  69               5.75439937E+00   2.70277408E-01   2160.68900952    3.54187122E-06   9.06031552E+17   1.08326625E+08   1.78568301E+08   8.51022300E+08   0.20844372      
  70               6.76082975E+00   2.92819259E-01   2196.68651987    3.77168843E-06   9.65511370E+17   9.80426885E+07   1.88844492E+08   8.31518872E+08   0.20297921      
  71               7.94328235E+00   3.17545581E-01   2232.66676667    4.02102343E-06   1.03016788E+18   8.81240156E+07   1.98755586E+08   8.11440458E+08   0.19752076      
  72               9.33254301E+00   3.44668785E-01   2268.69415027    4.29129945E-06   1.10040319E+18   7.86470260E+07   2.08226535E+08   7.90792133E+08   0.19203573      
  73               1.09647820E+01   3.74419838E-01   2304.55213110    4.58460754E-06   1.17678779E+18   6.96750014E+07   2.17194685E+08   7.69581005E+08   0.18641839      
  74               1.28824955E+01   4.07043153E-01   2340.25625405    4.90295360E-06   1.25980370E+18   6.13654346E+07   2.25502158E+08   7.47820580E+08   0.18094308      
  75               1.51356125E+01   4.42820395E-01   2375.69900954    5.24809429E-06   1.35008788E+18   5.38719426E+07   2.32995040E+08   7.25516482E+08   0.17583832      
  76               1.77827941E+01   4.82067577E-01   2411.01816820    5.62228366E-06   1.44821579E+18   4.72097061E+07   2.39657714E+08   7.02667910E+08   0.171013        
  77               2.08929613E+01   5.25119687E-01   2446.07171523    6.02827277E-06   1.55494472E+18   4.12944647E+07   2.45575042E+08   6.79282254E+08   0.16635034      
  78               2.45470892E+01   5.72334470E-01   2480.94436656    6.46833880E-06   1.67093177E+18   3.60265081E+07   2.50846083E+08   6.55371499E+08   0.16196274      
  79               2.88403150E+01   6.24071682E-01   2515.52080992    6.94519194E-06   1.79693514E+18   3.13804558E+07   2.55495365E+08   6.30961222E+08   0.15796081      
  80               3.38844156E+01   6.80755918E-01   2549.95417318    7.46128390E-06   1.93368127E+18   2.73628030E+07   2.59516213E+08   6.06059939E+08   0.15423992      
  81               3.98107171E+01   7.42840635E-01   2584.11139013    8.02010997E-06   2.08214160E+18   2.38667236E+07   2.63016013E+08   5.80679678E+08   0.15071531      
  82               4.67735141E+01   8.10810302E-01   2618.11219435    8.62444073E-06   2.24314240E+18   2.08293128E+07   2.66057454E+08   5.54835193E+08   0.14741893      
  83               5.49540874E+01   8.85182448E-01   2651.83669762    9.27809403E-06   2.41775259E+18   1.81943600E+07   2.68696540E+08   5.28543185E+08   0.14440972      
  84               6.45654229E+01   9.66508594E-01   2685.43968318    9.98392242E-06   2.60685069E+18   1.59143765E+07   2.70980093E+08   5.01821827E+08   0.14166314      
  85               7.58577575E+01   1.05537144E+00   2718.79082572    1.07461038E-05   2.81161196E+18   1.39227796E+07   2.72975814E+08   4.74691669E+08   0.13907572      
  86               8.91250938E+01   1.15238889E+00   2752.00334133    1.15678442E-05   3.03302469E+18   1.21891484E+07   2.74714629E+08   4.47174340E+08   0.13665179      
  87               1.04712855E+02   1.25821647E+00   2784.95101308    1.24537182E-05   3.27237936E+18   1.06804095E+07   2.76229787E+08   4.19291879E+08   0.13444681      
  88               1.23026877E+02   1.37354890E+00   2817.78344207    1.34069629E-05   3.53071248E+18   9.37301722E+06   2.77545230E+08   3.91066185E+08   0.13248486      
  89               1.44543977E+02   1.49912209E+00   2850.39061511    1.44324623E-05   3.80941656E+18   8.23605289E+06   2.78691630E+08   3.62518608E+08   0.13076588      
  90               1.69824365E+02   1.63571661E+00   2882.93355021    1.55335474E-05   4.10959735E+18   7.24684088E+06   2.79693360E+08   3.33669301E+08   0.12920442      
  91               1.99526231E+02   1.78416695E+00   2915.26565052    1.67158762E-05   4.43285162E+18   6.38363527E+06   2.80573147E+08   3.04536064E+08   0.12778571      
  92               2.34422882E+02   1.94537156E+00   2947.55436183    1.79831397E-05   4.78042577E+18   5.63322944E+06   2.81345605E+08   2.75133344E+08   0.12647933      
  93               2.75422870E+02   2.12029618E+00   2979.64385823    1.93418991E-05   5.15416138E+18   4.97759553E+06   2.82030130E+08   2.45473027E+08   0.12529782      
  94               3.23593657E+02   2.30997977E+00   3011.71970525    2.07961723E-05   5.55545285E+18   4.40480996E+06   2.82640401E+08   2.15564461E+08   0.12421772      
  95               3.80189396E+02   2.51551407E+00   3043.61356227    2.23533400E-05   5.98636345E+18   3.89916596E+06   2.83193823E+08   1.85418559E+08   0.12323197      
  96               4.46683592E+02   2.73803351E+00   3075.50860938    2.40173785E-05   6.44833588E+18   3.45329890E+06   2.83699329E+08   1.55048844E+08   0.12232406      
  97               5.24807460E+02   2.97877269E+00   3107.22852937    2.57966097E-05   6.94368494E+18   3.05867420E+06   2.84166692E+08   1.24463791E+08   0.12151137      
  98               6.16595002E+02   3.23907519E+00   3138.98067645    2.76955579E-05   7.47408835E+18   2.71103701E+06   2.84601488E+08   9.36674956E+07   0.12078374      
  99               7.24435960E+02   3.52040306E+00   3170.58882594    2.97240149E-05   8.04226361E+18   2.40399241E+06   2.85011183E+08   6.26604596E+07   0.12016507      
  100              8.51138038E+02   3.82435077E+00   3202.28499167    3.18870391E-05   8.65014882E+18   2.13445893E+06   2.85400748E+08   3.14396396E+07   0.11963849      
  101              1.00000000E+03   4.15264782E+00   3233.88618149    3.41961148E-05   9.30092644E+18   2.00449628E+06   2.85619678E+08   0.00000000E+00   0.11919911      
