# ATMO pressure-temperature profile
# Effective temperature = 1500.0K
# log(g) = 5.5cm/s^2
# M/H = 0.0
# Optical depth grid in band 17 (1.20-1.33microns)
# All parameters in cgs units
#
# Model Level      Optical Depth    Pressure         Temperature      Density          Number Density   Rad Flux         Conv Flux        Radial Extension Adiabatic Gradient
#                                   [Ba]             [K]              [g/cm^3]         [/cm^3]          [ergs/s/cm^2/sr] [ergs/s/cm^2/sr] [cm]             [K/Ba]          
  1                1.00000000E-07   1.00000000E-05   470.85945434     6.01805036E-10   1.53827699E+14   2.87038332E+08   0.00000000E+00   2.33932062E+06   0.2975624       
  2                1.25892541E-07   2.84245930E-05   488.82249354     1.64774579E-09   4.21181137E+14   2.87038332E+08   0.00000000E+00   2.28081132E+06   0.29762808      
  3                1.58489319E-07   5.09427829E-05   508.34444391     2.83969517E-09   7.25855921E+14   2.87038332E+08   0.00000000E+00   2.24789187E+06   0.29775168      
  4                1.99526231E-07   7.88171596E-05   509.74768561     4.38139777E-09   1.11993123E+15   2.87038332E+08   0.00000000E+00   2.22290206E+06   0.29772423      
  5                2.51188643E-07   1.13437902E-04   525.60197985     6.11573062E-09   1.56324494E+15   2.87038332E+08   0.00000000E+00   2.20175228E+06   0.29781383      
  6                3.16227766E-07   1.56452811E-04   526.57800647     8.41914192E-09   2.15202095E+15   2.87038332E+08   0.00000000E+00   2.18279566E+06   0.29778907      
  7                3.98107171E-07   2.09952207E-04   541.50036887     1.09867401E-08   2.80832604E+15   2.87038332E+08   0.00000000E+00   2.16520506E+06   0.2978582       
  8                5.01187234E-07   2.76474059E-04   542.72541786     1.44351535E-08   3.68977655E+15   2.87038332E+08   0.00000000E+00   2.14850111E+06   0.29881153      
  9                6.30957344E-07   3.59232973E-04   557.19928594     1.82689176E-08   4.66972688E+15   2.87038332E+08   0.00000000E+00   2.13238547E+06   0.29868517      
  10               7.94328235E-07   4.62153675E-04   558.75147424     2.34376963E-08   5.99092067E+15   2.87038332E+08   0.00000000E+00   2.11665691E+06   0.29872332      
  11               1.00000000E-06   5.90192163E-04   572.94297425     2.91896723E-08   7.46118623E+15   2.87038331E+08   0.00000000E+00   2.10117700E+06   0.29858846      
  12               1.25892541E-06   7.49420056E-04   574.75225796     3.69480755E-08   9.44431502E+15   2.87038331E+08   0.00000000E+00   2.08584465E+06   0.29862233      
  13               1.58489319E-06   9.47469481E-04   588.82236549     4.55961481E-08   1.16548522E+16   2.87038331E+08   0.00000000E+00   2.07058609E+06   0.29847688      
  14               1.99526231E-06   1.19370619E-03   590.89535238     5.72445461E-08   1.46323039E+16   2.87038331E+08   0.00000000E+00   2.05534480E+06   0.29850529      
  15               2.51188643E-06   1.49983937E-03   605.06839454     7.02404877E-08   1.79542025E+16   2.87038331E+08   0.00000000E+00   2.04007795E+06   0.29834848      
  16               3.16227766E-06   1.88025985E-03   607.45073180     8.77110015E-08   2.24198474E+16   2.87038331E+08   0.00000000E+00   2.02475144E+06   0.29837123      
  17               3.98107171E-06   2.35290832E-03   621.86280114     1.07215565E-07   2.74054077E+16   2.87038331E+08   0.00000000E+00   2.00933861E+06   0.29820102      
  18               5.01187234E-06   2.93995383E-03   624.45650770     1.33409191E-07   3.41007675E+16   2.87038331E+08   0.00000000E+00   1.99381653E+06   0.29821519      
  19               6.30957344E-06   3.66924706E-03   639.02524218     1.62707067E-07   4.15896036E+16   2.87038331E+08   0.00000000E+00   1.97816323E+06   0.29803452      
  20               7.94328235E-06   4.57522966E-03   641.70954632     2.02032803E-07   5.16416653E+16   2.87038331E+08   0.00000000E+00   1.96236146E+06   0.2980412       
  21               1.00000000E-05   5.70088841E-03   656.33399123     2.46130638E-07   6.29134473E+16   2.87038331E+08   0.00000000E+00   1.94639851E+06   0.29784651      
  22               1.25892541E-05   7.09930769E-03   659.07932531     3.05229408E-07   7.80196775E+16   2.87038331E+08   0.00000000E+00   1.93026453E+06   0.29784721      
  23               1.58489319E-05   8.83657562E-03   673.87322046     3.71581483E-07   9.49798852E+16   2.87038331E+08   0.00000000E+00   1.91395181E+06   0.2976402       
  24               1.99526231E-05   1.09942066E-02   676.71583071     4.60368713E-07   1.17674781E+17   2.87038332E+08   0.00000000E+00   1.89745510E+06   0.29763575      
  25               2.51188643E-05   1.36734717E-02   691.70340606     5.60156316E-07   1.43180780E+17   2.87038332E+08   0.00000000E+00   1.88077078E+06   0.29741281      
  26               3.16227766E-05   1.69993404E-02   694.69806658     6.93404027E-07   1.77240032E+17   2.87038332E+08   0.00000000E+00   1.86389525E+06   0.29740432      
  27               3.98107171E-05   2.11265710E-02   709.95946837     8.43230913E-07   2.15536733E+17   2.87038332E+08   0.00000000E+00   1.84682687E+06   0.29716497      
  28               5.01187234E-05   2.62454535E-02   713.09058719     1.04294283E-06   2.66584698E+17   2.87038332E+08   0.00000000E+00   1.82956564E+06   0.29711922      
  29               6.30957344E-05   3.25910176E-02   728.87710546     1.26705268E-06   3.23869053E+17   2.87038332E+08   0.00000000E+00   1.81210973E+06   0.29691216      
  30               7.94328235E-05   4.04510572E-02   732.42466054     1.56501302E-06   4.00030180E+17   2.87038332E+08   0.00000000E+00   1.79445876E+06   0.29688824      
  31               1.00000000E-04   5.01780119E-02   748.91353359     1.89860661E-06   4.85297005E+17   2.87038332E+08   0.00000000E+00   1.77661441E+06   0.29655995      
  32               1.25892541E-04   6.22008936E-02   753.24738627     2.33998071E-06   5.98115188E+17   2.87038332E+08   0.00000000E+00   1.75857656E+06   0.2965319       
  33               1.58489319E-04   7.70450378E-02   771.17170846     2.83104510E-06   7.23634766E+17   2.87038332E+08   0.00000000E+00   1.74033862E+06   0.2962316       
  34               1.99526231E-04   9.53483809E-02   776.96044929     3.47750433E-06   8.88874097E+17   2.87038331E+08   0.00000000E+00   1.72189173E+06   0.29621761      
  35               2.51188643E-04   1.17886488E-01   796.71387832     4.19290312E-06   1.07173518E+18   2.87038331E+08   0.00000000E+00   1.70322681E+06   0.29586252      
  36               3.16227766E-04   1.45594846E-01   804.50931786     5.12823777E-06   1.31081307E+18   2.87038331E+08   0.00000000E+00   1.68433083E+06   0.29574104      
  37               3.98107171E-04   1.79595521E-01   826.59462992     6.15681521E-06   1.57372470E+18   2.87038330E+08   0.00000000E+00   1.66519597E+06   0.29527368      
  38               5.01187234E-04   2.21207824E-01   836.82182180     7.49067040E-06   1.91466733E+18   2.87038331E+08   0.00000000E+00   1.64581911E+06   0.29514458      
  39               6.30957344E-04   2.72029154E-01   861.63313557     8.94636488E-06   2.28675111E+18   2.87038331E+08   0.00000000E+00   1.62618721E+06   0.2946588       
  40               7.94328235E-04   3.33906920E-01   874.86677374     1.08152585E-05   2.76445380E+18   2.87038333E+08   0.00000000E+00   1.60629454E+06   0.29444404      
  41               1.00000000E-03   4.08987140E-01   902.82607625     1.28369337E-05   3.28119014E+18   2.87038331E+08   0.00000000E+00   1.58614446E+06   0.29381385      
  42               1.25892541E-03   4.99701141E-01   919.65831087     1.53971073E-05   3.93558848E+18   2.87038334E+08   0.00000000E+00   1.56574005E+06   0.29345186      
  43               1.58489319E-03   6.08975852E-01   951.41860950     1.81379746E-05   4.63611574E+18   2.87038331E+08   0.00000000E+00   1.54506216E+06   0.29264948      
  44               1.99526231E-03   7.40138538E-01   972.67884264     2.15630843E-05   5.51149462E+18   2.87038333E+08   0.00000000E+00   1.52408915E+06   0.29214165      
  45               2.51188643E-03   8.96985529E-01   1008.97454950    2.51924037E-05   6.43918740E+18   2.87038323E+08   0.00000000E+00   1.50280844E+06   0.29119369      
  46               3.16227766E-03   1.08386976E+00   1035.38221971    2.96646144E-05   7.58232219E+18   2.87038326E+08   0.00000000E+00   1.48119029E+06   0.29052632      
  47               3.98107171E-03   1.30573093E+00   1076.81209448    3.43613324E-05   8.78293375E+18   2.87038311E+08   0.00000000E+00   1.45921538E+06   0.28941081      
  48               5.01187234E-03   1.56755462E+00   1108.83223791    4.00597776E-05   1.02395926E+19   2.87038314E+08   0.00000000E+00   1.43689921E+06   0.28854102      
  49               6.30957344E-03   1.87489279E+00   1155.35868696    4.59833926E-05   1.17539935E+19   2.87038296E+08   0.00000000E+00   1.41425475E+06   0.28715863      
  50               7.94328235E-03   2.23510734E+00   1192.53756883    5.31080694E-05   1.35753850E+19   2.87038306E+08   0.00000000E+00   1.39120424E+06   0.2859622       
  51               1.00000000E-02   2.65672866E+00   1243.59735862    6.05325581E-05   1.54736671E+19   2.87038291E+08   0.00000000E+00   1.36768907E+06   0.28422568      
  52               1.25892541E-02   3.14844229E+00   1285.09966434    6.94181370E-05   1.77453580E+19   2.87038288E+08   0.00000000E+00   1.34370177E+06   0.2826935       
  53               1.58489319E-02   3.71985709E+00   1339.57591969    7.86796223E-05   2.01133663E+19   2.87038284E+08   0.00000000E+00   1.31925148E+06   0.28069112      
  54               1.99526231E-02   4.38346747E+00   1384.07699352    8.97335098E-05   2.29394699E+19   2.87038263E+08   0.00000000E+00   1.29427651E+06   0.27896842      
  55               2.51188643E-02   5.15752232E+00   1441.10078240    1.01399054E-04   2.59222445E+19   2.87038261E+08   0.00000000E+00   1.26861525E+06   0.27686181      
  56               3.16227766E-02   6.06594220E+00   1488.16499879    1.15483895E-04   2.95238521E+19   2.87038236E+08   0.00000000E+00   1.24206859E+06   0.27494583      
  57               3.98107171E-02   7.13970029E+00   1547.56424928    1.30705435E-04   3.34162055E+19   2.87038211E+08   0.00000000E+00   1.21443078E+06   0.27264178      
  58               5.01187234E-02   8.39040043E+00   1596.92482291    1.48866768E-04   3.80560804E+19   2.87038214E+08   0.00000000E+00   1.18607669E+06   0.27063985      
  59               6.30957344E-02   9.80972783E+00   1657.45964766    1.67744186E-04   4.28686526E+19   2.87038162E+08   0.00000000E+00   1.15767266E+06   0.26843465      
  60               7.94328235E-02   1.13510537E+01   1707.40782139    1.88444551E-04   4.81531554E+19   2.86992524E+08   0.00000000E+00   1.13025789E+06   0.26647814      
  61               1.00000000E-01   1.29126292E+01   1766.13127483    2.07324533E-04   5.29562885E+19   2.86524397E+08   5.25372183E+05   1.10527384E+06   0.26431208      
  62               1.25892541E-01   1.43074805E+01   1815.13042238    2.23826026E-04   5.70927767E+19   2.80969263E+08   6.04880493E+06   1.08479512E+06   0.26236231      
  63               1.58489319E-01   1.54613717E+01   1851.60662513    2.37110552E-04   6.04818596E+19   2.74447659E+08   1.25627711E+07   1.06895587E+06   0.26039919      
  64               1.99526231E-01   1.67936046E+01   1892.46113563    2.51971651E-04   6.42751049E+19   2.66395091E+08   2.06182948E+07   1.05172015E+06   0.2590336       
  65               2.51188643E-01   1.79248954E+01   1923.89490575    2.64628052E-04   6.74840478E+19   2.57408345E+08   2.96115187E+07   1.03786538E+06   0.25742278      
  66               3.16227766E-01   1.88265725E+01   1948.95844592    2.74359866E-04   6.99672043E+19   2.48677138E+08   3.83487924E+07   1.02728325E+06   0.25640934      
  67               3.98107171E-01   1.98925376E+01   1975.96874530    2.85924841E-04   7.29182029E+19   2.38869461E+08   4.81590693E+07   1.01524795E+06   0.25494084      
  68               5.01187234E-01   2.11425235E+01   2007.46710194    2.99103121E-04   7.62841348E+19   2.26619812E+08   6.04109264E+07   1.00173130E+06   0.25445621      
  69               6.30957344E-01   2.21107692E+01   2029.84843816    3.09611533E-04   7.88980154E+19   2.14152016E+08   7.28810853E+07   9.91668585E+05   0.25351389      
  70               7.94328235E-01   2.28466262E+01   2047.30933386    3.17180347E-04   8.08284870E+19   2.03403356E+08   8.36307072E+07   9.84242980E+05   0.25315359      
  71               1.00000000E+00   2.37334468E+01   2066.57064964    3.26413592E-04   8.31833483E+19   1.93114381E+08   9.39197121E+07   9.75527352E+05   0.25190897      
  72               1.25892541E+00   2.47952210E+01   2089.96154326    3.37188694E-04   8.59321203E+19   1.82888078E+08   1.04146019E+08   9.65406624E+05   0.25131681      
  73               1.58489319E+00   2.60621334E+01   2115.76124158    3.50081644E-04   8.92214231E+19   1.72412114E+08   1.14621902E+08   9.53745896E+05   0.24962059      
  74               1.99526231E+00   2.75642971E+01   2145.93351468    3.65034568E-04   9.30371716E+19   1.61654605E+08   1.25379269E+08   9.40457701E+05   0.24880393      
  75               2.51188643E+00   2.93341489E+01   2178.94803262    3.82562248E-04   9.75107416E+19   1.50330917E+08   1.36702765E+08   9.25480889E+05   0.24669637      
  76               3.16227766E+00   3.14072449E+01   2216.15731567    4.02688199E-04   1.02649088E+20   1.38750029E+08   1.48283390E+08   9.08778268E+05   0.24514368      
  77               3.98107171E+00   3.38221080E+01   2256.33896272    4.25884399E-04   1.08573083E+20   1.26863526E+08   1.60169617E+08   8.90338175E+05   0.24282742      
  78               5.01187234E+00   3.66212781E+01   2300.37719695    4.52243930E-04   1.15308224E+20   1.14994314E+08   1.72038562E+08   8.70168529E+05   0.24081817      
  79               6.30957344E+00   3.98506777E+01   2347.25392239    4.82268254E-04   1.22970653E+20   1.03151800E+08   1.83880819E+08   8.48300690E+05   0.23799993      
  80               7.94328235E+00   4.35630666E+01   2397.40681754    5.16064466E-04   1.31614139E+20   9.19692992E+07   1.95063117E+08   8.24768676E+05   0.23556884      
  81               1.00000000E+01   4.78179980E+01   2450.23516674    5.54122859E-04   1.41354442E+20   8.13680835E+07   2.05664186E+08   7.99606979E+05   0.23229967      
  82               1.25892541E+01   5.26825577E+01   2505.64065047    5.96819786E-04   1.52290883E+20   7.16502712E+07   2.15381881E+08   7.72857104E+05   0.22951755      
  83               1.58489319E+01   5.82343109E+01   2563.61426213    6.44566043E-04   1.64532653E+20   6.26327317E+07   2.24399335E+08   7.44551121E+05   0.22577137      
  84               1.99526231E+01   6.45664619E+01   2623.39989323    6.98073956E-04   1.78265923E+20   5.47722331E+07   2.32259759E+08   7.14699304E+05   0.22267714      
  85               2.51188643E+01   7.17852003E+01   2685.87147167    7.57687553E-04   1.93586706E+20   4.77411398E+07   2.39290852E+08   6.83310832E+05   0.21855913      
  86               3.16227766E+01   8.00146171E+01   2749.33037025    8.24577891E-04   2.10798852E+20   4.16081142E+07   2.45424005E+08   6.50386781E+05   0.21524413      
  87               3.98107171E+01   8.93961400E+01   2815.75858205    8.98905170E-04   2.29958353E+20   3.60831515E+07   2.50949181E+08   6.15927467E+05   0.21102585      
  88               5.01187234E+01   1.00093580E+02   2882.35370372    9.82462652E-04   2.51527103E+20   3.10072952E+07   2.56025382E+08   5.79930057E+05   0.20639866      
  89               6.30957344E+01   1.12295371E+02   2951.47133448    1.07545791E-03   2.75580908E+20   2.68201244E+07   2.60212989E+08   5.42391623E+05   0.20374544      
  90               7.94328235E+01   1.26208532E+02   3021.77141151    1.17940427E-03   3.02519203E+20   2.28816378E+07   2.64152142E+08   5.03325023E+05   0.19908082      
  91               1.00000000E+02   1.42057006E+02   3092.89773640    1.29554291E-03   3.32677122E+20   1.95813659E+07   2.67453630E+08   4.62779912E+05   0.19554643      
  92               1.25892541E+02   1.60051303E+02   3165.46018881    1.42443253E-03   3.66225177E+20   1.67271571E+07   2.70310368E+08   4.20891202E+05   0.19219588      
  93               1.58489319E+02   1.80416220E+02   3238.31094257    1.56746464E-03   4.03536546E+20   1.42138698E+07   2.72828563E+08   3.77791724E+05   0.189021        
  94               1.99526231E+02   2.03395600E+02   3312.15858571    1.72520358E-03   4.44791287E+20   1.20326883E+07   2.75019075E+08   3.33601227E+05   0.18607664      
  95               2.51188643E+02   2.29256184E+02   3385.94150282    1.89925171E-03   4.90419182E+20   1.01320037E+07   2.76936618E+08   2.88422232E+05   0.18347945      
  96               3.16227766E+02   2.58292403E+02   3460.59856834    2.09017483E-03   5.40612706E+20   8.52712507E+06   2.78571097E+08   2.42336391E+05   0.18110805      
  97               3.98107171E+02   2.90830313E+02   3535.01829785    2.29995704E-03   5.95900630E+20   7.18674340E+06   2.79961259E+08   1.95406622E+05   0.17898307      
  98               5.01187234E+02   3.27227981E+02   3610.27326682    2.52921240E-03   6.56502216E+20   6.06199516E+06   2.81167062E+08   1.47683237E+05   0.1769425       
  99               6.30957344E+02   3.67884192E+02   3685.12952365    2.78043939E-03   7.23076437E+20   5.09082609E+06   2.82265003E+08   9.92004573E+04   0.17508057      
  100              7.94328235E+02   4.13247892E+02   3760.85475230    3.05433714E-03   7.95884278E+20   4.26286160E+06   2.83285410E+08   4.99734420E+04   0.17341252      
  101              1.00000000E+03   4.63826826E+02   3836.24264371    3.35400597E-03   8.75740902E+20   3.86129381E+06   2.83838230E+08   0.00000000E+00   0.17188863      
