# ATMO pressure-temperature profile
# Effective temperature = 250.0K
# log(g) = 4.0cm/s^2
# M/H = 0.0
# Optical depth grid in band 17 (1.20-1.33microns)
# All parameters in cgs units
#
# Model Level      Optical Depth    Pressure         Temperature      Density          Number Density   Rad Flux         Conv Flux        Radial Extension Adiabatic Gradient
#                                   [Ba]             [K]              [g/cm^3]         [/cm^3]          [ergs/s/cm^2/sr] [ergs/s/cm^2/sr] [cm]             [K/Ba]          
  1                5.00000000E-05   1.00000000E-05   28.37040224      9.99316892E-09   2.55305603E+15   2.21420394E+05   0.00000000E+00   2.11315775E+07   0.34574353      
  2                5.91534807E-05   1.03752588E-04   34.09213132      8.62806667E-08   2.20429961E+16   2.21420394E+05   0.00000000E+00   2.08122952E+07   0.34574314      
  3                6.99826855E-05   2.14400789E-04   38.46814693      1.58013363E-07   4.03692753E+16   2.21420394E+05   0.00000000E+00   2.07175317E+07   0.3147936       
  4                8.27943887E-05   3.45016488E-04   40.25077965      2.43015656E-07   6.20856729E+16   2.21420394E+05   0.00000000E+00   2.06508770E+07   0.31480943      
  5                9.79515255E-05   4.99180086E-04   43.01776410      3.28986529E-07   8.40495238E+16   2.21420394E+05   0.00000000E+00   2.05963545E+07   0.3148224       
  6                1.15883473E-04   6.81105752E-04   44.12926964      4.37579033E-07   1.11792752E+17   2.21420394E+05   0.00000000E+00   2.05484058E+07   0.31483378      
  7                1.37098216E-04   8.95732163E-04   46.56131568      5.45408145E-07   1.39340949E+17   2.21420394E+05   0.00000000E+00   2.05044725E+07   0.31484417      
  8                1.62196734E-04   1.14888900E-03   47.44643348      6.86504191E-07   1.75388187E+17   2.21420394E+05   0.00000000E+00   2.04631004E+07   0.31485391      
  9                1.91890027E-04   1.44735415E-03   49.81256989      8.23767315E-07   2.10456190E+17   2.21420394E+05   0.00000000E+00   2.04234114E+07   0.31486322      
  10               2.27019260E-04   1.79913387E-03   50.62173843      1.00761614E-06   2.57425914E+17   2.21420394E+05   0.00000000E+00   2.03847995E+07   0.31487224      
  11               2.68579588E-04   2.21361395E-03   53.01561125      1.18376855E-06   3.02429359E+17   2.21420394E+05   0.00000000E+00   2.03468486E+07   0.31488108      
  12               3.17748350E-04   2.70166442E-03   53.83284237      1.42282924E-06   3.63504618E+17   2.21420394E+05   0.00000000E+00   2.03092428E+07   0.31488981      
  13               3.75918418E-04   3.27597572E-03   56.37384687      1.64752377E-06   4.20909611E+17   2.21420394E+05   0.00000000E+00   2.02717321E+07   0.31489849      
  14               4.44737657E-04   3.95155255E-03   57.26086877      1.95649397E-06   4.99845363E+17   2.21420394E+05   0.00000000E+00   2.02341033E+07   0.31490718      
  15               5.26155608E-04   4.74569051E-03   59.97926120      2.24319478E-06   5.73091728E+17   2.21420394E+05   0.00000000E+00   2.01961960E+07   0.3149159       
  16               6.22478712E-04   5.67823674E-03   60.99725499      2.63919748E-06   6.74262558E+17   2.21420394E+05   0.00000000E+00   2.01578694E+07   0.31492471      
  17               7.36435649E-04   6.77229105E-03   63.97832316      3.00103765E-06   7.66705539E+17   2.21420394E+05   0.00000000E+00   2.01189946E+07   0.31493362      
  18               8.71254639E-04   8.05496658E-03   65.17854470      3.50370687E-06   8.95127548E+17   2.21420394E+05   0.00000000E+00   2.00794382E+07   0.31494269      
  19               1.03075489E-03   9.55733437E-03   68.49232829      3.95606602E-06   1.01069633E+18   2.21420394E+05   0.00000000E+00   2.00390848E+07   0.31495192      
  20               1.21945479E-03   1.13148726E-02   69.99983183      4.58269917E-06   1.17078867E+18   2.21420395E+05   0.00000000E+00   1.99978074E+07   0.31496137      
  21               1.44269991E-03   1.33661934E-02   73.83966126      5.13200087E-06   1.31112435E+18   2.21420395E+05   0.00000000E+00   1.99555084E+07   0.31497105      
  22               1.70681442E-03   1.57498871E-02   75.91003587      5.88229665E-06   1.50281004E+18   2.21420033E+05   0.00000000E+00   1.99121240E+07   0.314981        
  23               2.01928028E-03   1.85113418E-02   80.37153286      6.52986679E-06   1.66825136E+18   2.21420395E+05   0.00000000E+00   1.98675674E+07   0.31499126      
  24               2.38894914E-03   2.17012988E-02   84.00435275      7.32407206E-06   1.87115505E+18   2.21411610E+05   0.00000000E+00   1.98214403E+07   0.31500187      
  25               2.82629313E-03   2.53902171E-02   88.30867271      8.15139104E-06   2.08251864E+18   2.21399326E+05   2.11563240E+01   1.97736976E+07   0.31501284      
  26               3.34370152E-03   2.96579804E-02   92.69048320      9.07141629E-06   2.31756683E+18   2.21378071E+05   4.23908861E+01   1.97240673E+07   0.31502421      
  27               3.95583167E-03   3.46010589E-02   97.35312116      1.00764645E-05   2.57433671E+18   2.21346601E+05   7.38486113E+01   1.96723654E+07   0.315036        
  28               4.68002425E-03   4.03325473E-02   102.11673653     1.11976630E-05   2.86078068E+18   2.21303968E+05   1.16479989E+02   1.96184082E+07   0.31504828      
  29               5.53679448E-03   4.69844974E-02   107.20347886     1.24255132E-05   3.17447233E+18   2.21252062E+05   1.68385456E+02   1.95620148E+07   0.31506114      
  30               6.55041330E-03   5.47100621E-02   112.41252859     1.37981535E-05   3.52515592E+18   2.21196123E+05   2.24317210E+02   1.95030134E+07   0.31507467      
  31               7.74959494E-03   6.36853674E-02   117.98467448     1.53031899E-05   3.90966818E+18   2.21143089E+05   2.77361050E+02   1.94412476E+07   0.315089        
  32               9.16831029E-03   7.41158329E-02   123.69646912     1.69871027E-05   4.33989808E+18   2.21098942E+05   3.21505509E+02   1.93765553E+07   0.31510424      
  33               1.08467493E-02   8.62415105E-02   129.81280747     1.88346062E-05   4.81198928E+18   2.21071157E+05   3.49281700E+02   1.93087649E+07   0.31693507      
  34               1.28324595E-02   1.00342653E-01   136.16263889     2.08909919E-05   5.33769139E+18   2.21067044E+05   3.53392917E+02   1.92376769E+07   0.32036535      
  35               1.51816929E-02   1.16743259E-01   143.03772301     2.31392852E-05   5.91162753E+18   2.21090734E+05   3.29700405E+02   1.91630826E+07   0.32266148      
  36               1.79609996E-02   1.35816552E-01   150.13341956     2.56474659E-05   6.55241148E+18   2.21143052E+05   2.77381887E+02   1.90847886E+07   0.32462319      
  37               2.12491128E-02   1.57996606E-01   157.80155755     2.83860923E-05   7.25207541E+18   2.21211151E+05   2.09292249E+02   1.90025856E+07   0.325944        
  38               2.51391797E-02   1.83791483E-01   165.69047355     3.14482857E-05   8.03440430E+18   2.21261183E+05   1.59255741E+02   1.89162516E+07   0.32549104      
  39               2.97413996E-02   2.13795031E-01   174.12635288     3.48098552E-05   8.89321811E+18   2.21238641E+05   1.81792227E+02   1.88255692E+07   0.32515493      
  40               3.51861462E-02   2.48693016E-01   182.81120957     3.85682370E-05   9.85341118E+18   2.21054036E+05   3.66401592E+02   1.87303259E+07   0.32486893      
  41               4.16276604E-02   2.89287933E-01   192.10136298     4.26941656E-05   1.09075123E+19   2.20575465E+05   8.44984896E+02   1.86302862E+07   0.32433754      
  42               4.92484201E-02   3.36424532E-01   201.63399349     4.73032690E-05   1.20850860E+19   2.19880311E+05   1.54012262E+03   1.85253975E+07   0.32309548      
  43               5.82643093E-02   3.91064621E-01   211.75300303     5.23578170E-05   1.33765707E+19   2.18730986E+05   2.68945895E+03   1.84156044E+07   0.32157208      
  44               6.89307339E-02   4.54343653E-01   222.08945929     5.79967574E-05   1.48177533E+19   2.16539657E+05   4.88078323E+03   1.83007713E+07   0.319295        
  45               8.15498567E-02   5.27645501E-01   233.00644564     6.41915429E-05   1.64021260E+19   2.12799699E+05   8.62083471E+03   1.81806350E+07   0.31736282      
  46               9.64791575E-02   6.12653511E-01   244.19199230     7.10908515E-05   1.81722770E+19   2.07501490E+05   1.39190140E+04   1.80547964E+07   0.31512251      
  47               1.14141560E-01   7.11325392E-01   256.00454482     7.87756617E-05   2.01254906E+19   2.01048419E+05   2.03722864E+04   1.79229432E+07   0.31329027      
  48               1.35037411E-01   8.25901882E-01   268.14491104     8.73230909E-05   2.23092380E+19   1.93862677E+05   2.75581482E+04   1.77847983E+07   0.31123382      
  49               1.59758657E-01   9.58835456E-01   280.93595861     9.67629113E-05   2.47208042E+19   1.86227376E+05   3.51934681E+04   1.76401825E+07   0.30965689      
  50               1.89005613E-01   1.11288259E+00   294.08764018     1.07286417E-04   2.74093298E+19   1.78337939E+05   4.30835361E+04   1.74889912E+07   0.30788083      
  51               2.23606798E-01   1.29128371E+00   307.89993683     1.18900650E-04   3.03765125E+19   1.70735005E+05   5.06866652E+04   1.73310363E+07   0.30657386      
  52               2.64542408E-01   1.49761558E+00   322.11426298     1.31814304E-04   3.36756690E+19   1.63923510E+05   5.74985272E+04   1.71662228E+07   0.30516208      
  53               3.12972084E-01   1.73584082E+00   336.99193303     1.46036875E-04   3.73092253E+19   1.58509444E+05   6.29129369E+04   1.69945208E+07   0.30418789      
  54               3.70267763E-01   2.01063720E+00   352.31075215     1.61800532E-04   4.13364956E+19   1.54963639E+05   6.64583174E+04   1.68157528E+07   0.30315824      
  55               4.38052539E-01   2.32759704E+00   368.33363319     1.79158964E-04   4.57711958E+19   1.53446577E+05   6.79836665E+04   1.66295891E+07   0.30245858      
  56               5.18246648E-01   2.69281477E+00   384.85735329     1.98371282E-04   5.06795245E+19   1.53515933E+05   6.79060094E+04   1.64358608E+07   0.30171647      
  57               6.13121862E-01   3.11271983E+00   402.09422991     2.19474656E-04   5.60709651E+19   1.54569764E+05   6.68560031E+04   1.62346183E+07   0.301296        
  58               7.25365844E-01   3.59390825E+00   419.82714163     2.42699366E-04   6.20043720E+19   1.55759364E+05   6.56659980E+04   1.60261267E+07   0.3008434       
  59               8.58158289E-01   4.14418020E+00   438.25042487     2.68094686E-04   6.84923592E+19   1.56213001E+05   6.52102502E+04   1.58104024E+07   0.30057284      
  60               1.01526100E+00   4.77244200E+00   457.18634818     2.95954503E-04   7.56089566E+19   1.54695462E+05   6.67266278E+04   1.55873607E+07   0.30028829      
  61               1.20112443E+00   5.48783615E+00   476.81107083     3.26311492E-04   8.33644032E+19   1.50012872E+05   7.14084165E+04   1.53571546E+07   0.30009722      
  62               1.42101382E+00   6.29976183E+00   496.91268786     3.59435972E-04   9.18268918E+19   1.40646432E+05   8.07759370E+04   1.51200776E+07   0.29990796      
  63               1.68115827E+00   7.21811024E+00   517.65707387     3.95331867E-04   1.00996703E+20   1.25371508E+05   9.60561808E+04   1.48764555E+07   0.29978349      
  64               1.98892727E+00   8.25648325E+00   538.88489361     4.34389718E-04   1.10974944E+20   1.11650741E+05   1.09777967E+05   1.46258834E+07   0.29961537      
  65               2.35303941E+00   9.43138212E+00   560.84530737     4.76772653E-04   1.21803029E+20   1.04916257E+05   1.16512799E+05   1.43677139E+07   0.29950049      
  66               2.78380943E+00   1.07587941E+01   583.34998159     5.22933225E-04   1.33585785E+20   9.93332362E+04   1.22096660E+05   1.41018654E+07   0.29936253      
  67               3.29344035E+00   1.22538986E+01   606.56919135     5.72803986E-04   1.46325418E+20   9.40812285E+04   1.27350140E+05   1.38286875E+07   0.29924798      
  68               3.89636920E+00   1.39307476E+01   630.24310445     6.26726948E-04   1.60100306E+20   8.91812823E+04   1.32251857E+05   1.35488205E+07   0.29902197      
  69               4.60967600E+00   1.58062647E+01   654.54386634     6.84703394E-04   1.74910682E+20   8.49946165E+04   1.36440894E+05   1.32625144E+07   0.29880146      
  70               5.45356761E+00   1.79075295E+01   679.35348249     7.47397751E-04   1.90926279E+20   8.13663756E+04   1.40070998E+05   1.29687808E+07   0.29847812      
  71               6.45195012E+00   2.02612118E+01   704.89678830     8.14988948E-04   2.08192809E+20   7.80350681E+04   1.43404422E+05   1.26672053E+07   0.29821509      
  72               7.63310614E+00   2.28927578E+01   730.97780404     8.87985035E-04   2.26840065E+20   7.47416546E+04   1.46688990E+05   1.23578680E+07   0.29780027      
  73               9.03049593E+00   2.58270283E+01   757.73334441     9.66428274E-04   2.46878846E+20   7.14807959E+04   1.50063867E+05   1.20411210E+07   0.29740008      
  74               1.06837053E+01   2.90910991E+01   784.96857575     1.05079816E-03   2.68431636E+20   6.83698790E+04   1.53193120E+05   1.17172179E+07   0.29680674      
  75               1.26395671E+01   3.27266916E+01   812.89859016     1.14150297E-03   2.91602722E+20   6.58965582E+04   1.55655965E+05   1.13852645E+07   0.29628162      
  76               1.49534878E+01   3.67923885E+01   841.53538996     1.23964560E-03   3.16673292E+20   6.42894334E+04   1.57241979E+05   1.10434835E+07   0.29554602      
  77               1.76910170E+01   4.13395872E+01   871.01108734     1.34572013E-03   3.43770252E+20   6.36979989E+04   1.57805262E+05   1.06914225E+07   0.29484709      
  78               2.09297047E+01   4.64098296E+01   901.17331046     1.46021069E-03   3.73016027E+20   6.40495533E+04   1.57422427E+05   1.03297264E+07   0.2938993       
  79               2.47612977E+01   5.20325513E+01   931.93770292     1.58308515E-03   4.04402730E+20   6.52774969E+04   1.56163209E+05   9.95990916E+06   0.29302679      
  80               2.92943389E+01   5.82310795E+01   963.12936479     1.71429666E-03   4.37921287E+20   6.69052578E+04   1.54520053E+05   9.58364446E+06   0.29189313      
  81               3.46572422E+01   6.50436230E+01   994.67220344     1.85413093E-03   4.73642410E+20   6.86337855E+04   1.52786420E+05   9.20152766E+06   0.29085486      
  82               4.10019301E+01   7.25513359E+01   1026.73539592    2.00356234E-03   5.11814657E+20   7.01274945E+04   1.51601075E+05   8.81200197E+06   0.28963265      
  83               4.85081376E+01   8.08270310E+01   1059.27173757    2.16354787E-03   5.52681695E+20   7.10606696E+04   1.50548864E+05   8.41451771E+06   0.28845992      
  84               5.73885036E+01   8.99310003E+01   1092.34914771    2.33436307E-03   5.96312330E+20   7.12832893E+04   1.50289611E+05   8.00941644E+06   0.28713194      
  85               6.78945948E+01   9.99107668E+01   1125.74367787    2.51654177E-03   6.42833668E+20   7.15115105E+04   1.50027791E+05   7.59766512E+06   0.28580473      
  86               8.03240320E+01   1.10819786E+02   1159.54130938    2.70995391E-03   6.92240370E+20   7.25151739E+04   1.48980653E+05   7.17992834E+06   0.28436835      
  87               9.50289215E+01   1.22727465E+02   1193.55379861    2.91561440E-03   7.44775881E+20   7.39141910E+04   1.47532494E+05   6.75630377E+06   0.28298757      
  88               1.12425830E+02   1.35737536E+02   1228.04004239    3.13413256E-03   8.00595737E+20   7.51093869E+04   1.46324133E+05   6.32591991E+06   0.28151856      
  89               1.33007583E+02   1.49998382E+02   1262.91722758    3.36776208E-03   8.60275442E+20   7.60996880E+04   1.45325915E+05   5.88696902E+06   0.28006648      
  90               1.57357229E+02   1.65630683E+02   1298.43948493    3.61700261E-03   9.23942445E+20   7.67197003E+04   1.44710710E+05   5.43907231E+06   0.27855461      
  91               1.86164557E+02   1.82732385E+02   1334.30491851    3.88320639E-03   9.91941992E+20   7.69480865E+04   1.44474935E+05   4.98275202E+06   0.27710502      
  92               2.20245630E+02   2.01384072E+02   1370.70372137    4.16593146E-03   1.06416107E+21   7.67589539E+04   1.44661932E+05   4.51902016E+06   0.2756006       
  93               2.60565913E+02   2.21675980E+02   1407.27457116    4.46653878E-03   1.14094744E+21   7.62850073E+04   1.45141235E+05   4.04860493E+06   0.27409596      
  94               3.08267614E+02   2.43742151E+02   1444.33409745    4.78514340E-03   1.22233097E+21   7.56362702E+04   1.45802947E+05   3.57130201E+06   0.27258079      
  95               3.64702046E+02   2.67749905E+02   1481.60823144    5.12422497E-03   1.30894616E+21   7.49579219E+04   1.46498811E+05   3.08647129E+06   0.27111406      
  96               4.31467909E+02   2.93977326E+02   1519.60878759    5.48547675E-03   1.40122500E+21   7.41705116E+04   1.47312538E+05   2.59177965E+06   0.2696476       
  97               5.10456573E+02   3.22637044E+02   1558.01190242    5.87184912E-03   1.49992415E+21   7.30588688E+04   1.48467167E+05   2.08679580E+06   0.26819122      
  98               6.03905660E+02   3.53863682E+02   1597.08170618    6.28263467E-03   1.60485092E+21   7.14594779E+04   1.50134628E+05   1.57267222E+06   0.2667353       
  99               7.14462436E+02   3.87715212E+02   1636.27343873    6.71874580E-03   1.71625889E+21   6.92351494E+04   1.52487566E+05   1.05164125E+06   0.26530001      
  100              8.45258798E+02   4.24181528E+02   1675.75463612    7.17764097E-03   1.83344194E+21   6.63743833E+04   1.55537231E+05   5.26521224E+05   0.26388469      
  101              1.00000000E+03   4.63218037E+02   1714.93216131    7.65824102E-03   1.95643019E+21   6.46229721E+04   1.56847265E+05   0.00000000E+00   0.26250433      
