# ATMO pressure-temperature profile
# Effective temperature = 1600.0K
# log(g) = 3.0cm/s^2
# M/H = 0.0
# Optical depth grid in band 17 (1.20-1.33microns)
# All parameters in cgs units
#
# Model Level      Optical Depth    Pressure         Temperature      Density          Number Density   Rad Flux         Conv Flux        Radial Extension Adiabatic Gradient
#                                   [Ba]             [K]              [g/cm^3]         [/cm^3]          [ergs/s/cm^2/sr] [ergs/s/cm^2/sr] [cm]             [K/Ba]          
  1                1.00000000E-05   1.00000000E-05   378.57145749     7.48904108E-10   1.91327754E+14   3.71583510E+08   0.00000000E+00   6.46463889E+08   0.29799385      
  2                1.20226443E-05   1.66602382E-05   455.57279998     1.03681339E-09   2.64880055E+14   3.71583511E+08   0.00000000E+00   6.38905525E+08   0.29792956      
  3                1.44543977E-05   2.39647271E-05   489.61554723     1.38769630E-09   3.54521948E+14   3.71583511E+08   0.00000000E+00   6.32815874E+08   0.29777049      
  4                1.73780083E-05   3.23976723E-05   508.79128726     1.80530778E-09   4.61211346E+14   3.71583511E+08   0.00000000E+00   6.27487969E+08   0.29760513      
  5                2.08929613E-05   4.22513608E-05   527.83653049     2.26943789E-09   5.79785163E+14   3.71583511E+08   0.00000000E+00   6.22619818E+08   0.29742029      
  6                2.51188643E-05   5.38302788E-05   540.59490520     2.82313501E-09   7.21241188E+14   3.71583511E+08   0.00000000E+00   6.18045325E+08   0.29723511      
  7                3.01995172E-05   6.74757702E-05   556.37658751     3.43839531E-09   8.78425316E+14   3.71583510E+08   0.00000000E+00   6.13665613E+08   0.29702822      
  8                3.63078055E-05   8.35773776E-05   567.44967512     4.17578386E-09   1.06681037E+15   3.71583510E+08   0.00000000E+00   6.09416265E+08   0.296825        
  9                4.36515832E-05   1.02595037E-04   582.01488205     4.99768026E-09   1.27678597E+15   3.71583510E+08   0.00000000E+00   6.05253290E+08   0.29697338      
  10               5.24807460E-05   1.25067828E-04   592.18408635     5.98776450E-09   1.52972975E+15   3.71583511E+08   0.00000000E+00   6.01145195E+08   0.29682195      
  11               6.30957344E-05   1.51635572E-04   605.98055601     7.09442916E-09   1.81245923E+15   3.71583511E+08   0.00000000E+00   5.97068918E+08   0.29665457      
  12               7.58577575E-05   1.83047880E-04   615.66048428     8.42942028E-09   2.15352176E+15   3.71583512E+08   0.00000000E+00   5.93006896E+08   0.29649622      
  13               9.12010839E-05   2.20195113E-04   629.11494612     9.92320031E-09   2.53514914E+15   3.71583513E+08   0.00000000E+00   5.88945249E+08   0.29632058      
  14               1.09647820E-04   2.64147755E-04   638.52869642     1.17284235E-08   2.99634863E+15   3.71583514E+08   0.00000000E+00   5.84871077E+08   0.29615374      
  15               1.31825674E-04   3.16175456E-04   651.89202420     1.37505858E-08   3.51300142E+15   3.71583515E+08   0.00000000E+00   5.80774187E+08   0.29596661      
  16               1.58489319E-04   3.77774088E-04   661.22455178     1.61976435E-08   4.13817673E+15   3.71583517E+08   0.00000000E+00   5.76646708E+08   0.29578797      
  17               1.90546072E-04   4.50712016E-04   674.62031612     1.89409692E-08   4.83911074E+15   3.71583519E+08   0.00000000E+00   5.72482557E+08   0.29558701      
  18               2.29086765E-04   5.37071848E-04   683.92807673     2.22628841E-08   5.68784555E+15   3.71583521E+08   0.00000000E+00   5.68277035E+08   0.29539495      
  19               2.75422870E-04   6.39309455E-04   697.43857661     2.59870672E-08   6.63943314E+15   3.71583523E+08   0.00000000E+00   5.64026522E+08   0.29517738      
  20               3.31131121E-04   7.60306016E-04   706.88136270     3.04923412E-08   7.79054311E+15   3.71583526E+08   0.00000000E+00   5.59728199E+08   0.29496815      
  21               3.98107171E-04   9.03443664E-04   720.72525383     3.55363184E-08   9.07940056E+15   3.71583529E+08   0.00000000E+00   5.55379871E+08   0.29473075      
  22               4.78630092E-04   1.07268112E-03   730.46478526     4.16302724E-08   1.06364620E+16   3.71583533E+08   0.00000000E+00   5.50979841E+08   0.29450348      
  23               5.75439937E-04   1.27265641E-03   744.73787429     4.84438098E-08   1.23775181E+16   3.71583538E+08   0.00000000E+00   5.46526842E+08   0.29424596      
  24               6.91830971E-04   1.50877894E-03   754.88449623     5.66594874E-08   1.44767457E+16   3.71583544E+08   0.00000000E+00   5.42019900E+08   0.29399698      
  25               8.31763771E-04   1.78746572E-03   769.73765705     6.58288754E-08   1.68198000E+16   3.71583550E+08   0.00000000E+00   5.37456674E+08   0.29371422      
  26               1.00000000E-03   2.11639567E-03   780.43717637     7.68736525E-08   1.96419570E+16   3.71583558E+08   0.00000000E+00   5.32832795E+08   0.29343977      
  27               1.20226443E-03   2.50454155E-03   796.05946560     8.91862553E-08   2.27881238E+16   3.71583566E+08   0.00000000E+00   5.28145119E+08   0.2931278       
  28               1.44543977E-03   2.96234547E-03   807.56200953     1.03985394E-07   2.65696397E+16   3.71583576E+08   0.00000000E+00   5.23391281E+08   0.29282035      
  29               1.73780083E-03   3.50193642E-03   824.23085545     1.20439819E-07   3.07740906E+16   3.71583586E+08   0.00000000E+00   5.18569653E+08   0.29247149      
  30               2.08929613E-03   4.13720941E-03   836.85110038     1.40144965E-07   3.58084194E+16   3.71583597E+08   0.00000000E+00   5.13679897E+08   0.29212737      
  31               2.51188643E-03   4.88428939E-03   854.80840790     1.61974291E-07   4.13864754E+16   3.71583610E+08   0.00000000E+00   5.08721339E+08   0.29173746      
  32               3.01995172E-03   5.76157145E-03   868.84861213     1.87978466E-07   4.80311163E+16   3.71583624E+08   0.00000000E+00   5.03693722E+08   0.29134665      
  33               3.63078055E-03   6.78979496E-03   888.59569955     2.16600678E-07   5.53449873E+16   3.71583637E+08   0.00000000E+00   4.98598024E+08   0.29090092      
  34               4.36515832E-03   7.99212579E-03   904.56045112     2.50455224E-07   6.39956648E+16   3.71583650E+08   0.00000000E+00   4.93435892E+08   0.29043636      
  35               5.24807460E-03   9.39455582E-03   926.33729840     2.87481240E-07   7.34569581E+16   3.71583663E+08   0.00000000E+00   4.88209386E+08   0.29026367      
  36               6.30957344E-03   1.10276244E-02   944.33611383     3.31021514E-07   8.45826344E+16   3.71583675E+08   0.00000000E+00   4.82915536E+08   0.28963184      
  37               7.58577575E-03   1.29277968E-02   968.33436288     3.78440807E-07   9.66996744E+16   3.71583684E+08   0.00000000E+00   4.77546875E+08   0.28884719      
  38               9.12010839E-03   1.51354489E-02   988.77164302     4.33907299E-07   1.10872832E+17   3.71583692E+08   0.00000000E+00   4.72098924E+08   0.28802611      
  39               1.09647820E-02   1.76952501E-02   1015.45457430    4.93960804E-07   1.26218218E+17   3.71583697E+08   0.00000000E+00   4.66569733E+08   0.28713311      
  40               1.31825674E-02   2.06548214E-02   1038.88859161    5.63570083E-07   1.44005244E+17   3.71583700E+08   0.00000000E+00   4.60960434E+08   0.2862996       
  41               1.58489319E-02   2.40643469E-02   1069.07137086    6.38060557E-07   1.63039645E+17   3.71583699E+08   0.00000000E+00   4.55274666E+08   0.28539227      
  42               1.90546072E-02   2.79742452E-02   1096.44845409    7.23209348E-07   1.84797460E+17   3.71583692E+08   0.00000000E+00   4.49518908E+08   0.28454005      
  43               2.29086765E-02   3.24356099E-02   1130.77288923    8.13092325E-07   2.07765063E+17   3.71583679E+08   0.00000000E+00   4.43701014E+08   0.28367768      
  44               2.75422870E-02   3.75082424E-02   1162.33235339    9.14721892E-07   2.33734180E+17   3.71583663E+08   0.00000000E+00   4.37819096E+08   0.28277489      
  45               3.31131121E-02   4.32674965E-02   1201.07019923    1.02114061E-06   2.60927117E+17   3.71583641E+08   0.00000000E+00   4.31860018E+08   0.28163076      
  46               3.98107171E-02   4.97844894E-02   1237.78760295    1.14009154E-06   2.91322326E+17   3.71583612E+08   0.00000000E+00   4.25820050E+08   0.28025666      
  47               4.78630092E-02   5.71223795E-02   1282.84699502    1.26218531E-06   3.22520458E+17   3.71583589E+08   0.00000000E+00   4.19703028E+08   0.27861075      
  48               5.75439937E-02   6.52978284E-02   1331.28540584    1.39034150E-06   3.55265804E+17   3.70887703E+08   6.96073735E+05   4.13531534E+08   0.27682894      
  49               6.91830971E-02   7.43591259E-02   1380.01375613    1.52741892E-06   3.90280363E+17   3.69306420E+08   2.27694070E+06   4.07313485E+08   0.27476735      
  50               8.31763771E-02   8.43781453E-02   1428.46260096    1.67461513E-06   4.27845472E+17   3.66904315E+08   4.67780749E+06   4.01048799E+08   0.27254619      
  51               1.00000000E-01   9.54243217E-02   1477.12627589    1.83191676E-06   4.67915355E+17   3.63682597E+08   7.89726758E+06   3.94741861E+08   0.27036647      
  52               1.20226443E-01   1.07448835E-01   1524.97612297    1.99844170E-06   5.10345754E+17   3.59646701E+08   1.19300235E+07   3.88457165E+08   0.26837409      
  53               1.44543977E-01   1.20072608E-01   1571.13137701    2.16839278E-06   5.53550542E+17   3.54891759E+08   1.66793594E+07   3.82392683E+08   0.26676026      
  54               1.73780083E-01   1.32623436E-01   1613.11694761    2.33502713E-06   5.95497937E+17   3.49693726E+08   2.18750518E+07   3.76814359E+08   0.26527956      
  55               2.08929613E-01   1.44310128E-01   1649.72419727    2.48424105E-06   6.33594367E+17   3.44487520E+08   2.70883892E+07   3.71962041E+08   0.26390041      
  56               2.51188643E-01   1.55193477E-01   1681.48193285    2.62338334E-06   6.68508751E+17   3.39284795E+08   3.22965762E+07   3.67698337E+08   0.26262337      
  57               3.01995172E-01   1.64579575E-01   1707.71096704    2.73922019E-06   6.98051411E+17   3.34513052E+08   3.70661092E+07   3.64196941E+08   0.26119103      
  58               3.63078055E-01   1.75145172E-01   1735.49519710    2.86827487E-06   7.30971750E+17   3.28923939E+08   4.26572266E+07   3.60427555E+08   0.2595233       
  59               4.36515832E-01   1.86975652E-01   1765.25638375    3.01021877E-06   7.67190302E+17   3.22283826E+08   4.93001293E+07   3.56401371E+08   0.25761319      
  60               5.24807460E-01   2.00126791E-01   1796.20423874    3.16620078E-06   8.07003383E+17   3.14406494E+08   5.71833901E+07   3.52141504E+08   0.25540353      
  61               6.30957344E-01   2.14580254E-01   1828.51242333    3.33457359E-06   8.49997560E+17   3.05276223E+08   6.63208174E+07   3.47693310E+08   0.25304346      
  62               7.58577575E-01   2.30291436E-01   1861.23473220    3.51540602E-06   8.96194924E+17   2.95331249E+08   7.62657049E+07   3.43104477E+08   0.25037827      
  63               9.12010839E-01   2.47569403E-01   1895.24676574    3.71080001E-06   9.46143576E+17   2.85040976E+08   8.65532297E+07   3.38320680E+08   0.24741801      
  64               1.09647820E+00   2.66847325E-01   1930.41468463    3.92618693E-06   1.00123974E+18   2.74126041E+08   9.74672416E+07   3.33270081E+08   0.24404494      
  65               1.31825674E+00   2.88321509E-01   1967.14283013    4.16200426E-06   1.06161486E+18   2.62255515E+08   1.09332716E+08   3.27957784E+08   0.2404295       
  66               1.58489319E+00   3.12210185E-01   2004.76731329    4.42104949E-06   1.12799957E+18   2.49307233E+08   1.22273215E+08   3.22388735E+08   0.23625318      
  67               1.90546072E+00   3.38758789E-01   2043.60594275    4.70423780E-06   1.20065782E+18   2.35312865E+08   1.36258398E+08   3.16567195E+08   0.23175893      
  68               2.29086765E+00   3.68244968E-01   2083.04846362    5.01484580E-06   1.28045195E+18   2.20389276E+08   1.51170658E+08   3.10496350E+08   0.22679458      
  69               2.75422870E+00   4.00982523E-01   2123.37768943    5.35435272E-06   1.36780452E+18   2.04768664E+08   1.66778620E+08   3.04178509E+08   0.22175503      
  70               3.31131121E+00   4.37320933E-01   2164.09924163    5.72641862E-06   1.46368942E+18   1.88633583E+08   1.82900598E+08   2.97615903E+08   0.21639403      
  71               3.98107171E+00   4.77650941E-01   2205.41653358    6.13320557E-06   1.56872151E+18   1.72223166E+08   1.99296223E+08   2.90810574E+08   0.21100924      
  72               4.78630092E+00   5.22403420E-01   2246.92513731    6.57881785E-06   1.68400450E+18   1.55679675E+08   2.15823870E+08   2.83765165E+08   0.20537845      
  73               5.75439937E+00   5.72052060E-01   2288.74123249    7.06613620E-06   1.81035898E+18   1.39197343E+08   2.32292163E+08   2.76483177E+08   0.19966725      
  74               6.91830971E+00   6.27097620E-01   2330.48987375    7.60014807E-06   1.94900867E+18   1.22993442E+08   2.48482705E+08   2.68971438E+08   0.19365638      
  75               8.31763771E+00   6.88133187E-01   2372.21223662    8.18397668E-06   2.10109070E+18   1.07580448E+08   2.63882366E+08   2.61232197E+08   0.18804492      
  76               1.00000000E+01   7.55840390E-01   2413.87259550    8.82300883E-06   2.26799238E+18   9.32284919E+07   2.78224303E+08   2.53264122E+08   0.1826017       
  77               1.20226443E+01   8.30944415E-01   2455.41706622    9.52243623E-06   2.45116498E+18   8.01179063E+07   2.91327981E+08   2.45070227E+08   0.17738789      
  78               1.44543977E+01   9.14214343E-01   2496.81045117    1.02874953E-05   2.65209024E+18   6.83623958E+07   3.03078181E+08   2.36656872E+08   0.17237159      
  79               1.73780083E+01   1.00649316E+00   2537.97957879    1.11240514E-05   2.87242398E+18   5.81712645E+07   3.13264530E+08   2.28030547E+08   0.16777529      
  80               2.08929613E+01   1.10872220E+00   2579.02027921    1.20378002E-05   3.11382231E+18   4.95423026E+07   3.21890423E+08   2.19196094E+08   0.1634232       
  81               2.51188643E+01   1.22191422E+00   2619.78780904    1.30359704E-05   3.37831735E+18   4.22679339E+07   3.29163252E+08   2.10159992E+08   0.15925873      
  82               3.01995172E+01   1.34715598E+00   2660.35252375    1.41249804E-05   3.66779060E+18   3.61610404E+07   3.35269776E+08   2.00930152E+08   0.1554452       
  83               3.63078055E+01   1.48560380E+00   2700.65150592    1.53122468E-05   3.98437581E+18   3.10025131E+07   3.40427577E+08   1.91515952E+08   0.15197888      
  84               4.36515832E+01   1.63848534E+00   2740.76158237    1.66045084E-05   4.33009218E+18   2.66032522E+07   3.44828012E+08   1.81927837E+08   0.14867815      
  85               5.24807460E+01   1.80711528E+00   2780.53130379    1.80105211E-05   4.70743040E+18   2.28548838E+07   3.48578977E+08   1.72176390E+08   0.14561022      
  86               6.30957344E+01   1.99290797E+00   2820.09111221    1.95374351E-05   5.11858528E+18   1.96786481E+07   3.51759273E+08   1.62271670E+08   0.14283358      
  87               7.58577575E+01   2.19737558E+00   2859.33331508    2.11947144E-05   5.56628384E+18   1.69805891E+07   3.54461626E+08   1.52223495E+08   0.14039966      
  88               9.12010839E+01   2.42213266E+00   2898.43539447    2.29896427E-05   6.05285319E+18   1.46772643E+07   3.56771674E+08   1.42041247E+08   0.13817058      
  89               1.09647820E+02   2.66891729E+00   2937.22467133    2.49334266E-05   6.58148336E+18   1.27005452E+07   3.58758406E+08   1.31733330E+08   0.13613951      
  90               1.31825674E+02   2.93960741E+00   2975.89607778    2.70341245E-05   7.15479858E+18   1.10087523E+07   3.60464900E+08   1.21306915E+08   0.13429017      
  91               1.58489319E+02   3.23623843E+00   3014.27898952    2.93046683E-05   7.77647722E+18   9.55322293E+06   3.61940862E+08   1.10767864E+08   0.13264289      
  92               1.90546072E+02   3.56095748E+00   3052.59317304    3.17534536E-05   8.44935775E+18   8.29938453E+06   3.63223933E+08   1.00122679E+08   0.13112981      
  93               2.29086765E+02   3.91602458E+00   3090.62432675    3.43949199E-05   9.17751345E+18   7.21396918E+06   3.64349447E+08   8.93784119E+07   0.12975482      
  94               2.75422870E+02   4.30392726E+00   3128.61199177    3.72382230E-05   9.96412248E+18   6.27832841E+06   3.65338163E+08   7.85393915E+07   0.12851123      
  95               3.31131121E+02   4.72740138E+00   3166.35305780    4.03007033E-05   1.08140651E+19   5.46707085E+06   3.66217250E+08   6.76077689E+07   0.12742675      
  96               3.98107171E+02   5.18945316E+00   3204.12546102    4.35928422E-05   1.17310780E+19   4.76587794E+06   3.67003406E+08   5.65838708E+07   0.12649664      
  97               4.78630092E+02   5.69338230E+00   3241.73060132    4.71351337E-05   1.27209418E+19   4.15454402E+06   3.67718358E+08   4.54666133E+07   0.12569643      
  98               5.75439937E+02   6.24281736E+00   3279.44821029    5.09400573E-05   1.37881402E+19   3.62291745E+06   3.68373553E+08   3.42535990E+07   0.12498932      
  99               6.91830971E+02   6.84175285E+00   3317.06095988    5.50323729E-05   1.49396275E+19   3.15764272E+06   3.68982725E+08   2.29413474E+07   0.12436772      
  100              8.31763771E+02   7.49459560E+00   3354.85754267    5.94269647E-05   1.61807989E+19   2.75384850E+06   3.69550984E+08   1.15253073E+07   0.12381327      
  101              1.00000000E+03   8.20621448E+00   3392.61060382    6.41536668E-05   1.75200236E+19   2.56109735E+06   3.69869377E+08   0.00000000E+00   0.1233376       
