# ATMO pressure-temperature profile
# Effective temperature = 1100.0K
# log(g) = 4.5cm/s^2
# M/H = 0.0
# Optical depth grid in band 17 (1.20-1.33microns)
# All parameters in cgs units
#
# Model Level      Optical Depth    Pressure         Temperature      Density          Number Density   Rad Flux         Conv Flux        Radial Extension Adiabatic Gradient
#                                   [Ba]             [K]              [g/cm^3]         [/cm^3]          [ergs/s/cm^2/sr] [ergs/s/cm^2/sr] [cm]             [K/Ba]          
  1                5.00000000E-05   1.00000000E-05   367.36537674     7.71338161E-10   1.97163998E+14   8.30127778E+07   0.00000000E+00   1.91799715E+07   0.29834883      
  2                5.91534807E-05   8.26216291E-04   421.91128378     5.54902597E-08   1.41839912E+16   8.30127778E+07   0.00000000E+00   1.52347218E+07   0.29972627      
  3                6.99826855E-05   1.72372353E-03   452.10447333     1.08037937E-07   2.76156103E+16   8.30127778E+07   0.00000000E+00   1.48681639E+07   0.29952482      
  4                8.27943887E-05   2.74796907E-03   465.74886256     1.67189042E-07   4.27352133E+16   8.30127778E+07   0.00000000E+00   1.46271667E+07   0.29945537      
  5                9.79515255E-05   3.93192240E-03   481.11726376     2.31580451E-07   5.91942928E+16   8.30127778E+07   0.00000000E+00   1.44368926E+07   0.29936921      
  6                1.15883473E-04   5.30600014E-03   489.48449499     3.07168323E-07   7.85152751E+16   8.30127778E+07   0.00000000E+00   1.42739734E+07   0.29933538      
  7                1.37098216E-04   6.90472193E-03   501.56867423     3.90089252E-07   9.97106685E+16   8.30127778E+07   0.00000000E+00   1.41279230E+07   0.29927243      
  8                1.62196734E-04   8.76713815E-03   508.11427532     4.88927912E-07   1.24974755E+17   8.30127778E+07   0.00000000E+00   1.39930664E+07   0.29924885      
  9                1.91890027E-04   1.09389380E-02   518.93833367     5.97321097E-07   1.52681088E+17   8.30127778E+07   0.00000000E+00   1.38659817E+07   0.29919196      
  10               2.27019260E-04   1.34730606E-02   524.75609339     7.27540842E-07   1.85966454E+17   8.30127778E+07   0.00000000E+00   1.37444204E+07   0.299171        
  11               2.68579588E-04   1.64308464E-02   535.44539830     8.69547690E-07   2.22264746E+17   8.30127778E+07   0.00000000E+00   1.36268248E+07   0.29911288      
  12               3.17748350E-04   1.98830655E-02   541.22303896     1.04101233E-06   2.66092667E+17   8.30127778E+07   0.00000000E+00   1.35120824E+07   0.29909116      
  13               3.75918418E-04   2.39116209E-02   552.08617418     1.22730073E-06   3.13709727E+17   8.30127778E+07   0.00000000E+00   1.33993767E+07   0.29903034      
  14               4.44737657E-04   2.86107562E-02   558.23012941     1.45232911E-06   3.71229006E+17   8.30127778E+07   0.00000000E+00   1.32880729E+07   0.29901944      
  15               5.26155608E-04   3.40895861E-02   569.70204026     1.69559825E-06   4.33410864E+17   8.30127778E+07   0.00000000E+00   1.31776667E+07   0.29898163      
  16               6.22478712E-04   4.04729701E-02   576.43616800     1.98958717E-06   5.08557066E+17   8.30127778E+07   0.00000000E+00   1.30677640E+07   0.29893537      
  17               7.36435649E-04   4.79039171E-02   588.68864117     2.30586838E-06   5.89401464E+17   8.30127778E+07   0.00000000E+00   1.29580542E+07   0.29883249      
  18               8.71254639E-04   5.65453955E-02   596.33207575     2.68694213E-06   6.86807321E+17   8.30127778E+07   0.00000000E+00   1.28482696E+07   0.29877588      
  19               1.03075489E-03   6.65850902E-02   609.66728774     3.09480538E-06   7.91060936E+17   8.30127778E+07   0.00000000E+00   1.27381728E+07   0.29870821      
  20               1.21945479E-03   7.82343784E-02   618.39605150     3.58492646E-06   9.16340260E+17   8.30127778E+07   0.00000000E+00   1.26275760E+07   0.29867046      
  21               1.44269991E-03   9.17361914E-02   632.87592159     4.10744222E-06   1.04990009E+18   8.30127778E+07   0.00000000E+00   1.25163090E+07   0.29858018      
  22               1.70681442E-03   1.07370143E-01   642.87028311     4.73270658E-06   1.20972323E+18   8.30127778E+07   0.00000000E+00   1.24041774E+07   0.29850329      
  23               2.01928028E-03   1.25460065E-01   658.81129013     5.39627290E-06   1.37933677E+18   8.30127778E+07   0.00000000E+00   1.22909804E+07   0.29837804      
  24               2.38894914E-03   1.46366704E-01   670.40899995     6.18659886E-06   1.58135107E+18   8.30127778E+07   0.00000000E+00   1.21765579E+07   0.29828681      
  25               2.82629313E-03   1.70494463E-01   688.03317298     7.02183399E-06   1.79484414E+18   8.30127778E+07   0.00000000E+00   1.20607960E+07   0.29814168      
  26               3.34370152E-03   1.98284626E-01   701.48949100     8.00972588E-06   2.04735764E+18   8.30127778E+07   0.00000000E+00   1.19436150E+07   0.29800569      
  27               3.95583167E-03   2.30231415E-01   721.17578596     9.04636138E-06   2.31232719E+18   8.30127778E+07   0.00000000E+00   1.18249339E+07   0.29779681      
  28               4.68002425E-03   2.66879257E-01   736.95330214     1.02618535E-05   2.62301449E+18   8.30127778E+07   0.00000000E+00   1.17046525E+07   0.2976125       
  29               5.53679448E-03   3.08820774E-01   758.99815601     1.15297170E-05   2.94707797E+18   8.30127778E+07   0.00000000E+00   1.15827192E+07   0.29733821      
  30               6.55041330E-03   3.56709215E-01   777.37059270     1.30029477E-05   3.32362534E+18   8.30127778E+07   0.00000000E+00   1.14590388E+07   0.29708778      
  31               7.74959494E-03   4.11320652E-01   802.12741261     1.45309076E-05   3.71418042E+18   8.30127778E+07   0.00000000E+00   1.13334021E+07   0.29675627      
  32               9.16831029E-03   4.73498537E-01   823.52170798     1.62929303E-05   4.16456294E+18   8.30127778E+07   0.00000000E+00   1.12056142E+07   0.29647611      
  33               1.08467493E-02   5.44175264E-01   851.31600792     1.81135537E-05   4.62992373E+18   8.30127778E+07   0.00000000E+00   1.10755148E+07   0.29607953      
  34               1.28324595E-02   6.24282111E-01   875.86946136     2.01974904E-05   5.16258655E+18   8.30127778E+07   0.00000000E+00   1.09430748E+07   0.29567455      
  35               1.51816929E-02   7.14763900E-01   906.67080704     2.23393114E-05   5.71003561E+18   8.30127778E+07   0.00000000E+00   1.08083717E+07   0.29510704      
  36               1.79609996E-02   8.16514581E-01   934.25724897     2.47660301E-05   6.33028566E+18   8.30127778E+07   0.00000000E+00   1.06715754E+07   0.29454483      
  37               2.12491128E-02   9.30707764E-01   967.86107525     2.72503055E-05   6.96508070E+18   8.30127778E+07   0.00000000E+00   1.05325712E+07   0.29382998      
  38               2.51391797E-02   1.05878024E+00   998.17195318     3.00586744E-05   7.68291987E+18   8.30127778E+07   0.00000000E+00   1.03910619E+07   0.29313128      
  39               2.97413996E-02   1.20226163E+00   1034.07557700    3.29467710E-05   8.42117214E+18   8.30127778E+07   0.00000000E+00   1.02468821E+07   0.29227387      
  40               3.51861462E-02   1.36267312E+00   1066.38520522    3.62109172E-05   9.25557528E+18   8.30127779E+07   0.00000000E+00   1.01000201E+07   0.29142819      
  41               4.16276604E-02   1.54163070E+00   1103.79664891    3.95773371E-05   1.01161933E+19   8.30127779E+07   0.00000000E+00   9.95053184E+06   0.29041578      
  42               4.92484201E-02   1.74081446E+00   1137.18732260    4.33779029E-05   1.10878238E+19   8.30127779E+07   0.00000000E+00   9.79851333E+06   0.28940312      
  43               5.82643093E-02   1.96269395E+00   1175.35177003    4.73176724E-05   1.20951305E+19   8.30127779E+07   0.00000000E+00   9.64364189E+06   0.28818891      
  44               6.89307339E-02   2.21019246E+00   1209.35692292    5.17852113E-05   1.32373618E+19   8.30127780E+07   0.00000000E+00   9.48553233E+06   0.28693558      
  45               8.15498567E-02   2.48636668E+00   1248.14676586    5.64443080E-05   1.44286388E+19   8.30127781E+07   0.00000000E+00   9.32399596E+06   0.28547113      
  46               9.64791575E-02   2.79434212E+00   1282.73278532    6.17243522E-05   1.57786274E+19   8.30127781E+07   0.00000000E+00   9.15899828E+06   0.28400431      
  47               1.14141560E-01   3.13741006E+00   1322.20317510    6.72323958E-05   1.71869545E+19   8.30127782E+07   0.00000000E+00   8.99059028E+06   0.28240015      
  48               1.35037411E-01   3.51906141E+00   1357.42071031    7.34534242E-05   1.87775192E+19   8.30127782E+07   0.00000000E+00   8.81885023E+06   0.28085733      
  49               1.59758657E-01   3.94409073E+00   1397.56319974    7.99592128E-05   2.04409596E+19   8.30127783E+07   0.00000000E+00   8.64347075E+06   0.27925123      
  50               1.89005613E-01   4.41966397E+00   1433.38932980    8.73596562E-05   2.23331983E+19   8.30127783E+07   0.00000000E+00   8.46353063E+06   0.27773732      
  51               2.23606798E-01   4.95443222E+00   1474.23393734    9.52157624E-05   2.43418357E+19   8.30127783E+07   0.00000000E+00   8.27811000E+06   0.27610475      
  52               2.64542408E-01   5.55758034E+00   1510.77692561    1.04220261E-04   2.66447252E+19   8.30127784E+07   0.00000000E+00   8.08664284E+06   0.27448393      
  53               3.12972084E-01   6.23733333E+00   1552.48250906    1.13835522E-04   2.91003410E+19   8.30127783E+07   0.00000000E+00   7.88928721E+06   0.27279485      
  54               3.70267763E-01   6.99622034E+00   1590.00672848    1.24671421E-04   3.18706086E+19   8.30127785E+07   0.00000000E+00   7.68784232E+06   0.27119126      
  55               4.38052539E-01   7.82855256E+00   1632.87247841    1.35879079E-04   3.47260225E+19   8.30127784E+07   0.00000000E+00   7.48560903E+06   0.26959085      
  56               5.18246648E-01   8.71978627E+00   1671.83283203    1.47828368E-04   3.77779885E+19   8.30128482E+07   0.00000000E+00   7.28675323E+06   0.26811498      
  57               6.13121862E-01   9.64249500E+00   1716.75529453    1.59223089E-04   4.06824282E+19   8.26515381E+07   3.61229035E+05   7.09656220E+06   0.26658154      
  58               7.25365844E-01   1.05426320E+01   1758.61488049    1.70008206E-04   4.34214320E+19   7.91656453E+07   3.84712557E+06   6.92354815E+06   0.26510696      
  59               8.58158289E-01   1.13791463E+01   1793.80479446    1.80012432E-04   4.59473365E+19   7.42778690E+07   8.73490265E+06   6.77233039E+06   0.2635992       
  60               1.01526100E+00   1.21171366E+01   1824.34039000    1.88590796E-04   4.81082957E+19   6.91341334E+07   1.38786408E+07   6.64566798E+06   0.26217969      
  61               1.20112443E+00   1.29255878E+01   1854.74721717    1.97873327E-04   5.04767532E+19   6.37704643E+07   1.92423045E+07   6.51332525E+06   0.26066869      
  62               1.42101382E+00   1.35846435E+01   1879.52452616    2.05278738E-04   5.23511332E+19   5.82603993E+07   2.49460090E+07   6.40991168E+06   0.25950546      
  63               1.68115827E+00   1.40683954E+01   1895.97830856    2.10740929E-04   5.37448729E+19   5.39253687E+07   2.90874006E+07   6.33636275E+06   0.25830401      
  64               1.98892727E+00   1.46149774E+01   1915.35564326    2.16710930E-04   5.52681035E+19   5.04324617E+07   3.25803121E+07   6.25548285E+06   0.25741491      
  65               2.35303941E+00   1.52340155E+01   1935.22959215    2.23567223E-04   5.70174430E+19   4.71321571E+07   3.58806195E+07   6.16654779E+06   0.25641024      
  66               2.78380943E+00   1.59322269E+01   1958.21168298    2.31065673E-04   5.89308472E+19   4.37177279E+07   3.92950512E+07   6.06940395E+06   0.25565772      
  67               3.29344035E+00   1.67162484E+01   1981.71943422    2.39546729E-04   6.10973658E+19   3.92342604E+07   4.37785153E+07   5.96402224E+06   0.25492198      
  68               3.89636920E+00   1.72740267E+01   1998.99698477    2.45618416E-04   6.25903365E+19   3.44794978E+07   4.85332782E+07   5.89129568E+06   0.25462606      
  69               4.60967600E+00   1.76542950E+01   2009.46301969    2.49713802E-04   6.36350223E+19   3.12514937E+07   5.17612847E+07   5.84274018E+06   0.25402552      
  70               5.45356761E+00   1.80889887E+01   2022.54475132    2.54203646E-04   6.47801556E+19   2.91443965E+07   5.38683830E+07   5.78818057E+06   0.2536598       
  71               6.45195012E+00   1.85869447E+01   2035.87687907    2.59486582E-04   6.61275353E+19   2.74069975E+07   5.56057822E+07   5.72686896E+06   0.25295324      
  72               7.63310614E+00   1.91555715E+01   2052.06973511    2.65309307E-04   6.76127870E+19   2.59711700E+07   5.70416099E+07   5.65833690E+06   0.25247561      
  73               9.03049593E+00   1.98024886E+01   2068.70173057    2.72057754E-04   6.93342359E+19   2.46495490E+07   5.83632309E+07   5.58219181E+06   0.25161176      
  74               1.06837053E+01   2.05379318E+01   2088.36609527    2.79496239E-04   7.12321270E+19   2.35143519E+07   5.94984281E+07   5.49785236E+06   0.25088967      
  75               1.26395671E+01   2.13711276E+01   2108.65058530    2.88027557E-04   7.34088898E+19   2.23678344E+07   6.06449457E+07   5.40498946E+06   0.24989124      
  76               1.49534878E+01   2.23118760E+01   2132.05283120    2.97392927E-04   7.57990854E+19   2.12912463E+07   6.17215340E+07   5.30334319E+06   0.24897183      
  77               1.76910170E+01   2.33705311E+01   2156.13221880    3.08010016E-04   7.85089253E+19   2.01510156E+07   6.28617649E+07   5.19272998E+06   0.247768        
  78               2.09297047E+01   2.45581160E+01   2183.33388665    3.19609932E-04   8.14705655E+19   1.90581316E+07   6.39546490E+07   5.07303594E+06   0.24663517      
  79               2.47612977E+01   2.58863222E+01   2211.19416039    3.32628427E-04   8.47948181E+19   1.78921751E+07   6.51206057E+07   4.94421807E+06   0.24516813      
  80               2.92943389E+01   2.73677009E+01   2242.09561462    3.46787465E-04   8.84117577E+19   1.67812117E+07   6.62315693E+07   4.80628916E+06   0.24375062      
  81               3.46572422E+01   2.90156737E+01   2273.56928328    3.62545408E-04   9.24379500E+19   1.56167547E+07   6.73960265E+07   4.65931608E+06   0.24195026      
  82               4.10019301E+01   3.08448010E+01   2307.92869462    3.79617135E-04   9.68022442E+19   1.45226803E+07   6.84901011E+07   4.50340009E+06   0.24024498      
  83               4.85081376E+01   3.28701270E+01   2342.73104871    3.98521685E-04   1.01625990E+20   1.33909192E+07   6.96218626E+07   4.33873172E+06   0.23817648      
  84               5.73885036E+01   3.51088170E+01   2380.21687722    4.18893440E-04   1.06837940E+20   1.23669961E+07   7.06457859E+07   4.16546411E+06   0.23611475      
  85               6.78945948E+01   3.75799216E+01   2417.98740156    4.41294461E-04   1.12571299E+20   1.13536782E+07   7.16591040E+07   3.98371329E+06   0.2337428       
  86               8.03240320E+01   4.03038101E+01   2458.24505531    4.65430659E-04   1.18753596E+20   1.04288954E+07   7.25838871E+07   3.79364961E+06   0.23161297      
  87               9.50289215E+01   4.33025014E+01   2498.68729097    4.91849418E-04   1.25524042E+20   9.49816527E+06   7.35146175E+07   3.59545591E+06   0.22900084      
  88               1.12425830E+02   4.66010370E+01   2541.34714394    5.20284725E-04   1.32818150E+20   8.65836129E+06   7.43544217E+07   3.38925690E+06   0.22664882      
  89               1.33007583E+02   5.02275701E+01   2584.13457641    5.51317826E-04   1.40783864E+20   7.83700387E+06   7.51757793E+07   3.17512952E+06   0.22377047      
  90               1.57357229E+02   5.42139702E+01   2628.87306046    5.84736413E-04   1.49371395E+20   7.09829405E+06   7.59144892E+07   2.95310432E+06   0.22113048      
  91               1.86164557E+02   5.85955773E+01   2673.70911960    6.21151166E-04   1.58736397E+20   6.39440611E+06   7.66183773E+07   2.72319460E+06   0.21825425      
  92               2.20245630E+02   6.34116955E+01   2720.34489290    6.60380772E-04   1.68838403E+20   5.76769768E+06   7.72450860E+07   2.48539874E+06   0.21542348      
  93               2.60565913E+02   6.87050048E+01   2766.97569301    7.03099791E-04   1.79849349E+20   5.18535536E+06   7.78274285E+07   2.23974425E+06   0.21238742      
  94               3.08267614E+02   7.45226138E+01   2815.24786298    7.49136924E-04   1.91733183E+20   4.67175882E+06   7.83410254E+07   1.98625532E+06   0.20963844      
  95               3.64702046E+02   8.09157135E+01   2863.51405657    7.99207297E-04   2.04672450E+20   4.19031490E+06   7.88224698E+07   1.72497613E+06   0.20666908      
  96               4.31467909E+02   8.79405180E+01   2913.24251690    8.53183685E-04   2.18644330E+20   3.75964513E+06   7.92531400E+07   1.45595442E+06   0.20388334      
  97               5.10456573E+02   9.56578441E+01   2962.91654098    9.11831466E-04   2.33844419E+20   3.35885811E+06   7.96539276E+07   1.17926505E+06   0.20106085      
  98               6.03905660E+02   1.04133784E+02   3013.94485796    9.75031309E-04   2.50254668E+20   2.99855717E+06   8.00142285E+07   8.94998419E+05   0.19836245      
  99               7.14462436E+02   1.13435990E+02   3064.81663698    1.04360540E-03   2.68084812E+20   2.66000487E+06   8.03527800E+07   6.03381201E+05   0.19546468      
  100              8.45258798E+02   1.23629100E+02   3116.75981127    1.11737969E-03   2.87305018E+20   2.35859822E+06   8.06541856E+07   3.04882042E+05   0.19279304      
  101              1.00000000E+03   1.34779700E+02   3168.39871021    1.19713173E-03   3.08113336E+20   2.20093809E+06   8.08118448E+07   0.00000000E+00   0.19028458      
