# ATMO pressure-temperature profile
# Effective temperature = 1600.0K
# log(g) = 5.5cm/s^2
# M/H = 0.0
# Optical depth grid in band 17 (1.20-1.33microns)
# All parameters in cgs units
#
# Model Level      Optical Depth    Pressure         Temperature      Density          Number Density   Rad Flux         Conv Flux        Radial Extension Adiabatic Gradient
#                                   [Ba]             [K]              [g/cm^3]         [/cm^3]          [ergs/s/cm^2/sr] [ergs/s/cm^2/sr] [cm]             [K/Ba]          
  1                1.00000000E-07   1.00000000E-05   504.88559003     5.61259378E-10   1.43460673E+14   3.71583569E+08   0.00000000E+00   2.44907065E+06   0.29789122      
  2                1.25892541E-07   3.04054409E-05   525.81203560     1.63861693E-09   4.18838525E+14   3.71583569E+08   0.00000000E+00   2.38178453E+06   0.29793911      
  3                1.58489319E-07   5.53334204E-05   544.58743260     2.87923088E-09   7.35945648E+14   3.71583569E+08   0.00000000E+00   2.34549259E+06   0.29794652      
  4                1.99526231E-07   8.61668460E-05   549.39199962     4.44441469E-09   1.13601406E+15   3.71583569E+08   0.00000000E+00   2.31823570E+06   0.2979324       
  5                2.51188643E-07   1.24417713E-04   564.52182436     6.24536870E-09   1.59634706E+15   3.71583569E+08   0.00000000E+00   2.29527660E+06   0.29791839      
  6                3.16227766E-07   1.71891760E-04   568.55327361     8.56723312E-09   2.18982664E+15   3.71583570E+08   0.00000000E+00   2.27475284E+06   0.29790196      
  7                3.98107171E-07   2.30861000E-04   582.70334447     1.12268974E-08   2.86964981E+15   3.71583570E+08   0.00000000E+00   2.25573876E+06   0.29787077      
  8                5.01187234E-07   3.04098241E-04   586.69449974     1.46878647E-08   3.75428925E+15   3.71583570E+08   0.00000000E+00   2.23770348E+06   0.29828049      
  9                6.30957344E-07   3.95089821E-04   600.37179339     1.86479984E-08   4.76651979E+15   3.71583570E+08   0.00000000E+00   2.22031724E+06   0.29818669      
  10               7.94328235E-07   5.08108971E-04   604.45479480     2.38204394E-08   6.08862008E+15   3.71583570E+08   0.00000000E+00   2.20335977E+06   0.29815497      
  11               1.00000000E-06   6.48512095E-04   617.88264196     2.97419325E-08   7.60217609E+15   3.71583570E+08   0.00000000E+00   2.18667895E+06   0.29805142      
  12               1.25892541E-06   8.22883172E-04   622.09233929     3.74835329E-08   9.58096310E+15   3.71583570E+08   0.00000000E+00   2.17016429E+06   0.29801091      
  13               1.58489319E-06   1.03951533E-03   635.45601843     4.63556416E-08   1.18487147E+16   3.71583570E+08   0.00000000E+00   2.15372998E+06   0.29789428      
  14               1.99526231E-06   1.30865033E-03   639.82360867     5.79589618E-08   1.48145750E+16   3.71583570E+08   0.00000000E+00   2.13731053E+06   0.29784306      
  15               2.51188643E-06   1.64306789E-03   653.27780082     7.12716512E-08   1.82172763E+16   3.71583570E+08   0.00000000E+00   2.12085656E+06   0.2977129       
  16               3.16227766E-06   2.05856330E-03   657.78941030     8.86822432E-08   2.26674773E+16   3.71583570E+08   0.00000000E+00   2.10432973E+06   0.29764989      
  17               3.98107171E-06   2.57481890E-03   671.33949336     1.08683671E-07   2.77798778E+16   3.71583570E+08   0.00000000E+00   2.08770080E+06   0.29750703      
  18               5.01187234E-06   3.21618797E-03   675.87439034     1.34845175E-07   3.44668244E+16   3.71583570E+08   0.00000000E+00   2.07094720E+06   0.29742736      
  19               6.30957344E-06   4.01300379E-03   689.45475996     1.64939036E-07   4.21589353E+16   3.71583571E+08   0.00000000E+00   2.05405141E+06   0.29727134      
  20               7.94328235E-06   5.00278305E-03   693.95137114     2.04287789E-07   5.22165858E+16   3.71583571E+08   0.00000000E+00   2.03700019E+06   0.29717639      
  21               1.00000000E-05   6.23213097E-03   707.57776722     2.49588204E-07   6.37952337E+16   3.71583571E+08   0.00000000E+00   2.01978381E+06   0.29700964      
  22               1.25892541E-05   7.75858340E-03   712.15329055     3.08724322E-07   7.89104985E+16   3.71583572E+08   0.00000000E+00   2.00239436E+06   0.29690035      
  23               1.58489319E-05   9.65337236E-03   726.02993826     3.76778458E-07   9.63053400E+16   3.71583573E+08   0.00000000E+00   1.98482595E+06   0.29672091      
  24               1.99526231E-05   1.20043174E-02   730.73386186     4.65521809E-07   1.18988250E+17   3.71583573E+08   0.00000000E+00   1.96707468E+06   0.29659825      
  25               2.51188643E-05   1.49201611E-02   744.87765373     5.67609968E-07   1.45082291E+17   3.71583575E+08   0.00000000E+00   1.94913688E+06   0.29640931      
  26               3.16227766E-05   1.85348352E-02   749.76446216     7.00528160E-07   1.79056346E+17   3.71583576E+08   0.00000000E+00   1.93100965E+06   0.29627478      
  27               3.98107171E-05   2.30139147E-02   764.21834191     8.53364227E-07   2.18121704E+17   3.71583578E+08   0.00000000E+00   1.91269036E+06   0.29607382      
  28               5.01187234E-05   2.85630907E-02   769.32535280     1.05209953E-06   2.68918694E+17   3.71583581E+08   0.00000000E+00   1.89417070E+06   0.29585122      
  29               6.30957344E-05   3.54366249E-02   784.36593102     1.28025062E-06   3.27234790E+17   3.71583584E+08   0.00000000E+00   1.87544215E+06   0.2956704       
  30               7.94328235E-05   4.39456835E-02   790.04243821     1.57625848E-06   4.02894782E+17   3.71583588E+08   0.00000000E+00   1.85650039E+06   0.29548546      
  31               1.00000000E-04   5.44711235E-02   805.98596638     1.91513865E-06   4.89513522E+17   3.71583594E+08   0.00000000E+00   1.83734344E+06   0.29525096      
  32               1.25892541E-04   6.74783380E-02   812.72268745     2.35279229E-06   6.01378412E+17   3.71583600E+08   0.00000000E+00   1.81796618E+06   0.29510499      
  33               1.58489319E-04   8.35311958E-02   830.24873019     2.85103079E-06   7.28729445E+17   3.71583610E+08   0.00000000E+00   1.79836602E+06   0.29488906      
  34               1.99526231E-04   1.03308482E-01   838.46135803     3.49151982E-06   8.92439465E+17   3.71583621E+08   0.00000000E+00   1.77854351E+06   0.29466913      
  35               2.51188643E-04   1.27632858E-01   857.88482943     4.21594892E-06   1.07760437E+18   3.71583637E+08   0.00000000E+00   1.75849478E+06   0.29430748      
  36               3.16227766E-04   1.57483289E-01   868.27220614     5.13973105E-06   1.31372485E+18   3.71583657E+08   0.00000000E+00   1.73821643E+06   0.29399316      
  37               3.98107171E-04   1.94017977E-01   890.17347948     6.17633582E-06   1.57867656E+18   3.71583684E+08   0.00000000E+00   1.71771095E+06   0.29364167      
  38               5.01187234E-04   2.38593940E-01   903.12444963     7.48643592E-06   1.91354046E+18   3.71583717E+08   0.00000000E+00   1.69698102E+06   0.29330641      
  39               6.30957344E-04   2.92829387E-01   927.89737563     8.94295094E-06   2.28581223E+18   3.71583761E+08   0.00000000E+00   1.67602033E+06   0.29282431      
  40               7.94328235E-04   3.58597859E-01   944.10437477     1.07637229E-05   2.75114526E+18   3.71583813E+08   0.00000000E+00   1.65482225E+06   0.29232435      
  41               1.00000000E-03   4.38138455E-01   972.26111355     1.27702824E-05   3.26403116E+18   3.71583881E+08   0.00000000E+00   1.63336829E+06   0.29172052      
  42               1.25892541E-03   5.34071197E-01   992.31540196     1.52517610E-05   3.89830005E+18   3.71583960E+08   0.00000000E+00   1.61163094E+06   0.29110534      
  43               1.58489319E-03   6.49411336E-01   1024.72341818    1.79588669E-05   4.59027858E+18   3.71584060E+08   0.00000000E+00   1.58959249E+06   0.29038555      
  44               1.99526231E-03   7.87409496E-01   1049.52595687    2.12603282E-05   5.43417104E+18   3.71584174E+08   0.00000000E+00   1.56725940E+06   0.28961013      
  45               2.51188643E-03   9.51718745E-01   1086.71569275    2.48168889E-05   6.34334780E+18   3.71584319E+08   0.00000000E+00   1.54463883E+06   0.28872274      
  46               3.16227766E-03   1.14651567E+00   1116.78073316    2.90911659E-05   7.43597498E+18   3.71584478E+08   0.00000000E+00   1.52171285E+06   0.28774489      
  47               3.98107171E-03   1.37642010E+00   1159.25071745    3.36443368E-05   8.60002022E+18   3.71584675E+08   0.00000000E+00   1.49847420E+06   0.28662467      
  48               5.01187234E-03   1.64665610E+00   1195.00251270    3.90449511E-05   9.98067532E+18   3.71584881E+08   0.00000000E+00   1.47489631E+06   0.28532547      
  49               6.30957344E-03   1.96321503E+00   1242.78606369    4.47600853E-05   1.14418786E+19   3.71585130E+08   0.00000000E+00   1.45095065E+06   0.2838676       
  50               7.94328235E-03   2.33316734E+00   1283.75726979    5.14961752E-05   1.31640285E+19   3.71585377E+08   0.00000000E+00   1.42658304E+06   0.28224645      
  51               1.00000000E-02   2.76410670E+00   1336.01382416    5.86200855E-05   1.49854466E+19   3.71585660E+08   0.00000000E+00   1.40177995E+06   0.2805186       
  52               1.25892541E-02   3.26382301E+00   1381.07942700    6.69582439E-05   1.71172417E+19   3.71585931E+08   0.00000000E+00   1.37655686E+06   0.27868095      
  53               1.58489319E-02   3.84324602E+00   1436.57468936    7.57979641E-05   1.93774139E+19   3.71586210E+08   0.00000000E+00   1.35083717E+06   0.27683073      
  54               1.99526231E-02   4.51936838E+00   1484.62567306    8.62457324E-05   2.20488842E+19   3.71586469E+08   0.00000000E+00   1.32439308E+06   0.27478258      
  55               2.51188643E-02   5.31280661E+00   1542.52819481    9.75798217E-05   2.49469086E+19   3.71586735E+08   0.00000000E+00   1.29704234E+06   0.27273397      
  56               3.16227766E-02   6.22708747E+00   1592.24125263    1.10840449E-04   2.83270882E+19   3.71586997E+08   0.00000000E+00   1.26923955E+06   0.27057616      
  57               3.98107171E-02   7.25487620E+00   1650.32366348    1.24591753E-04   3.18410015E+19   3.71587284E+08   0.00000000E+00   1.24158205E+06   0.26858052      
  58               5.01187234E-02   8.36198220E+00   1699.74853592    1.39451081E-04   3.56328371E+19   3.71604629E+08   0.00000000E+00   1.21502128E+06   0.26648953      
  59               6.30957344E-02   9.46196234E+00   1756.36563915    1.52783327E-04   3.90204364E+19   3.70650526E+08   9.45669622E+05   1.19118960E+06   0.26458103      
  60               7.94328235E-02   1.04843840E+01   1804.57764615    1.64966214E-04   4.20816911E+19   3.65505066E+08   6.08628362E+06   1.17082224E+06   0.26254002      
  61               1.00000000E-01   1.14121483E+01   1844.94067439    1.75633433E-04   4.48033864E+19   3.58883134E+08   1.26933570E+07   1.15358622E+06   0.26083336      
  62               1.25892541E-01   1.22149158E+01   1877.93974510    1.84732992E-04   4.71123386E+19   3.51722628E+08   1.98560889E+07   1.13949228E+06   0.2592977       
  63               1.58489319E-01   1.28551396E+01   1902.79040290    1.91873043E-04   4.89341089E+19   3.44766127E+08   2.68175350E+07   1.12873871E+06   0.25791268      
  64               1.99526231E-01   1.36111725E+01   1931.10240140    2.00174500E-04   5.10523896E+19   3.36544997E+08   3.50419162E+07   1.11653956E+06   0.25667753      
  65               2.51188643E-01   1.44967937E+01   1962.40592073    2.09784106E-04   5.35067967E+19   3.25964800E+08   4.56245085E+07   1.10287305E+06   0.25562019      
  66               3.16227766E-01   1.51550108E+01   1984.87562793    2.17022136E-04   5.53030126E+19   3.15434116E+08   5.61534804E+07   1.09311665E+06   0.25488513      
  67               3.98107171E-01   1.56272365E+01   2000.32771878    2.22052194E-04   5.65857234E+19   3.06284131E+08   6.52988837E+07   1.08631412E+06   0.25419631      
  68               5.01187234E-01   1.61974712E+01   2018.72751218    2.28052087E-04   5.81159518E+19   2.96986071E+08   7.45947099E+07   1.07830086E+06   0.25342431      
  69               6.30957344E-01   1.68811782E+01   2039.84234880    2.35212199E-04   5.99421050E+19   2.87077051E+08   8.44999991E+07   1.06896567E+06   0.25247372      
  70               7.94328235E-01   1.76948742E+01   2064.30274027    2.43619842E-04   6.20868933E+19   2.76476603E+08   9.50959502E+07   1.05821647E+06   0.25140225      
  71               1.00000000E+00   1.86617025E+01   2091.92225732    2.53527623E-04   6.46147341E+19   2.65108321E+08   1.06459104E+08   1.04591433E+06   0.25010199      
  72               1.25892541E+00   1.98031990E+01   2123.25035537    2.65050948E-04   6.75553870E+19   2.52649054E+08   1.18911932E+08   1.03198925E+06   0.24864995      
  73               1.58489319E+00   2.11426883E+01   2157.87146183    2.78419246E-04   7.09676582E+19   2.38890022E+08   1.32663225E+08   1.01639640E+06   0.24696126      
  74               1.99526231E+00   2.27055458E+01   2196.19529525    2.93755932E-04   7.48836196E+19   2.23745296E+08   1.47798940E+08   9.99115065E+05   0.24510274      
  75               2.51188643E+00   2.45195322E+01   2237.68843338    3.11307431E-04   7.93667144E+19   2.07211489E+08   1.64322895E+08   9.80145953E+05   0.24287567      
  76               3.16227766E+00   2.66153485E+01   2282.60479043    3.31219560E-04   8.44553705E+19   1.89467382E+08   1.82056876E+08   9.59506326E+05   0.24045342      
  77               3.98107171E+00   2.90263813E+01   2330.35234539    3.53796608E-04   9.02188205E+19   1.70920477E+08   2.00594129E+08   9.37233092E+05   0.23771066      
  78               5.01187234E+00   3.17910221E+01   2381.09567483    3.79154143E-04   9.67060144E+19   1.52440093E+08   2.19066364E+08   9.13362886E+05   0.23477044      
  79               6.30957344E+00   3.49529835E+01   2434.26025610    4.07652917E-04   1.04002333E+20   1.34698631E+08   2.36802353E+08   8.87929393E+05   0.23160455      
  80               7.94328235E+00   3.85608412E+01   2489.98380655    4.39524747E-04   1.12169767E+20   1.18058075E+08   2.53441157E+08   8.60975864E+05   0.22826371      
  81               1.00000000E+01   4.26700777E+01   2547.68110616    4.75164727E-04   1.21312124E+20   1.02792148E+08   2.68709274E+08   8.32541005E+05   0.22469296      
  82               1.25892541E+01   4.73465351E+01   2607.51900282    5.14904137E-04   1.31518413E+20   8.91458698E+07   2.82361609E+08   8.02643425E+05   0.22094939      
  83               1.58489319E+01   5.26669843E+01   2668.97532726    5.59273868E-04   1.42928795E+20   7.70672480E+07   2.94450603E+08   7.71290520E+05   0.21713583      
  84               1.99526231E+01   5.87204921E+01   2732.31864884    6.08714028E-04   1.55662564E+20   6.64562798E+07   3.05076382E+08   7.38481456E+05   0.21313101      
  85               2.51188643E+01   6.56092549E+01   2796.94683932    6.63924666E-04   1.69905224E+20   5.72811761E+07   3.14271587E+08   7.04214034E+05   0.20918135      
  86               3.16227766E+01   7.34477512E+01   2863.27217994    7.25418560E-04   1.85798289E+20   4.94214087E+07   3.22157968E+08   6.68496125E+05   0.20529792      
  87               3.98107171E+01   8.23648252E+01   2930.65016578    7.94033094E-04   2.03565249E+20   4.25556078E+07   3.29059153E+08   6.31341207E+05   0.20148662      
  88               5.01187234E+01   9.25049266E+01   2999.50705292    8.70382767E-04   2.23378214E+20   3.65478720E+07   3.35113932E+08   5.92768854E+05   0.19774085      
  89               6.30957344E+01   1.04025742E+02   3069.13276898    9.55444847E-04   2.45499711E+20   3.12010775E+07   3.40521048E+08   5.52817269E+05   0.19402882      
  90               7.94328235E+01   1.17079663E+02   3139.80837422    1.04975948E-03   2.70087299E+20   2.64879383E+07   3.45309425E+08   5.11597784E+05   0.19047785      
  91               1.00000000E+02   1.31827634E+02   3210.77676399    1.15423018E-03   2.97387142E+20   2.24121493E+07   3.49476767E+08   4.69228540E+05   0.18716833      
  92               1.25892541E+02   1.48439544E+02   3282.42621895    1.26935727E-03   3.27552167E+20   1.89668143E+07   3.53027983E+08   4.25828381E+05   0.1840292       
  93               1.58489319E+02   1.67098316E+02   3353.97220283    1.39615972E-03   3.60859759E+20   1.60230803E+07   3.56087115E+08   3.81504933E+05   0.18123083      
  94               1.99526231E+02   1.88003545E+02   3426.04322751    1.53511552E-03   3.97465136E+20   1.35134382E+07   3.58712884E+08   3.36347728E+05   0.17869732      
  95               2.51188643E+02   2.11376096E+02   3497.85744533    1.68746005E-03   4.37703083E+20   1.13564753E+07   3.60972146E+08   2.90424868E+05   0.17643656      
  96               3.16227766E+02   2.37463420E+02   3570.17423329    1.85376539E-03   4.81762671E+20   9.52364429E+06   3.62874865E+08   2.43780878E+05   0.17438342      
  97               3.98107171E+02   2.66545164E+02   3642.21489388    2.03560329E-03   5.30067383E+20   7.98323210E+06   3.64429099E+08   1.96437784E+05   0.17248115      
  98               5.01187234E+02   2.98936926E+02   3714.79600021    2.23374180E-03   5.82868297E+20   6.71891216E+06   3.65626171E+08   1.48400129E+05   0.17073972      
  99               6.30957344E+02   3.34992173E+02   3787.16486125    2.45012241E-03   6.40687555E+20   5.65238057E+06   3.66525037E+08   9.96620714E+04   0.16921121      
  100              7.94328235E+02   3.75109354E+02   3860.25377568    2.68565556E-03   7.03830168E+20   4.74791354E+06   3.67152518E+08   5.02057605E+04   0.16778643      
  101              1.00000000E+03   4.19741930E+02   3933.22511023    2.94284155E-03   7.72964221E+20   4.31494456E+06   3.67410852E+08   0.00000000E+00   0.16657248      
