# ATMO pressure-temperature profile
# Effective temperature = 200.0K
# log(g) = 2.5cm/s^2
# M/H = 0.0
# Optical depth grid in band 17 (1.20-1.33microns)
# All parameters in cgs units
#
# Model Level      Optical Depth    Pressure         Temperature      Density          Number Density   Rad Flux         Conv Flux        Radial Extension Adiabatic Gradient
#                                   [Ba]             [K]              [g/cm^3]         [/cm^3]          [ergs/s/cm^2/sr] [ergs/s/cm^2/sr] [cm]             [K/Ba]          
  1                5.00000000E-04   1.00000000E-05   28.18464887      1.00586294E-08   2.56988217E+15   9.06710614E+04   0.00000000E+00   4.97286387E+08   0.34574459      
  2                5.78069831E-04   4.58769361E-05   34.08635877      3.81562101E-08   9.74854127E+15   9.06710614E+04   0.00000000E+00   4.91495257E+08   0.34574459      
  3                6.68329458E-04   8.73209676E-05   37.28424568      6.63964126E-08   1.69636389E+16   9.06710614E+04   0.00000000E+00   4.88891460E+08   0.34574459      
  4                7.72682194E-04   1.35195064E-04   39.47494891      9.70936202E-08   2.48064774E+16   9.06710614E+04   0.00000000E+00   4.87005933E+08   0.31479372      
  5                8.93328530E-04   1.90492207E-04   41.51604503      1.30080643E-07   3.32343415E+16   9.06710614E+04   0.00000000E+00   4.85449963E+08   0.31480521      
  6                1.03281254E-03   2.54360406E-04   43.13115350      1.67189836E-07   4.27153802E+16   9.06710614E+04   0.00000000E+00   4.84080427E+08   0.31481525      
  7                1.19407555E-03   3.28118889E-04   44.85772008      2.07369782E-07   5.29809663E+16   9.06710614E+04   0.00000000E+00   4.82827764E+08   0.31482437      
  8                1.38051810E-03   4.13288091E-04   46.29801394      2.53070758E-07   6.46571220E+16   9.06710614E+04   0.00000000E+00   4.81652085E+08   0.31483285      
  9                1.59607173E-03   5.11626254E-04   47.89909966      3.02814668E-07   7.73662081E+16   9.06710614E+04   0.00000000E+00   4.80528741E+08   0.3148409       
  10               1.84528182E-03   6.25148637E-04   49.25347292      3.59830412E-07   9.19331772E+16   9.06710614E+04   0.00000000E+00   4.79441204E+08   0.31484863      
  11               2.13340350E-03   7.56170797E-04   50.84716275      4.21603894E-07   1.07715702E+17   9.06710614E+04   0.00000000E+00   4.78377445E+08   0.31485615      
  12               2.46651240E-03   9.07375934E-04   52.20410529      4.92758399E-07   1.25894987E+17   9.06710614E+04   0.00000000E+00   4.77328392E+08   0.31486351      
  13               2.85163282E-03   1.08183977E-03   53.83578092      5.69696253E-07   1.45551862E+17   9.06710615E+04   0.00000000E+00   4.76287114E+08   0.31487076      
  14               3.29688580E-03   1.28308044E-03   55.27879523      6.58031600E-07   1.68120686E+17   9.06710614E+04   0.00000000E+00   4.75247743E+08   0.31487795      
  15               3.81166043E-03   1.51513308E-03   57.06695120      7.52692426E-07   1.92305608E+17   9.06710614E+04   0.00000000E+00   4.74205055E+08   0.31488512      
  16               4.40681180E-03   1.78267556E-03   58.65289993      8.61656677E-07   2.20144916E+17   9.06710616E+04   0.00000000E+00   4.73154504E+08   0.31489228      
  17               5.09488990E-03   2.09105131E-03   60.58397652      9.78494416E-07   2.49995824E+17   9.06710614E+04   0.00000000E+00   4.72092481E+08   0.31489946      
  18               5.89040429E-03   2.44634358E-03   62.33185351      1.11265071E-06   2.84271454E+17   9.06710613E+04   0.00000000E+00   4.71015701E+08   0.31490668      
  19               6.81013002E-03   2.85546766E-03   64.51825430      1.25471784E-06   3.20568229E+17   9.06710618E+04   0.00000000E+00   4.69920730E+08   0.31491397      
  20               7.87346142E-03   3.32642401E-03   66.58842228      1.41621868E-06   3.61830125E+17   9.06710614E+04   0.00000000E+00   4.68803500E+08   0.31492133      
  21               9.10282102E-03   3.86838512E-03   69.20195879      1.58475727E-06   4.04890098E+17   9.06710606E+04   0.00000000E+00   4.67659512E+08   0.3149288       
  22               1.05241324E-02   4.49162552E-03   72.00998176      1.76832577E-06   4.51790068E+17   9.06690212E+04   0.00000000E+00   4.66482196E+08   0.31493637      
  23               1.21673669E-02   5.20422557E-03   75.42316852      1.95615280E-06   4.99778051E+17   9.06618380E+04   1.92986230E+01   4.65270585E+08   0.31494408      
  24               1.40671754E-02   6.01313224E-03   78.93966832      2.15951833E-06   5.51735968E+17   9.06450759E+04   2.64469677E+01   4.64026017E+08   0.31495193      
  25               1.62636194E-02   6.92808271E-03   82.53531323      2.37971362E-06   6.07993728E+17   9.06185918E+04   5.25377625E+01   4.62749705E+08   0.31495994      
  26               1.88030155E-02   7.96190985E-03   86.23711122      2.61742648E-06   6.68727058E+17   9.05815142E+04   8.97537685E+01   4.61439774E+08   0.31496807      
  27               2.17389119E-02   9.13126333E-03   90.03475665      2.87522680E-06   7.34592537E+17   9.05339857E+04   1.37117524E+02   4.60091828E+08   0.31497631      
  28               2.51332183E-02   1.04553253E-02   93.96420024      3.15447118E-06   8.05936765E+17   9.04771905E+04   1.93910308E+02   4.58701527E+08   0.31498467      
  29               2.90575105E-02   1.19557440E-02   98.01170817      3.45819984E-06   8.83536488E+17   9.04142992E+04   2.56799745E+02   4.57264966E+08   0.31499319      
  30               3.35945403E-02   1.36575533E-02   102.21459881     3.78801256E-06   9.67800437E+17   9.03504082E+04   3.20689583E+02   4.55778071E+08   0.31500191      
  31               3.88399805E-02   1.55895603E-02   106.55758794     4.14763872E-06   1.05968143E+18   9.02899308E+04   3.81166163E+02   4.54236717E+08   0.31501087      
  32               4.49044419E-02   1.77847024E-02   111.08017571     4.53901303E-06   1.15967390E+18   9.02362196E+04   4.34876935E+02   4.52636859E+08   0.3150201       
  33               5.19158062E-02   2.02802725E-02   115.76370528     4.96652460E-06   1.26889944E+18   9.01931161E+04   4.77980112E+02   4.50974737E+08   0.31502966      
  34               6.00219227E-02   2.31183624E-02   120.64849077     5.43232621E-06   1.38790907E+18   9.01670351E+04   5.04087256E+02   4.49246883E+08   0.31794539      
  35               6.93937253E-02   2.63463575E-02   125.80735851     5.93694769E-06   1.51684211E+18   9.01596401E+04   5.11473330E+02   4.47449427E+08   0.32029826      
  36               8.02288381E-02   3.00182101E-02   131.17550155     6.48745788E-06   1.65751665E+18   9.01680241E+04   5.03074789E+02   4.45578459E+08   0.3225926       
  37               9.27557418E-02   3.41954370E-02   136.84817109     7.08338252E-06   1.80990175E+18   9.01797334E+04   4.91364031E+02   4.43629824E+08   0.3240439       
  38               1.07238592E-01   3.89478304E-02   142.72554643     7.73630293E-06   1.97654813E+18   9.01776128E+04   4.93483700E+02   4.41599688E+08   0.32562898      
  39               1.23982789E-01   4.43549250E-02   148.94523171     8.44242391E-06   2.15695500E+18   9.01367987E+04   5.34296761E+02   4.39483941E+08   0.32597685      
  40               1.43341420E-01   5.05077704E-02   155.34469308     9.21751150E-06   2.35498213E+18   9.00298575E+04   6.41238878E+02   4.37278296E+08   0.3252648       
  41               1.65722701E-01   5.75097126E-02   162.07512217     1.00595083E-05   2.57010389E+18   8.98290533E+04   8.42041925E+02   4.34978850E+08   0.32501615      
  42               1.91598587E-01   6.54782020E-02   169.02010785     1.09827293E-05   2.80597767E+18   8.95023244E+04   1.16877064E+03   4.32581494E+08   0.32477397      
  43               2.21514726E-01   7.45450826E-02   176.32394428     1.19855951E-05   3.06219997E+18   8.90078009E+04   1.66329452E+03   4.30082455E+08   0.32435989      
  44               2.56101960E-01   8.48586432E-02   183.84897627     1.30853912E-05   3.34318729E+18   8.82509354E+04   2.42016476E+03   4.27478189E+08   0.32339062      
  45               2.96089634E-01   9.65866191E-02   191.73095352     1.42815842E-05   3.64880431E+18   8.70244351E+04   3.64666900E+03   4.24765240E+08   0.32218609      
  46               3.42320969E-01   1.09908250E-01   199.82688472     1.55929182E-05   3.98384300E+18   8.49491198E+04   5.72199700E+03   4.21942275E+08   0.32033569      
  47               3.95770849E-01   1.25025802E-01   208.25552798     1.70197074E-05   4.34839464E+18   8.13128082E+04   9.35830766E+03   4.19007724E+08   0.31863347      
  48               4.57566375E-01   1.42169616E-01   216.90518135     1.85814665E-05   4.74747519E+18   7.56788487E+04   1.49922843E+04   4.15959187E+08   0.31668969      
  49               5.29010634E-01   1.61603846E-01   225.88770395     2.02808172E-05   5.18185123E+18   6.85162248E+04   2.21549323E+04   4.12793379E+08   0.31511756      
  50               6.11610175E-01   1.83633976E-01   235.12264477     2.21381910E-05   5.65697709E+18   6.11619439E+04   2.95092615E+04   4.09505595E+08   0.31329503      
  51               7.07106781E-01   2.08617187E-01   244.70167323     2.41565261E-05   6.17502877E+18   5.49013717E+04   3.57698201E+04   4.06089264E+08   0.31180223      
  52               8.17514195E-01   2.36952161E-01   254.57384970     2.63877176E-05   6.74175123E+18   5.01321870E+04   4.05390251E+04   4.02540275E+08   0.31013377      
  53               9.45160584E-01   2.69096086E-01   264.80423444     2.88096130E-05   7.36051658E+18   4.64866263E+04   4.41846065E+04   3.98853647E+08   0.30881781      
  54               1.09273764E+00   3.05569057E-01   275.37387339     3.14587607E-05   8.03734260E+18   4.33378284E+04   4.73334509E+04   3.95022475E+08   0.30739557      
  55               1.26335732E+00   3.46930694E-01   286.31355943     3.43522966E-05   8.77660692E+18   4.03789530E+04   5.02923540E+04   3.91043704E+08   0.3063199       
  56               1.46061751E+00   3.93810234E-01   297.62725827     3.75119173E-05   9.58385278E+18   3.76946357E+04   5.29768419E+04   3.86913982E+08   0.30519423      
  57               1.68867783E+00   4.46919885E-01   309.32117188     4.09614196E-05   1.04651600E+19   3.55058761E+04   5.51655642E+04   3.82629470E+08   0.30433817      
  58               1.95234742E+00   5.07056437E-01   321.42526852     4.47230335E-05   1.14262080E+19   3.38026802E+04   5.68689113E+04   3.78186377E+08   0.3034363       
  59               2.25718628E+00   5.75102074E-01   333.91878247     4.88268890E-05   1.24746947E+19   3.24377044E+04   5.82338263E+04   3.73581637E+08   0.30276175      
  60               2.60962258E+00   6.52033914E-01   346.85349615     5.32940933E-05   1.36160127E+19   3.12672754E+04   5.94044644E+04   3.68812530E+08   0.30212158      
  61               3.01708817E+00   7.38964062E-01   360.19328188     5.81624481E-05   1.48598200E+19   3.01806473E+04   6.04909671E+04   3.63875002E+08   0.30167487      
  62               3.48817529E+00   8.37149769E-01   374.01410284     6.34556297E-05   1.62121653E+19   2.90649243E+04   6.16070651E+04   3.58764167E+08   0.30124338      
  63               4.03281780E+00   9.48003536E-01   388.26328781     6.92211154E-05   1.76851794E+19   2.78665415E+04   6.28052995E+04   3.53474893E+08   0.30091872      
  64               4.66250061E+00   1.07308914E+00   403.02968183     7.54838431E-05   1.92852205E+19   2.65611260E+04   6.41112137E+04   3.48002704E+08   0.30062036      
  65               5.39050188E+00   1.21407555E+00   418.23837658     8.22956857E-05   2.10255649E+19   2.51518713E+04   6.55201662E+04   3.42346022E+08   0.30041467      
  66               6.23217301E+00   1.37275996E+00   433.97947208     8.96769131E-05   2.29113803E+19   2.37206969E+04   6.69513230E+04   3.36504778E+08   0.3002328       
  67               7.20526240E+00   1.55114101E+00   450.16369952     9.76868360E-05   2.49578200E+19   2.23359230E+04   6.83358790E+04   3.30477928E+08   0.30009881      
  68               8.33028963E+00   1.75136568E+00   466.88986497     1.06345081E-04   2.71699118E+19   2.09945906E+04   6.96792156E+04   3.24265793E+08   0.29997041      
  69               9.63097823E+00   1.97596492E+00   484.06744050     1.15726713E-04   2.95664510E+19   1.96678506E+04   7.10062217E+04   3.17863517E+08   0.29985402      
  70               1.11347559E+01   2.22775975E+00   501.81861028     1.25858298E-04   3.21549198E+19   1.80707248E+04   7.26034118E+04   3.11265869E+08   0.29972737      
  71               1.28733329E+01   2.50976573E+00   520.03652921     1.36823374E-04   3.49562771E+19   1.57134747E+04   7.49623123E+04   3.04470118E+08   0.29960435      
  72               1.48833708E+01   2.82533510E+00   538.84829480     1.48650604E-04   3.79777553E+19   1.34730420E+04   7.72039741E+04   2.97472799E+08   0.29948109      
  73               1.72072553E+01   3.17801736E+00   558.13295474     1.61428586E-04   4.12424483E+19   1.23395202E+04   7.83350902E+04   2.90273171E+08   0.29937298      
  74               1.98939903E+01   3.57150039E+00   578.01219115     1.75189830E-04   4.47547920E+19   1.17440077E+04   7.89437803E+04   2.82873902E+08   0.29925265      
  75               2.30002312E+01   4.01030137E+00   598.36814892     1.90021919E-04   4.85438684E+19   1.11842265E+04   7.95107848E+04   2.75268690E+08   0.29910195      
  76               2.65914795E+01   4.49931129E+00   619.34922592     2.05970747E-04   5.26182356E+19   1.06675562E+04   8.00271793E+04   2.67452178E+08   0.29892436      
  77               3.07434641E+01   5.04356353E+00   640.81044991     2.23153101E-04   5.70077302E+19   1.02123348E+04   8.04818456E+04   2.59424388E+08   0.29873832      
  78               3.55437382E+01   5.64864042E+00   662.90359228     2.41595279E-04   6.17190733E+19   9.82901948E+03   8.08655869E+04   2.51183673E+08   0.29853305      
  79               4.10935254E+01   6.32019263E+00   685.46255205     2.61421489E-04   6.67839990E+19   9.50081570E+03   8.11932781E+04   2.42733513E+08   0.29829801      
  80               4.75098546E+01   7.06391581E+00   708.62362966     2.82633959E-04   7.22030800E+19   9.22349135E+03   8.14703773E+04   2.34081274E+08   0.29800086      
  81               5.49280272E+01   7.88692980E+00   732.22542195     3.05391751E-04   7.80169579E+19   8.99907279E+03   8.16931907E+04   2.25222648E+08   0.29765186      
  82               6.35044707E+01   8.79807012E+00   756.47462613     3.29751507E-04   8.42401038E+19   8.82750989E+03   8.18624720E+04   2.16143121E+08   0.29724938      
  83               7.34200373E+01   9.80675920E+00   781.21368714     3.55917193E-04   9.09246227E+19   8.71779445E+03   8.19683637E+04   2.06832268E+08   0.29680972      
  84               8.48838171E+01   1.09238178E+01   806.66026008     3.83951744E-04   9.80865872E+19   8.68426848E+03   8.19968740E+04   1.97276554E+08   0.29632024      
  85               9.81375475E+01   1.21598777E+01   832.62084543     4.14071229E-04   1.05781024E+20   8.73412871E+03   8.19418270E+04   1.87473444E+08   0.29578142      
  86               1.13460711E+02   1.35251241E+01   859.26948535     4.46277487E-04   1.14008625E+20   8.86974092E+03   8.18020178E+04   1.77430266E+08   0.29517496      
  87               1.31176428E+02   1.50295295E+01   886.35597604     4.80763803E-04   1.22818291E+20   9.10264131E+03   8.15695754E+04   1.67159642E+08   0.29451886      
  88               1.51658271E+02   1.66871632E+01   914.11678341     5.17579957E-04   1.32222898E+20   9.44805197E+03   8.12550487E+04   1.56651295E+08   0.2937895       
  89               1.75338142E+02   1.85118474E+01   942.31788358     5.56991457E-04   1.42291241E+20   9.88317951E+03   8.07927875E+04   1.45904604E+08   0.29299843      
  90               2.02715380E+02   2.05180785E+01   971.17955989     5.99008611E-04   1.53025213E+20   1.03591876E+04   8.03119821E+04   1.34921119E+08   0.29218186      
  91               2.34367291E+02   2.27199896E+01   1000.43636958    6.43894323E-04   1.64491892E+20   1.08401785E+04   7.98868109E+04   1.23709302E+08   0.29127824      
  92               2.70961321E+02   2.51309504E+01   1030.27478788    6.91596053E-04   1.76677677E+20   1.12514997E+04   7.94277061E+04   1.12284289E+08   0.29029711      
  93               3.13269130E+02   2.77635666E+01   1060.38804194    7.42351012E-04   1.89642763E+20   1.15468218E+04   7.91243528E+04   1.00665607E+08   0.28930852      
  94               3.62182865E+02   3.06308145E+01   1090.98567025    7.96056204E-04   2.03359909E+20   1.17721066E+04   7.90420292E+04   8.88708461E+07   0.28823667      
  95               4.18733975E+02   3.37568192E+01   1121.84321864    8.53179826E-04   2.17949155E+20   1.20764701E+04   7.86747973E+04   7.68759139E+07   0.28709777      
  96               4.84114957E+02   3.71700532E+01   1153.30776078    9.13815783E-04   2.33439212E+20   1.25128159E+04   7.81803730E+04   6.46518255E+07   0.28598093      
  97               5.59704502E+02   4.09001987E+01   1185.14820567    9.78504674E-04   2.49964650E+20   1.29885431E+04   7.76827252E+04   5.21775588E+07   0.28480197      
  98               6.47096573E+02   4.49726984E+01   1217.62688312    1.04723553E-03   2.67522650E+20   1.34188292E+04   7.72636806E+04   3.94554984E+07   0.28364731      
  99               7.48134013E+02   4.94100025E+01   1250.42349534    1.12038436E-03   2.86209200E+20   1.37790864E+04   7.71167037E+04   2.65012110E+07   0.2824158       
  100              8.64947405E+02   5.42315688E+01   1283.73549646    1.19780401E-03   3.05986635E+20   1.40441627E+04   7.67736857E+04   1.33395170E+07   0.28113017      
  101              1.00000000E+03   5.94540772E+01   1317.19676464    1.27965382E-03   3.26931545E+20   1.41217339E+04   7.65605743E+04   0.00000000E+00   0.279871        
