# ATMO pressure-temperature profile
# Effective temperature = 1700.0K
# log(g) = 4.5cm/s^2
# M/H = 0.0
# Optical depth grid in band 17 (1.20-1.33microns)
# All parameters in cgs units
#
# Model Level      Optical Depth    Pressure         Temperature      Density          Number Density   Rad Flux         Conv Flux        Radial Extension Adiabatic Gradient
#                                   [Ba]             [K]              [g/cm^3]         [/cm^3]          [ergs/s/cm^2/sr] [ergs/s/cm^2/sr] [cm]             [K/Ba]          
  1                5.00000000E-06   1.00000000E-05   467.25348003     6.06752151E-10   1.55014847E+14   4.73555591E+08   0.00000000E+00   2.33953859E+07   0.29800254      
  2                6.05313423E-06   1.05537117E-04   541.08727325     5.52970226E-09   1.41274489E+15   4.73555591E+08   0.00000000E+00   2.17460253E+07   0.29746287      
  3                7.32808679E-06   2.12513397E-04   574.10229175     1.04944761E-08   2.68116087E+15   4.73555591E+08   0.00000000E+00   2.13019504E+07   0.29726341      
  4                8.87157859E-06   3.37153589E-04   595.99163757     1.60380394E-08   4.09744810E+15   4.73555591E+08   0.00000000E+00   2.09981404E+07   0.29702456      
  5                1.07401712E-05   4.83748196E-04   615.11231507     2.22960916E-08   5.69627275E+15   4.73555591E+08   0.00000000E+00   2.07529925E+07   0.29672165      
  6                1.30023396E-05   6.56928685E-04   630.20920387     2.95526996E-08   7.55021509E+15   4.73555591E+08   0.00000000E+00   2.05396458E+07   0.29653843      
  7                1.57409813E-05   8.62217618E-04   645.39123516     3.78755838E-08   9.67653049E+15   4.73555591E+08   0.00000000E+00   2.03456073E+07   0.29625766      
  8                1.90564546E-05   1.10605595E-03   658.21900373     4.76400672E-08   1.21711754E+16   4.73555591E+08   0.00000000E+00   2.01640824E+07   0.296093        
  9                2.30702555E-05   1.39603146E-03   671.88793219     5.89064768E-08   1.50495739E+16   4.73555591E+08   0.00000000E+00   1.99909838E+07   0.29581264      
  10               2.79294706E-05   1.74112137E-03   683.61442082     7.22078558E-08   1.84477613E+16   4.73555591E+08   0.00000000E+00   1.98236595E+07   0.29565483      
  11               3.38121669E-05   2.15200522E-03   696.40653714     8.76084189E-08   2.23823829E+16   4.73555591E+08   0.00000000E+00   1.96602964E+07   0.29537012      
  12               4.09339169E-05   2.64135779E-03   707.40712621     1.05857707E-07   2.70447918E+16   4.73555591E+08   0.00000000E+00   1.94996069E+07   0.2952144       
  13               4.95556987E-05   3.22424861E-03   719.63620054     1.27021906E-07   3.24519919E+16   4.73555591E+08   0.00000000E+00   1.93406473E+07   0.29491946      
  14               5.99934592E-05   3.91853432E-03   730.26121956     1.52127509E-07   3.88661262E+16   4.73555591E+08   0.00000000E+00   1.91827062E+07   0.29476072      
  15               7.26296922E-05   4.74538357E-03   742.25814093     1.81249501E-07   4.63065251E+16   4.73555591E+08   0.00000000E+00   1.90252412E+07   0.29445169      
  16               8.79274551E-05   5.72983645E-03   752.73629387     2.15803759E-07   5.51347245E+16   4.73555591E+08   0.00000000E+00   1.88678331E+07   0.29428723      
  17               1.06447338E-04   6.90172124E-03   764.74029257     2.55859160E-07   6.53686146E+16   4.73555591E+08   0.00000000E+00   1.87101247E+07   0.29396069      
  18               1.28868005E-04   8.29710587E-03   775.30822586     3.03395308E-07   7.75136307E+16   4.73555591E+08   0.00000000E+00   1.85517488E+07   0.29378576      
  19               1.56011066E-04   9.95882172E-03   787.50258637     3.58517532E-07   9.15971179E+16   4.73555591E+08   0.00000000E+00   1.83924190E+07   0.29343719      
  20               1.88871184E-04   1.19375100E-02   798.33847061     4.23916304E-07   1.08306003E+17   4.73555591E+08   0.00000000E+00   1.82319164E+07   0.29337963      
  21               2.28652526E-04   1.42928361E-02   811.08275706     4.99579493E-07   1.27637734E+17   4.73555591E+08   0.00000000E+00   1.80700678E+07   0.29309681      
  22               2.76812886E-04   1.70950029E-02   822.57834967     5.89171885E-07   1.50528157E+17   4.73555591E+08   0.00000000E+00   1.79067360E+07   0.29289888      
  23               3.35117111E-04   2.04263337E-02   836.08980319     6.92606060E-07   1.76955203E+17   4.73555591E+08   0.00000000E+00   1.77418235E+07   0.29248398      
  24               4.05701771E-04   2.43829923E-02   848.44178540     8.14726931E-07   2.08156891E+17   4.73555591E+08   0.00000000E+00   1.75752601E+07   0.29223476      
  25               4.91153455E-04   2.90766065E-02   863.12470355     9.55032998E-07   2.44003475E+17   4.73555591E+08   0.00000000E+00   1.74069956E+07   0.2917886       
  26               5.94603558E-04   3.46362582E-02   876.84729447     1.11983178E-06   2.86109871E+17   4.73555591E+08   0.00000000E+00   1.72369905E+07   0.29147397      
  27               7.19843029E-04   4.12098709E-02   893.08603631     1.30815281E-06   3.34221046E+17   4.73555591E+08   0.00000000E+00   1.70652396E+07   0.29088134      
  28               8.71461295E-04   4.89661699E-02   908.48585995     1.52800803E-06   3.90394600E+17   4.73555591E+08   0.00000000E+00   1.68917544E+07   0.29047135      
  29               1.05501444E-03   5.80980442E-02   926.62772553     1.77745315E-06   4.54131955E+17   4.73555591E+08   0.00000000E+00   1.67165285E+07   0.28986802      
  30               1.27722880E-03   6.88334023E-02   944.13470090     2.06682402E-06   5.28069539E+17   4.73555591E+08   0.00000000E+00   1.65394093E+07   0.28950981      
  31               1.54624747E-03   8.14394008E-02   964.51208902     2.39363925E-06   6.11579238E+17   4.73555591E+08   0.00000000E+00   1.63601853E+07   0.28888107      
  32               1.87192870E-03   9.62167675E-02   984.43268646     2.77071651E-06   7.07930423E+17   4.73555591E+08   0.00000000E+00   1.61787291E+07   0.28840619      
  33               2.26620714E-03   1.13501985E-01   1007.54826412    3.19343522E-06   8.15949797E+17   4.73555591E+08   0.00000000E+00   1.59949696E+07   0.28762902      
  34               2.74353120E-03   1.33667929E-01   1030.47875236    3.67708539E-06   9.39537280E+17   4.73555591E+08   0.00000000E+00   1.58088733E+07   0.28706577      
  35               3.32139252E-03   1.57119009E-01   1056.80226379    4.21447855E-06   1.07686394E+18   4.73555591E+08   0.00000000E+00   1.56204914E+07   0.28625576      
  36               4.02096694E-03   1.84282072E-01   1083.17605164    4.82267519E-06   1.23228136E+18   4.73555591E+08   0.00000000E+00   1.54299617E+07   0.28563088      
  37               4.86789053E-03   2.15602527E-01   1113.18116447    5.49017553E-06   1.40285840E+18   4.73555592E+08   0.00000000E+00   1.52374792E+07   0.28461793      
  38               5.89319895E-03   2.51559160E-01   1143.39209395    6.23647426E-06   1.59356870E+18   4.73555592E+08   0.00000000E+00   1.50431597E+07   0.28370959      
  39               7.13446485E-03   2.92769559E-01   1177.31155969    7.04895096E-06   1.80119341E+18   4.73555592E+08   0.00000000E+00   1.48466088E+07   0.28241517      
  40               8.63717467E-03   3.39900089E-01   1211.68266198    7.95150792E-06   2.03183400E+18   4.73555593E+08   0.00000000E+00   1.46475344E+07   0.28127459      
  41               1.04563955E-02   3.93627343E-01   1250.01889871    8.92592188E-06   2.28083842E+18   4.73555593E+08   0.00000000E+00   1.44458634E+07   0.27973083      
  42               1.26587931E-02   4.54623829E-01   1288.93516295    9.99778337E-06   2.55474150E+18   4.73555594E+08   0.00000000E+00   1.42416772E+07   0.27856656      
  43               1.53250748E-02   5.23584017E-01   1331.65968191    1.11448548E-05   2.84786219E+18   4.73555595E+08   0.00000000E+00   1.40350870E+07   0.27720366      
  44               1.85529469E-02   6.01171016E-01   1374.67902594    1.23958953E-05   3.16754335E+18   4.73555596E+08   0.00000000E+00   1.38263435E+07   0.27584335      
  45               2.24606956E-02   6.88215829E-01   1421.25484224    1.37257532E-05   3.50734542E+18   4.73555596E+08   0.00000000E+00   1.36153171E+07   0.27403311      
  46               2.71915211E-02   7.85588774E-01   1468.32838006    1.51658873E-05   3.87523385E+18   4.73555609E+08   0.00000000E+00   1.34018945E+07   0.27242592      
  47               3.29187854E-02   8.93761748E-01   1520.64862504    1.66660973E-05   4.25714781E+18   4.73153201E+08   4.02475065E+05   1.31867118E+07   0.27040933      
  48               3.98523653E-02   1.01228506E+00   1572.52560909    1.82542966E-05   4.66262984E+18   4.71614548E+08   1.94122917E+06   1.29718258E+07   0.26839869      
  49               4.82463432E-02   1.13851221E+00   1622.71740771    1.98975746E-05   5.08183589E+18   4.69081697E+08   4.47491539E+06   1.27623776E+07   0.26660929      
  50               5.84083183E-02   1.26818217E+00   1669.91617929    2.15463862E-05   5.50063478E+18   4.65570549E+08   7.99406319E+06   1.25643279E+07   0.26504624      
  51               7.07106781E-02   1.39124611E+00   1711.28104149    2.30824660E-05   5.88855131E+18   4.61371711E+08   1.22300170E+07   1.23898135E+07   0.26365565      
  52               8.56042452E-02   1.49922453E+00   1745.26107838    2.43972054E-05   6.22203023E+18   4.56923916E+08   1.68210081E+07   1.22459176E+07   0.26230652      
  53               1.03634797E-01   1.58797018E+00   1771.69745008    2.54553907E-05   6.49200167E+18   4.52657103E+08   2.10304880E+07   1.21333049E+07   0.26101339      
  54               1.25463068E-01   1.68830108E+00   1800.22199894    2.66334079E-05   6.79281321E+18   4.47368131E+08   2.64753190E+07   1.20114531E+07   0.26011751      
  55               1.51888958E-01   1.76830830E+00   1821.97693917    2.75857623E-05   7.02976729E+18   4.42437856E+08   3.24371315E+07   1.19181011E+07   0.2594493       
  56               1.83880850E-01   1.82838361E+00   1837.84537144    2.82761323E-05   7.20583295E+18   4.38320427E+08   3.60480287E+07   1.18500800E+07   0.25868221      
  57               2.22611093E-01   1.89748297E+00   1855.51738606    2.90646296E-05   7.40693780E+18   4.33707223E+08   3.98472612E+07   1.17738577E+07   0.25777469      
  58               2.69498965E-01   1.97714163E+00   1875.28475478    2.99647204E-05   7.63653590E+18   4.28363946E+08   4.51868939E+07   1.16884995E+07   0.2567264       
  59               3.26262682E-01   2.06841276E+00   1897.07105308    3.09868904E-05   7.89731481E+18   4.22080770E+08   5.14730942E+07   1.15937799E+07   0.25551993      
  60               3.94982361E-01   2.17191730E+00   1920.86070047    3.21331450E-05   8.18979920E+18   4.14788749E+08   5.87618543E+07   1.14900523E+07   0.2541914       
  61               4.78176250E-01   2.28886983E+00   1946.55292474    3.34146374E-05   8.51688373E+18   4.06769399E+08   6.67455618E+07   1.13771858E+07   0.25268967      
  62               5.78893005E-01   2.42201988E+00   1974.51010788    3.48554575E-05   8.88472893E+18   3.98015175E+08   7.54679077E+07   1.12538077E+07   0.25099986      
  63               7.00823412E-01   2.57308701E+00   2004.60239115    3.64705558E-05   9.29719773E+18   3.88175994E+08   8.52961404E+07   1.11198203E+07   0.24904555      
  64               8.48435636E-01   2.74389506E+00   2036.84615348    3.82719615E-05   9.75742249E+18   3.77043465E+08   9.64171103E+07   1.09752438E+07   0.24690301      
  65               1.02713896E+00   2.93643034E+00   2071.07250783    4.02755223E-05   1.02695222E+19   3.64449904E+08   1.08998670E+08   1.08201657E+07   0.2445238       
  66               1.24348200E+00   3.15286996E+00   2107.25024692    4.24952125E-05   1.08371675E+19   3.50270426E+08   1.23165941E+08   1.06547231E+07   0.2419187       
  67               1.50539269E+00   3.39561065E+00   2145.18054303    4.49493379E-05   1.14651536E+19   3.34432165E+08   1.38992286E+08   1.04790875E+07   0.23908406      
  68               1.82246880E+00   3.66731370E+00   2184.81266588    4.76546831E-05   1.21579316E+19   3.16928802E+08   1.56483825E+08   1.02934430E+07   0.23607137      
  69               2.20632965E+00   3.97094212E+00   2225.94939968    5.06329549E-05   1.29212375E+19   2.97768129E+08   1.75632905E+08   1.00979751E+07   0.23274352      
  70               2.67104190E+00   4.30977879E+00   2268.48351064    5.39057310E-05   1.37608478E+19   2.76953583E+08   1.96438496E+08   9.89287822E+06   0.22911592      
  71               3.23363503E+00   4.68717422E+00   2312.17268460    5.75023286E-05   1.46830632E+19   2.54660865E+08   2.18722661E+08   9.67851399E+06   0.22520517      
  72               3.91472538E+00   5.10717167E+00   2356.91371712    6.14384639E-05   1.56950467E+19   2.31502956E+08   2.41868725E+08   9.45506033E+06   0.2211596       
  73               4.73927163E+00   5.57454252E+00   2402.58031026    6.57526331E-05   1.68057214E+19   2.08039417E+08   2.65322376E+08   9.22252495E+06   0.21698413      
  74               5.73748947E+00   6.09422867E+00   2449.05993447    7.04767849E-05   1.80237507E+19   1.84693882E+08   2.88661755E+08   8.98110887E+06   0.2127246       
  75               6.94595877E+00   6.67167744E+00   2496.20709404    7.56467745E-05   1.93588818E+19   1.62039062E+08   3.11311707E+08   8.73101655E+06   0.20844204      
  76               8.40896415E+00   7.31303564E+00   2543.94802382    8.13011061E-05   2.08216574E+19   1.40796297E+08   3.32551080E+08   8.47239611E+06   0.20413618      
  77               1.01801177E+01   8.02503212E+00   2592.14444070    8.74834272E-05   2.24240174E+19   1.21672122E+08   3.51673626E+08   8.20541975E+06   0.19984184      
  78               1.23243238E+01   8.81506650E+00   2640.73779149    9.42384402E-05   2.41783217E+19   1.04930921E+08   3.68414637E+08   7.93026592E+06   0.19559588      
  79               1.49201573E+01   9.69119695E+00   2689.60554452    1.01616439E-04   2.60984472E+19   9.05330764E+07   3.82813455E+08   7.64713999E+06   0.19146965      
  80               1.80627429E+01   1.06621420E+01   2738.72333601    1.09666857E-04   2.81982489E+19   7.81874254E+07   3.95161323E+08   7.35628117E+06   0.18731221      
  81               2.18672415E+01   1.17373378E+01   2787.88685651    1.18450284E-04   3.04944145E+19   6.76487343E+07   4.05703004E+08   7.05795639E+06   0.18338593      
  82               2.64730696E+01   1.29269072E+01   2837.21226778    1.28015763E-04   3.30011171E+19   5.86338881E+07   4.14721237E+08   6.75246583E+06   0.17974889      
  83               3.20490087E+01   1.42416636E+01   2886.52698831    1.38428028E-04   3.57364116E+19   5.08517627E+07   4.22507020E+08   6.44013882E+06   0.1762942       
  84               3.87993903E+01   1.56932274E+01   2935.90398143    1.49742827E-04   3.87165151E+19   4.41516761E+07   4.29210985E+08   6.12130877E+06   0.17303344      
  85               4.69715834E+01   1.72940866E+01   2985.18633487    1.62032000E-04   4.19615985E+19   3.83768553E+07   4.34989822E+08   5.79630532E+06   0.1700325       
  86               5.68650599E+01   1.90575347E+01   3034.50148940    1.75353236E-04   4.54888758E+19   3.33465172E+07   4.40024501E+08   5.46546857E+06   0.16719647      
  87               6.88423680E+01   2.09967217E+01   3083.61892779    1.89780831E-04   4.93192689E+19   2.89178938E+07   4.44458325E+08   5.12930941E+06   0.16451627      
  88               8.33424188E+01   2.31252933E+01   3132.65250214    2.05366674E-04   5.34688530E+19   2.50369620E+07   4.48345440E+08   4.78834785E+06   0.1620493       
  89               1.00896570E+02   2.54580612E+01   3181.42681630    2.22189917E-04   5.79601136E+19   2.16412188E+07   4.51748395E+08   4.44300333E+06   0.15985843      
  90               1.22148096E+02   2.80111249E+01   3230.13856480    2.40306669E-04   6.28109318E+19   1.86753028E+07   4.54722765E+08   4.09360184E+06   0.15782497      
  91               1.47875764E+02   3.08021371E+01   3278.57003068    2.59816133E-04   6.80490747E+19   1.61030356E+07   4.57305037E+08   3.74037492E+06   0.1559571       
  92               1.79022369E+02   3.38503847E+01   3326.95928752    2.80784011E-04   7.36956685E+19   1.38982755E+07   4.59521498E+08   3.38348115E+06   0.15426471      
  93               2.16729286E+02   3.71771027E+01   3375.11405002    3.03327259E-04   7.97834713E+19   1.19972350E+07   4.61435921E+08   3.02300057E+06   0.15277849      
  94               2.62378292E+02   4.08056907E+01   3423.32251663    3.27521743E-04   8.63373583E+19   1.03556124E+07   4.63092693E+08   2.65894337E+06   0.15142447      
  95               3.17642204E+02   4.47620506E+01   3471.35991479    3.53512798E-04   9.33976973E+19   8.93009267E+06   4.64535144E+08   2.29125429E+06   0.1502113       
  96               3.84546179E+02   4.90748658E+01   3519.54547060    3.81391592E-04   1.00994653E+20   7.69872130E+06   4.65785140E+08   1.91982145E+06   0.14912898      
  97               4.65541927E+02   5.37758834E+01   3567.65514782    4.11333099E-04   1.09176841E+20   6.63207591E+06   4.66871890E+08   1.54448832E+06   0.14819483      
  98               5.63597555E+02   5.89002136E+01   3616.03878730    4.43444540E-04   1.17980336E+20   5.71563342E+06   4.67809750E+08   1.16506147E+06   0.1473552       
  99               6.82306330E+02   6.44866032E+01   3664.43797653    4.77939094E-04   1.27464124E+20   4.93085836E+06   4.68617002E+08   7.81325415E+05   0.14661376      
  100              8.26018359E+02   7.05776405E+01   3713.21767268    5.14942263E-04   1.37671031E+20   4.26427279E+06   4.69306810E+08   3.93056094E+05   0.14595739      
  101              1.00000000E+03   7.72205572E+01   3762.10768063    5.54708177E-04   1.48671440E+20   3.94953226E+06   4.69635185E+08   0.00000000E+00   0.14540798      
