# ATMO pressure-temperature profile
# Effective temperature = 200.0K
# log(g) = 3.0cm/s^2
# M/H = 0.0
# Optical depth grid in band 17 (1.20-1.33microns)
# All parameters in cgs units
#
# Model Level      Optical Depth    Pressure         Temperature      Density          Number Density   Rad Flux         Conv Flux        Radial Extension Adiabatic Gradient
#                                   [Ba]             [K]              [g/cm^3]         [/cm^3]          [ergs/s/cm^2/sr] [ergs/s/cm^2/sr] [cm]             [K/Ba]          
  1                1.00000000E-04   1.00000000E-05   25.15166796      1.12718183E-08   2.87977826E+15   9.06706468E+04   0.00000000E+00   1.64291128E+08   0.34574472      
  2                1.17489755E-04   3.05144180E-05   29.72588521      2.91025514E-08   7.43525957E+15   9.06706468E+04   0.00000000E+00   1.63158475E+08   0.34574472      
  3                1.38038426E-04   5.46045990E-05   32.48361107      4.76568892E-08   1.21756109E+16   9.06706468E+04   0.00000000E+00   1.62511613E+08   0.34574472      
  4                1.62181010E-04   8.28925608E-05   34.02313100      6.90720029E-08   1.76468469E+16   9.06706468E+04   0.00000000E+00   1.62018567E+08   0.34574472      
  5                1.90546072E-04   1.16107255E-04   35.76148951      9.20459166E-08   2.35163327E+16   9.06706468E+04   0.00000000E+00   1.61602007E+08   0.31479384      
  6                2.23872114E-04   1.55104227E-04   36.88142277      1.19227582E-07   3.04608352E+16   9.06706468E+04   0.00000000E+00   1.61229752E+08   0.31480363      
  7                2.63026799E-04   2.00884981E-04   38.40504056      1.48292781E-07   3.78865518E+16   9.06706468E+04   0.00000000E+00   1.60885454E+08   0.31481263      
  8                3.09029543E-04   2.54626572E-04   39.37981464      1.83311971E-07   4.68334224E+16   9.06706468E+04   0.00000000E+00   1.60559501E+08   0.31482109      
  9                3.63078055E-04   3.17704783E-04   40.84161181      2.20537095E-07   5.63438759E+16   9.06706468E+04   0.00000000E+00   1.60245781E+08   0.31482919      
  10               4.26579519E-04   3.91730925E-04   41.79380188      2.65727651E-07   6.78893762E+16   9.06706468E+04   0.00000000E+00   1.59939989E+08   0.31483703      
  11               5.01187234E-04   4.78598122E-04   43.25841187      3.13661481E-07   8.01357412E+16   9.06706468E+04   0.00000000E+00   1.59639099E+08   0.3148447       
  12               5.88843655E-04   5.80516765E-04   44.21189381      3.72251467E-07   9.51045923E+16   9.06706468E+04   0.00000000E+00   1.59340833E+08   0.31485225      
  13               6.91830971E-04   7.00065830E-04   45.74225579      4.33892429E-07   1.10852921E+17   9.06706468E+04   0.00000000E+00   1.59043367E+08   0.31485974      
  14               8.12830516E-04   8.40273873E-04   46.74670781      5.09601385E-07   1.30195409E+17   9.06706468E+04   0.00000000E+00   1.58745195E+08   0.3148672       
  15               9.54992586E-04   1.00468323E-03   48.35537772      5.89040482E-07   1.50490891E+17   9.06706468E+04   0.00000000E+00   1.58445114E+08   0.31487466      
  16               1.12201845E-03   1.19741697E-03   49.43620491      6.86690524E-07   1.75438992E+17   9.06706468E+04   0.00000000E+00   1.58142071E+08   0.31488215      
  17               1.31825674E-03   1.42326958E-03   51.18354465      7.88347286E-07   2.01410750E+17   9.06706468E+04   0.00000000E+00   1.57835108E+08   0.3148897       
  18               1.54881662E-03   1.68787106E-03   52.36562401      9.13805469E-07   2.33463409E+17   9.06706468E+04   0.00000000E+00   1.57523358E+08   0.31489731      
  19               1.81970086E-03   1.99778889E-03   54.22396330      1.04452564E-06   2.66860427E+17   9.06706469E+04   0.00000000E+00   1.57206138E+08   0.31490502      
  20               2.13796209E-03   2.36062790E-03   55.48141234      1.20625964E-06   3.08181005E+17   9.06706469E+04   0.00000000E+00   1.56882891E+08   0.31491284      
  21               2.51188643E-03   2.78517518E-03   57.47056024      1.37394028E-06   3.51020859E+17   9.06706468E+04   0.00000000E+00   1.56553113E+08   0.31492079      
  22               2.95120923E-03   3.28169177E-03   58.81090700      1.58197888E-06   4.04171559E+17   9.06706469E+04   0.00000000E+00   1.56216331E+08   0.31492888      
  23               3.46736850E-03   3.86217412E-03   60.94122937      1.79672416E-06   4.59035716E+17   9.06706473E+04   0.00000000E+00   1.55872022E+08   0.31493713      
  24               4.07380278E-03   4.54040936E-03   62.44266114      2.06145746E-06   5.26671050E+17   9.06706467E+04   0.00000000E+00   1.55519609E+08   0.31494557      
  25               4.78630092E-03   5.33218754E-03   64.94046712      2.32782741E-06   5.94724523E+17   9.06706473E+04   0.00000000E+00   1.55158165E+08   0.31495421      
  26               5.62341325E-03   6.25563400E-03   66.90903504      2.65061917E-06   6.77192913E+17   9.06706483E+04   0.00000000E+00   1.54786405E+08   0.31496307      
  27               6.60693448E-03   7.33200152E-03   70.05143160      2.96733310E-06   7.58108509E+17   9.06706461E+04   0.00000000E+00   1.54402606E+08   0.31497218      
  28               7.76247117E-03   8.58457437E-03   73.14192345      3.32746242E-06   8.50116078E+17   9.06658743E+04   0.00000000E+00   1.54003982E+08   0.31498155      
  29               9.12010839E-03   1.00331556E-02   76.78202184      3.70457827E-06   9.46463446E+17   9.06555518E+04   8.45776035E+01   1.53591394E+08   0.31499123      
  30               1.07151931E-02   1.16991388E-02   80.63291702      4.11341278E-06   1.05091445E+18   9.06343545E+04   4.25129974E+01   1.53164618E+08   0.31500123      
  31               1.25892541E-02   1.36108491E-02   84.52414426      4.56525674E-06   1.16635372E+18   9.06021543E+04   6.87948213E+01   1.52723466E+08   0.31501155      
  32               1.47910839E-02   1.58051434E-02   88.64760030      5.05466322E-06   1.29138963E+18   9.05588158E+04   1.11892057E+02   1.52266676E+08   0.31502218      
  33               1.73780083E-02   1.83272576E-02   92.82941220      5.59722356E-06   1.43000555E+18   9.05052348E+04   1.65653996E+02   1.51792508E+08   0.31503317      
  34               2.04173794E-02   2.12295493E-02   97.28282439      6.18678996E-06   1.58063081E+18   9.04434233E+04   2.27277077E+02   1.51299309E+08   0.31504457      
  35               2.39883292E-02   2.45723636E-02   101.81375714     6.84228623E-06   1.74810014E+18   9.03782391E+04   2.92459247E+02   1.50785527E+08   0.31505647      
  36               2.81838293E-02   2.84249404E-02   106.65284986     7.55592898E-06   1.93042502E+18   9.03170771E+04   3.53620011E+02   1.50249722E+08   0.31506896      
  37               3.31131121E-02   3.28678623E-02   111.58543693     8.35073514E-06   2.13348591E+18   9.02653632E+04   4.05334290E+02   1.49690399E+08   0.31508211      
  38               3.89045145E-02   3.79948880E-02   116.86406673     9.21732355E-06   2.35488668E+18   9.02285178E+04   4.42195636E+02   1.49106012E+08   0.31739582      
  39               4.57088190E-02   4.39140531E-02   122.33372513     1.01769499E-05   2.60005875E+18   9.02098220E+04   4.61175451E+02   1.48494860E+08   0.32044184      
  40               5.37031796E-02   5.07493524E-02   128.22194090     1.12208835E-05   2.86677757E+18   9.02115583E+04   4.59822889E+02   1.47855221E+08   0.32263552      
  41               6.30957344E-02   5.86421257E-02   134.29854486     1.23791946E-05   3.16274543E+18   9.02294876E+04   4.41356437E+02   1.47185537E+08   0.32449999      
  42               7.41310241E-02   6.77559269E-02   140.82917068     1.36386809E-05   3.48482127E+18   9.02437014E+04   4.27007561E+02   1.46484135E+08   0.32582505      
  43               8.70963590E-02   7.82819075E-02   147.55253708     1.50409608E-05   3.84273608E+18   9.02195726E+04   4.51123580E+02   1.45749217E+08   0.32559692      
  44               1.02329299E-01   9.04412503E-02   154.71371448     1.65729183E-05   4.23412411E+18   9.01130059E+04   5.57694050E+02   1.44979072E+08   0.32515745      
  45               1.20226443E-01   1.04488015E-01   162.07765417     1.82769860E-05   4.66948705E+18   8.98801732E+04   7.90527772E+02   1.44171977E+08   0.3249061       
  46               1.41253754E-01   1.20711599E-01   169.92857258     2.01392753E-05   5.14527313E+18   8.94896982E+04   1.18100008E+03   1.43326362E+08   0.3245905       
  47               1.65958691E-01   1.39442553E-01   177.99335227     2.22102160E-05   5.67436652E+18   8.88813773E+04   1.78934565E+03   1.42440713E+08   0.32360355      
  48               1.94984460E-01   1.61064262E-01   186.55114335     2.44772418E-05   6.25355700E+18   8.78818081E+04   2.78893402E+03   1.41513387E+08   0.32229581      
  49               2.29086765E-01   1.86017537E-01   195.31787233     2.70005732E-05   6.89823117E+18   8.61372025E+04   4.53363065E+03   1.40542744E+08   0.32029393      
  50               2.69153480E-01   2.14781453E-01   204.56627327     2.97661938E-05   7.60481375E+18   8.28823844E+04   7.78845233E+03   1.39528132E+08   0.31843769      
  51               3.16227766E-01   2.47902171E-01   214.02266891     3.28382036E-05   8.38969928E+18   7.73243353E+04   1.33465641E+04   1.38468760E+08   0.31631057      
  52               3.71535229E-01   2.86013021E-01   223.96483847     3.62041879E-05   9.24978852E+18   6.97680361E+04   2.09028635E+04   1.37363462E+08   0.31452821      
  53               4.36515832E-01   3.29870409E-01   234.14311395     3.99390319E-05   1.02044079E+19   6.18666159E+04   2.88044940E+04   1.36210102E+08   0.31250701      
  54               5.12861384E-01   3.80386013E-01   244.83902190     4.40380135E-05   1.12530369E+19   5.53070848E+04   3.53641833E+04   1.35005585E+08   0.31089223      
  55               6.02559586E-01   4.38606822E-01   255.82857110     4.85810501E-05   1.24180149E+19   5.05251559E+04   4.01461025E+04   1.33746860E+08   0.30917584      
  56               7.07945784E-01   5.05746689E-01   267.37982754     5.36249348E-05   1.37003054E+19   4.70974406E+04   4.35737790E+04   1.32431443E+08   0.30783721      
  57               8.31763771E-01   5.83129827E-01   279.27090576     5.91975657E-05   1.51239559E+19   4.42380500E+04   4.64333319E+04   1.31057999E+08   0.30638794      
  58               9.77237221E-01   6.72196648E-01   291.73411913     6.53240987E-05   1.66891784E+19   4.16820004E+04   4.89894144E+04   1.29625721E+08   0.30527247      
  59               1.14815362E+00   7.74650973E-01   304.56395908     7.21093980E-05   1.84227051E+19   3.95658402E+04   5.11060799E+04   1.28132934E+08   0.30415454      
  60               1.34896288E+00   8.92411639E-01   317.99436462     7.95628094E-05   2.03269230E+19   3.80766566E+04   5.25951419E+04   1.26578225E+08   0.30335202      
  61               1.58489319E+00   1.02770705E+00   331.83272395     8.78040265E-05   2.24324116E+19   3.71579180E+04   5.35144221E+04   1.24959508E+08   0.30257296      
  62               1.86208714E+00   1.18304045E+00   346.30993477     9.68498494E-05   2.47434630E+19   3.65937441E+04   5.40785181E+04   1.23275058E+08   0.3019968       
  63               2.18776162E+00   1.36123740E+00   361.22890075     1.06835526E-04   2.72946307E+19   3.60873380E+04   5.45853192E+04   1.21523224E+08   0.30144188      
  64               2.57039578E+00   1.56546938E+00   376.82005063     1.17780904E-04   3.00909856E+19   3.53878875E+04   5.52844751E+04   1.19702566E+08   0.30106272      
  65               3.01995172E+00   1.79919763E+00   392.87543588     1.29833959E-04   3.31703332E+19   3.43419233E+04   5.63298733E+04   1.17812488E+08   0.30074435      
  66               3.54813389E+00   2.06648551E+00   409.63799262     1.43019934E-04   3.65391108E+19   3.29655888E+04   5.77058292E+04   1.15850995E+08   0.3005334       
  67               4.16869383E+00   2.37172889E+00   426.88888497     1.57512359E-04   4.02416738E+19   3.13958231E+04   5.92784972E+04   1.13817277E+08   0.30030554      
  68               4.89778819E+00   2.71962381E+00   444.85627596     1.73321944E-04   4.42807485E+19   2.98040995E+04   6.08692954E+04   1.11711735E+08   0.30011294      
  69               5.75439937E+00   3.11514278E+00   463.28921803     1.90629468E-04   4.87025391E+19   2.82219978E+04   6.24512301E+04   1.09535802E+08   0.29993811      
  70               6.76082975E+00   3.56349094E+00   482.41699007     2.09421550E-04   5.35030948E+19   2.66449428E+04   6.40282683E+04   1.07291862E+08   0.29981652      
  71               7.94328235E+00   4.07114752E+00   501.99872181     2.29923079E-04   5.87408285E+19   2.49911325E+04   6.56823333E+04   1.04978370E+08   0.29968519      
  72               9.33254301E+00   4.64574519E+00   522.32441457     2.52164231E-04   6.44229932E+19   2.25652392E+04   6.81097215E+04   1.02592038E+08   0.29955902      
  73               1.09647820E+01   5.29556886E+00   543.13908374     2.76422159E-04   7.06199497E+19   1.94243956E+04   7.12537779E+04   1.00130718E+08   0.29942097      
  74               1.28824955E+01   6.02908174E+00   564.72053605     3.02682624E-04   7.73291845E+19   1.74769127E+04   7.32042546E+04   9.75948443E+07   0.29931504      
  75               1.51356125E+01   6.85482978E+00   586.75872396     3.31238922E-04   8.46180394E+19   1.66704683E+04   7.40111927E+04   9.49869389E+07   0.29919668      
  76               1.77827941E+01   7.78220448E+00   609.53692961     3.61998813E-04   9.24758761E+19   1.59010002E+04   7.47818657E+04   9.23088130E+07   0.29905481      
  77               2.08929613E+01   8.82360560E+00   632.77714721     3.95366449E-04   1.00999946E+20   1.51975693E+04   7.54870530E+04   8.95560770E+07   0.29883776      
  78               2.45470892E+01   9.99222373E+00   656.81300967     4.31345104E-04   1.10191030E+20   1.45979626E+04   7.60889269E+04   8.67262475E+07   0.2986059       
  79               2.88403150E+01   1.13012973E+01   681.31138522     4.70313083E-04   1.20145772E+20   1.40720052E+04   7.66167503E+04   8.38198294E+07   0.29831642      
  80               3.38844156E+01   1.27638038E+01   706.57485279     5.12184295E-04   1.30842183E+20   1.35989466E+04   7.70906302E+04   8.08400017E+07   0.29803273      
  81               3.98107171E+01   1.43927482E+01   732.22358381     5.57319450E-04   1.42372416E+20   1.31623574E+04   7.75269723E+04   7.77911167E+07   0.29766273      
  82               4.67735141E+01   1.62060162E+01   758.62068958     6.05697221E-04   1.54731033E+20   1.27826438E+04   7.79045015E+04   7.46702007E+07   0.29728695      
  83               5.49540874E+01   1.82295461E+01   785.51580867     6.57998176E-04   1.68091892E+20   1.24802188E+04   7.82037669E+04   7.14648946E+07   0.29679225      
  84               6.45654229E+01   2.04911548E+01   813.32649194     7.14340105E-04   1.82485077E+20   1.22948689E+04   7.83830058E+04   6.81661201E+07   0.29631303      
  85               7.58577575E+01   2.30167876E+01   841.70950537     7.75328632E-04   1.98065264E+20   1.22423222E+04   7.84292836E+04   6.47724096E+07   0.29569844      
  86               8.91250938E+01   2.58297266E+01   870.96040876     8.40862238E-04   2.14806409E+20   1.23360411E+04   7.83340214E+04   6.12885947E+07   0.29511266      
  87               1.04712855E+02   2.89498033E+01   900.64934587     9.11371478E-04   2.32817552E+20   1.25710183E+04   7.83158656E+04   5.77244481E+07   0.29435791      
  88               1.23026877E+02   3.24002115E+01   931.04677447     9.86697644E-04   2.52058986E+20   1.29854695E+04   7.77688890E+04   5.40858738E+07   0.29360193      
  89               1.44543977E+02   3.62184742E+01   961.87509171     1.06762525E-03   2.72732762E+20   1.35329924E+04   7.71518284E+04   5.03656904E+07   0.29270437      
  90               1.69824365E+02   4.04408085E+01   993.46081727     1.15418709E-03   2.94845787E+20   1.41047317E+04   7.65680594E+04   4.65620003E+07   0.29182041      
  91               1.99526231E+02   4.50993967E+01   1025.44373484    1.24699928E-03   3.18555227E+20   1.46157379E+04   7.62724665E+04   4.26788591E+07   0.29079044      
  92               2.34422882E+02   5.02227582E+01   1058.05569745    1.34586192E-03   3.43809497E+20   1.49549929E+04   7.57892887E+04   3.87240840E+07   0.2897816       
  93               2.75422870E+02   5.58358176E+01   1090.90470065    1.45123511E-03   3.70725028E+20   1.50800606E+04   7.56164647E+04   3.47077409E+07   0.28868448      
  94               3.23593657E+02   6.19611997E+01   1124.19622504    1.56278937E-03   3.99211952E+20   1.51977904E+04   7.54750876E+04   3.06403586E+07   0.2876076       
  95               3.80189396E+02   6.86619712E+01   1157.75044725    1.68160310E-03   4.29563280E+20   1.55617682E+04   7.51787758E+04   2.65069069E+07   0.28643015      
  96               4.46683592E+02   7.60203070E+01   1192.01009598    1.80830360E-03   4.61929315E+20   1.60642517E+04   7.46121123E+04   2.22872008E+07   0.28524877      
  97               5.24807460E+02   8.40998833E+01   1226.70299564    1.94391479E-03   4.96571519E+20   1.65259122E+04   7.43983978E+04   1.79778253E+07   0.28400042      
  98               6.16595002E+02   9.29539174E+01   1262.07158979    2.08835756E-03   5.33469441E+20   1.69047088E+04   7.38674909E+04   1.35834191E+07   0.28271712      
  99               7.24435960E+02   1.02625936E+02   1297.72791042    2.24230728E-03   5.72795143E+20   1.71730491E+04   7.35237550E+04   9.11383401E+06   0.28142813      
  100              8.51138038E+02   1.13151145E+02   1333.87611968    2.40528400E-03   6.14425593E+20   1.72942963E+04   7.33803070E+04   4.58172744E+06   0.2801055       
  101              1.00000000E+03   1.24559305E+02   1370.07977788    2.57754756E-03   6.58500575E+20   1.72764030E+04   7.34033901E+04   0.00000000E+00   0.27879031      
