# ATMO pressure-temperature profile
# Effective temperature = 600.0K
# log(g) = 5.5cm/s^2
# M/H = 0.0
# Optical depth grid in band 17 (1.20-1.33microns)
# All parameters in cgs units
#
# Model Level      Optical Depth    Pressure         Temperature      Density          Number Density   Rad Flux         Conv Flux        Radial Extension Adiabatic Gradient
#                                   [Ba]             [K]              [g/cm^3]         [/cm^3]          [ergs/s/cm^2/sr] [ergs/s/cm^2/sr] [cm]             [K/Ba]          
  1                8.00000000E-07   1.00000000E-05   66.24372885      4.27949734E-09   1.09340503E+15   7.34804403E+06   0.00000000E+00   1.22758033E+06   0.34574476      
  2                9.86413681E-07   8.92753643E-05   87.87564724      2.88005397E-08   7.35849390E+15   7.34804403E+06   0.00000000E+00   1.20499942E+06   0.34574476      
  3                1.21626494E-06   1.78632504E-04   99.56189230      5.08630684E-08   1.29955056E+16   7.34804403E+06   0.00000000E+00   1.19761651E+06   0.31479555      
  4                1.49967547E-06   2.84938035E-04   105.13525400     7.68228424E-08   1.96303434E+16   7.34804403E+06   0.00000000E+00   1.19223865E+06   0.31510655      
  5                1.84912550E-06   4.12809076E-04   113.60908050     1.03008767E-07   2.63185545E+16   7.34804403E+06   0.00000000E+00   1.18769306E+06   0.31608164      
  6                2.28000336E-06   5.67229479E-04   118.31812311     1.35908155E-07   3.47242889E+16   7.34804403E+06   0.00000000E+00   1.18356596E+06   0.32119941      
  7                2.81128314E-06   7.54121040E-04   126.61905460     1.68841805E-07   4.31387773E+16   7.34804403E+06   0.00000000E+00   1.17966451E+06   0.32193539      
  8                3.46636019E-06   9.80615390E-04   130.86265834     2.12432501E-07   5.42761215E+16   7.34804403E+06   0.00000000E+00   1.17588263E+06   0.3247701       
  9                4.27408139E-06   1.25553772E-03   138.83092806     2.56378459E-07   6.55042348E+16   7.34804403E+06   0.00000000E+00   1.17215735E+06   0.32505226      
  10               5.27001545E-06   1.58951151E-03   142.83361729     3.15479562E-07   8.06044618E+16   7.34804403E+06   0.00000000E+00   1.16844383E+06   0.325925        
  11               6.49801917E-06   1.99551747E-03   150.92831560     3.74820020E-07   9.57658458E+16   7.34804403E+06   0.00000000E+00   1.16471017E+06   0.32594745      
  12               8.01216876E-06   2.48914778E-03   155.08332072     4.55012334E-07   1.16254943E+17   7.34804403E+06   0.00000000E+00   1.16093028E+06   0.32547274      
  13               9.87914110E-06   3.08951822E-03   163.34202504     5.36204955E-07   1.36999400E+17   7.34804403E+06   0.00000000E+00   1.15708664E+06   0.3253712       
  14               1.21811499E-05   3.82006266E-03   167.45523599     6.46705478E-07   1.65233307E+17   7.34804403E+06   0.00000000E+00   1.15316356E+06   0.32401162      
  15               1.50195662E-05   4.70943143E-03   175.70525490     7.59839265E-07   1.94137560E+17   7.34804403E+06   0.00000000E+00   1.14915149E+06   0.32383676      
  16               1.85193820E-05   5.79199667E-03   179.83209241     9.13019494E-07   2.33285070E+17   7.34804403E+06   0.00000000E+00   1.14504139E+06   0.32191977      
  17               2.28347147E-05   7.10961943E-03   188.20923180     1.07088663E-06   2.73609563E+17   7.34804403E+06   0.00000000E+00   1.14082753E+06   0.32170407      
  18               2.81555937E-05   8.71259347E-03   192.46763992     1.28302432E-06   3.27880485E+17   7.34804403E+06   0.00000000E+00   1.13650302E+06   0.3194879       
  19               3.47163285E-05   1.06626042E-02   201.04284858     1.50353335E-06   3.84149702E+17   7.34804403E+06   0.00000000E+00   1.13206322E+06   0.31924831      
  20               4.28058268E-05   1.30331687E-02   205.54248307     1.79666392E-06   4.59276537E+17   7.34804403E+06   0.00000000E+00   1.12750220E+06   0.31692535      
  21               5.27803164E-05   1.59149557E-02   214.33006113     2.10504390E-06   5.37833916E+17   7.34804403E+06   0.00000000E+00   1.12281625E+06   0.31658881      
  22               6.50790328E-05   1.94161676E-02   219.16462913     2.51150528E-06   6.41680568E+17   7.34804403E+06   0.00000000E+00   1.11800098E+06   0.31434764      
  23               8.02435604E-05   2.36664525E-02   228.18026312     2.94033040E-06   7.51243845E+17   7.34804403E+06   0.00000000E+00   1.11305499E+06   0.31398336      
  24               9.89416822E-05   2.88233692E-02   233.28484201     3.50267040E-06   8.94919691E+17   7.34804403E+06   0.00000000E+00   1.10797349E+06   0.31184319      
  25               1.21996786E-04   3.50791644E-02   242.34382865     4.10353671E-06   1.04843887E+18   7.34804403E+06   0.00000000E+00   1.10275549E+06   0.31151213      
  26               1.50424124E-04   4.26650815E-02   247.60059546     4.88497047E-06   1.24809239E+18   7.34804403E+06   0.00000000E+00   1.09739755E+06   0.30968474      
  27               1.85475517E-04   5.18616893E-02   256.75950655     5.72612962E-06   1.46300552E+18   7.34804403E+06   0.00000000E+00   1.09189877E+06   0.30933312      
  28               2.28694484E-04   6.30054059E-02   262.28713066     6.80991796E-06   1.73990955E+18   7.34804403E+06   0.00000000E+00   1.08625553E+06   0.30773058      
  29               2.81984210E-04   7.65039739E-02   271.78472093     7.97994697E-06   2.03884775E+18   7.34804403E+06   0.00000000E+00   1.08046503E+06   0.30741293      
  30               3.47691354E-04   9.28455300E-02   277.83477751     9.47360868E-06   2.42047294E+18   7.34804403E+06   0.00000000E+00   1.07452162E+06   0.30604474      
  31               4.28709385E-04   1.12619840E-01   287.81153804     1.10929679E-05   2.83421338E+18   7.34804403E+06   0.00000000E+00   1.06842176E+06   0.30573504      
  32               5.28606003E-04   1.36535375E-01   294.41900869     1.31468101E-05   3.35896270E+18   7.34804403E+06   0.00000000E+00   1.06215928E+06   0.30461887      
  33               6.51780242E-04   1.65458259E-01   304.84475041     1.53868876E-05   3.93129443E+18   7.34804403E+06   0.00000000E+00   1.05572861E+06   0.30431517      
  34               8.03656185E-04   2.00431427E-01   312.10883985     1.82054241E-05   4.65142034E+18   7.34804403E+06   0.00000000E+00   1.04912078E+06   0.30335501      
  35               9.90921819E-04   2.42713974E-01   323.31015059     2.12821987E-05   5.43752517E+18   7.34804403E+06   0.00000000E+00   1.04232792E+06   0.30307857      
  36               1.22182355E-03   2.93800224E-01   331.59668884     2.51178806E-05   6.41752807E+18   7.34804403E+06   0.00000000E+00   1.03534070E+06   0.30242149      
  37               1.50652933E-03   3.55470044E-01   343.84048918     2.93080583E-05   7.48810338E+18   7.34804403E+06   0.00000000E+00   1.02815304E+06   0.3022258       
  38               1.85757643E-03   4.29829830E-01   353.30294857     3.44897744E-05   8.81201300E+18   7.34804403E+06   0.00000000E+00   1.02075700E+06   0.30165958      
  39               2.29042351E-03   5.19431317E-01   366.78511907     4.01474055E-05   1.02575174E+19   7.34804403E+06   0.00000000E+00   1.01314250E+06   0.30140173      
  40               2.82413135E-03   6.27291141E-01   377.78230699     4.70726532E-05   1.20268911E+19   7.34804403E+06   0.00000000E+00   1.00529653E+06   0.30095187      
  41               3.48220225E-03   7.56960186E-01   392.99959137     5.46037006E-05   1.39510462E+19   7.34804403E+06   0.00000000E+00   9.97208535E+05   0.30080057      
  42               4.29361493E-03   9.12551866E-01   406.01707627     6.37168489E-05   1.62794264E+19   7.34804403E+06   0.00000000E+00   9.88866957E+05   0.30051368      
  43               5.29410063E-03   1.09897478E+00   423.44662358     7.35754123E-05   1.87981405E+19   7.34804403E+06   0.00000000E+00   9.80256887E+05   0.3003678       
  44               6.52771662E-03   1.32185234E+00   439.03272712     8.53551484E-05   2.18078016E+19   7.34804403E+06   0.00000000E+00   9.71363133E+05   0.30013527      
  45               8.04878622E-03   1.58755765E+00   459.39817412     9.79679252E-05   2.50303014E+19   7.34804403E+06   0.00000000E+00   9.62174658E+05   0.30003226      
  46               9.92429106E-03   1.90313571E+00   478.44063154     1.12767884E-04   2.88116111E+19   7.34804403E+06   0.00000000E+00   9.52680155E+05   0.29987706      
  47               1.22368206E-02   2.27714061E+00   502.66706985     1.28426474E-04   3.28121926E+19   7.34804403E+06   0.00000000E+00   9.42852316E+05   0.29976537      
  48               1.50882091E-02   2.71907122E+00   525.33774128     1.46744883E-04   3.74893422E+19   7.34804403E+06   0.00000000E+00   9.32672129E+05   0.29957265      
  49               1.86040198E-02   3.24006729E+00   551.66415928     1.66517757E-04   4.25407459E+19   7.34804403E+06   0.00000000E+00   9.22132564E+05   0.29943743      
  50               2.29390746E-02   3.85205605E+00   577.00030835     1.89276985E-04   4.83551119E+19   7.34804403E+06   0.00000000E+00   9.11231616E+05   0.29925884      
  51               2.82842712E-02   4.57029394E+00   605.81677166     2.13886821E-04   5.46422633E+19   7.34804404E+06   0.00000000E+00   8.99943346E+05   0.29907835      
  52               3.48749902E-02   5.41087193E+00   633.34440644     2.42219106E-04   6.18804061E+19   7.34804402E+06   0.00000000E+00   8.88264987E+05   0.29881118      
  53               4.30014593E-02   6.39135830E+00   663.82516622     2.72973419E-04   6.97373261E+19   7.34804403E+06   0.00000000E+00   8.76206934E+05   0.29858508      
  54               5.30215347E-02   7.53056215E+00   692.67802236     3.08231250E-04   7.87447899E+19   7.34804400E+06   0.00000000E+00   8.63787468E+05   0.29822595      
  55               6.53764590E-02   8.85399635E+00   724.47011132     3.46496782E-04   8.85206726E+19   7.34804400E+06   0.00000000E+00   8.50981441E+05   0.29785763      
  56               8.06102920E-02   1.03901178E+01   755.12893219     3.90103052E-04   9.96609907E+19   7.34804396E+06   0.00000000E+00   8.37768902E+05   0.29731294      
  57               9.93938685E-02   1.21684699E+01   789.52363159     4.36968806E-04   1.11634050E+20   7.34804393E+06   0.00000000E+00   8.24148093E+05   0.29680233      
  58               1.22554340E-01   1.42223797E+01   823.76306779     4.89496283E-04   1.25053483E+20   7.34804963E+06   0.00000000E+00   8.10104394E+05   0.29605939      
  59               1.51111597E-01   1.65901220E+01   862.68874553     5.45226532E-04   1.39290432E+20   7.33753251E+06   3.06080751E+04   7.95610943E+05   0.29531447      
  60               1.86323183E-01   1.93210300E+01   901.77104658     6.07459871E-04   1.55188604E+20   7.27233539E+06   7.57058451E+04   7.80605102E+05   0.29425635      
  61               2.29739671E-01   2.24571579E+01   943.08405805     6.75130127E-04   1.72476619E+20   7.21185180E+06   1.36190711E+05   7.65119030E+05   0.29323152      
  62               2.83272943E-01   2.60375233E+01   984.21539240     7.50053987E-04   1.91617584E+20   7.18119565E+06   1.66844918E+05   7.49208399E+05   0.29185186      
  63               3.49280383E-01   3.01010180E+01   1027.26311989    8.30775378E-04   2.12239066E+20   7.19689048E+06   1.51150457E+05   7.32929994E+05   0.2905793       
  64               4.30668686E-01   3.47079835E+01   1069.94908449    9.19718117E-04   2.34959014E+20   7.26901743E+06   7.90194998E+04   7.16263423E+05   0.28895671      
  65               5.31021855E-01   3.99362659E+01   1114.70931244    1.01579055E-03   2.59496596E+20   7.34810701E+06   0.00000000E+00   6.99158138E+05   0.2875062       
  66               6.54759028E-01   4.58621998E+01   1157.86261112    1.12304085E-03   2.86895470E+20   7.34804432E+06   0.00000000E+00   6.81612991E+05   0.28582403      
  67               8.07329079E-01   5.25729145E+01   1200.00389276    1.24215737E-03   3.17325694E+20   7.34804442E+06   0.00000000E+00   6.63645695E+05   0.28440437      
  68               9.95450561E-01   6.01415525E+01   1240.89958966    1.37415321E-03   3.51045842E+20   7.34804438E+06   0.00000000E+00   6.45326268E+05   0.28275439      
  69               1.22740757E+00   6.86705218E+01   1281.25443850    1.51961267E-03   3.88204713E+20   7.34804432E+06   0.00000000E+00   6.26661929E+05   0.28138061      
  70               1.51341452E+00   7.83100450E+01   1321.13247903    1.68062599E-03   4.29335642E+20   7.34804429E+06   0.00000000E+00   6.07587405E+05   0.27974243      
  71               1.86606598E+00   8.91833356E+01   1361.45631799    1.85730512E-03   4.74466812E+20   7.34804427E+06   0.00000000E+00   5.88125557E+05   0.27837956      
  72               2.30089127E+00   1.01393540E+02   1402.33642609    2.05005425E-03   5.23701613E+20   7.34804428E+06   0.00000000E+00   5.68337692E+05   0.27673385      
  73               2.83703828E+00   1.15066155E+02   1444.73804739    2.25823754E-03   5.76878472E+20   7.34804429E+06   0.00000000E+00   5.48242854E+05   0.27529312      
  74               3.49811672E+00   1.30308217E+02   1488.70791434    2.48184999E-03   6.33998376E+20   7.34804432E+06   0.00000000E+00   5.27883140E+05   0.27352475      
  75               4.31323774E+00   1.47306711E+02   1535.17515531    2.72067947E-03   6.95009019E+20   7.34804435E+06   0.00000000E+00   5.07196750E+05   0.27198251      
  76               5.31829590E+00   1.66191005E+02   1584.01233030    2.97481345E-03   7.59932111E+20   7.34803415E+06   0.00000000E+00   4.86205746E+05   0.27014622      
  77               6.55754979E+00   1.86993058E+02   1635.91210907    3.24096062E-03   8.27925686E+20   7.09801055E+06   2.50032919E+05   4.65020140E+05   0.26851242      
  78               8.08557104E+00   2.09705590E+02   1686.08315536    3.52641873E-03   9.00859076E+20   6.69196442E+06   6.56079003E+05   4.43774793E+05   0.266651        
  79               9.96964736E+00   2.34300633E+02   1737.31234660    3.82568831E-03   9.76835414E+20   6.25197373E+06   1.09606969E+06   4.22597046E+05   0.26505303      
  80               1.22927457E+01   2.60881119E+02   1786.54797934    4.14232338E-03   1.05767881E+21   5.81863480E+06   1.52940871E+06   4.01482166E+05   0.26322485      
  81               1.51571657E+01   2.89753665E+02   1837.22293433    4.47383147E-03   1.14233352E+21   5.41180431E+06   1.93623931E+06   3.80272938E+05   0.26167316      
  82               1.86890445E+01   3.21167303E+02   1886.43057425    4.82964206E-03   1.23315122E+21   4.98455902E+06   2.36348466E+06   3.58902006E+05   0.25985491      
  83               2.30439114E+01   3.55232239E+02   1937.11200916    5.20263736E-03   1.32826118E+21   4.52383569E+06   2.82420802E+06   3.37411707E+05   0.25834834      
  84               2.84135369E+01   3.91610451E+02   1985.59452607    5.59700690E-03   1.42853059E+21   3.99027960E+06   3.35776447E+06   3.16092972E+05   0.25654183      
  85               3.50343769E+01   4.29575137E+02   2033.88465661    5.99707633E-03   1.52981409E+21   3.57567715E+06   3.77236768E+06   2.95370299E+05   0.25511241      
  86               4.31979859E+01   4.71829715E+02   2082.27024393    6.43916894E-03   1.64124734E+21   3.19423133E+06   4.15381455E+06   2.73866969E+05   0.25321446      
  87               5.32638553E+01   5.15593005E+02   2130.09077781    6.87884382E-03   1.75321325E+21   2.74384218E+06   4.60420623E+06   2.53072712E+05   0.25176022      
  88               6.56752445E+01   5.59279158E+02   2173.34127317    7.31296881E-03   1.86391691E+21   2.42177532E+06   4.92627632E+06   2.33594914E+05   0.2498762       
  89               8.09786996E+01   6.08871456E+02   2220.46451799    7.79208447E-03   1.98612975E+21   2.14045269E+06   5.20760717E+06   2.12819901E+05   0.24840286      
  90               9.98481215E+01   6.57007788E+02   2262.04743089    8.25545713E-03   2.10375252E+21   1.75524164E+06   5.59284372E+06   1.93840113E+05   0.24640882      
  91               1.23114441E+02   7.01413647E+02   2299.24540737    8.67052939E-03   2.20960540E+21   1.53306468E+06   5.81505342E+06   1.77242433E+05   0.24541559      
  92               1.51802212E+02   7.53262505E+02   2339.23296344    9.15286623E-03   2.33237681E+21   1.43865099E+06   5.90948777E+06   1.58836685E+05   0.24382272      
  93               1.87174723E+02   8.13713597E+02   2384.02751525    9.70078022E-03   2.47221450E+21   1.23932272E+06   6.10880371E+06   1.38549447E+05   0.24258897      
  94               2.30789634E+02   8.64240844E+02   2418.53982722    1.01650425E-02   2.58825692E+21   9.58488781E+05   6.38956335E+06   1.22456871E+05   0.24117184      
  95               2.84567566E+02   9.03494025E+02   2444.96939892    1.05115075E-02   2.67656439E+21   8.17911842E+05   6.53010120E+06   1.10448392E+05   0.24004783      
  96               3.50876675E+02   9.50037284E+02   2474.11922899    1.09223644E-02   2.78128737E+21   7.76819346E+05   6.57119648E+06   9.67122031E+04   0.23777326      
  97               4.32636941E+02   1.00487760E+03   2507.58509279    1.13981309E-02   2.90257417E+21   7.39351949E+05   6.60866622E+06   8.11695479E+04   0.23623076      
  98               5.33448747E+02   1.06909274E+03   2544.09487026    1.19518357E-02   3.04374256E+21   6.95564878E+05   6.65245778E+06   6.37713698E+04   0.23315694      
  99               6.57751428E+02   1.14397400E+03   2584.53919045    1.25880151E-02   3.20596571E+21   6.56526774E+05   6.69150116E+06   4.44660131E+04   0.23126725      
  100              8.11018759E+02   1.23097625E+03   2628.42021749    1.33182118E-02   3.39219425E+21   6.12492500E+05   6.73554135E+06   2.32174485E+04   0.22743112      
  101              1.00000000E+03   1.33178091E+03   2675.45325618    1.41542869E-02   3.60546477E+21   5.90029075E+05   6.75800819E+06   0.00000000E+00   0.22533244      
