# ATMO pressure-temperature profile
# Effective temperature = 1800.0K
# log(g) = 2.5cm/s^2
# M/H = 0.0
# Optical depth grid in band 17 (1.20-1.33microns)
# All parameters in cgs units
#
# Model Level      Optical Depth    Pressure         Temperature      Density          Number Density   Rad Flux         Conv Flux        Radial Extension Adiabatic Gradient
#                                   [Ba]             [K]              [g/cm^3]         [/cm^3]          [ergs/s/cm^2/sr] [ergs/s/cm^2/sr] [cm]             [K/Ba]          
  1                1.00000000E-04   1.00000000E-05   536.89744437     5.28056726E-10   1.34907006E+14   5.95181264E+08   0.00000000E+00   2.35253722E+09   0.29794351      
  2                1.17489755E-04   2.39077821E-05   663.82528065     1.02087552E-09   2.60862313E+14   5.95181247E+08   0.00000000E+00   2.29263599E+09   0.29668439      
  3                1.38038426E-04   3.84141979E-05   703.86875188     1.54697748E-09   3.95299189E+14   5.95181229E+08   0.00000000E+00   2.25613267E+09   0.29601157      
  4                1.62181010E-04   5.45483528E-05   742.75957941     2.08171354E-09   5.31935799E+14   5.95181214E+08   0.00000000E+00   2.22770146E+09   0.29503425      
  5                1.90546072E-04   7.27081006E-05   762.04755033     2.70456880E-09   6.91077204E+14   5.95181200E+08   0.00000000E+00   2.20349947E+09   0.29463494      
  6                2.23872114E-04   9.33278744E-05   789.71677864     3.34993189E-09   8.55984398E+14   5.95181187E+08   0.00000000E+00   2.18183655E+09   0.29505981      
  7                2.63026799E-04   1.16858354E-04   803.31216576     4.12354713E-09   1.05366186E+15   5.95181175E+08   0.00000000E+00   2.16181593E+09   0.29485505      
  8                3.09029543E-04   1.43794481E-04   826.97908791     4.92881376E-09   1.25942854E+15   5.95181164E+08   0.00000000E+00   2.14292173E+09   0.29428468      
  9                3.63078055E-04   1.74664766E-04   838.39999797     5.90538904E-09   1.50896747E+15   5.95181157E+08   0.00000000E+00   2.12482729E+09   0.29409899      
  10               4.26579519E-04   2.10075067E-04   860.42260036     6.92080519E-09   1.76843271E+15   5.95181153E+08   0.00000000E+00   2.10731161E+09   0.29351318      
  11               5.01187234E-04   2.50691773E-04   870.94898184     8.15907894E-09   2.08484228E+15   5.95181153E+08   0.00000000E+00   2.09021910E+09   0.2933298       
  12               5.88843655E-04   2.97282925E-04   892.24114324     9.44454636E-09   2.41331248E+15   5.95181158E+08   0.00000000E+00   2.07343522E+09   0.29271821      
  13               6.91830971E-04   3.50698232E-04   902.43418686     1.10156801E-08   2.81477624E+15   5.95181167E+08   0.00000000E+00   2.05687487E+09   0.29253058      
  14               8.12830516E-04   4.11913912E-04   923.49627356     1.26434126E-08   3.23070387E+15   5.95181181E+08   0.00000000E+00   2.04047181E+09   0.29188747      
  15               9.54992586E-04   4.82046923E-04   933.67842352     1.46347367E-08   3.73953697E+15   5.95181202E+08   0.00000000E+00   2.02416767E+09   0.29168691      
  16               1.12201845E-03   5.62455962E-04   954.76198711     1.66988329E-08   4.26696661E+15   5.95181233E+08   0.00000000E+00   2.00790209E+09   0.29100356      
  17               1.31825674E-03   6.54656248E-04   965.17339838     1.92265176E-08   4.91285350E+15   5.95181270E+08   0.00000000E+00   1.99163017E+09   0.29078094      
  18               1.54881662E-03   7.60381613E-04   986.62162255     2.18460777E-08   5.58221831E+15   5.95181321E+08   0.00000000E+00   1.97531686E+09   0.29004936      
  19               1.81970086E-03   8.81555302E-04   997.56160077     2.50496859E-08   6.40082094E+15   5.95181378E+08   0.00000000E+00   1.95893661E+09   0.28979721      
  20               2.13796209E-03   1.02036699E-03   1019.63542233    2.83663726E-08   7.24831947E+15   5.95181444E+08   0.00000000E+00   1.94246929E+09   0.28901265      
  21               2.51188643E-03   1.17923639E-03   1031.27119301    3.24130766E-08   8.28235468E+15   5.95181509E+08   0.00000000E+00   1.92590098E+09   0.28872389      
  22               2.95120923E-03   1.36090455E-03   1054.12117315    3.65956346E-08   9.35110573E+15   5.95181580E+08   0.00000000E+00   1.90922067E+09   0.28788135      
  23               3.46736850E-03   1.56837497E-03   1066.60948688    4.16808499E-08   1.06505074E+16   5.95181655E+08   0.00000000E+00   1.89242206E+09   0.28755276      
  24               4.07380278E-03   1.80502916E-03   1090.39749291    4.69236044E-08   1.19901666E+16   5.95181737E+08   0.00000000E+00   1.87550012E+09   0.28664664      
  25               4.78630092E-03   2.07454325E-03   1103.86704638    5.32718348E-08   1.36123017E+16   5.95181810E+08   0.00000000E+00   1.85845355E+09   0.28627062      
  26               5.62341325E-03   2.38103104E-03   1128.73414355    5.97950436E-08   1.52791514E+16   5.95181898E+08   0.00000000E+00   1.84128112E+09   0.28529664      
  27               6.60693448E-03   2.72924850E-03   1143.35000416    6.76636791E-08   1.72897901E+16   5.95181991E+08   0.00000000E+00   1.82396940E+09   0.28486199      
  28               7.76247117E-03   3.12486387E-03   1169.51459226    7.57385632E-08   1.93531337E+16   5.95182119E+08   0.00000000E+00   1.80649361E+09   0.28379838      
  29               9.12010839E-03   3.57401258E-03   1185.58915310    8.54502661E-08   2.18347236E+16   5.95182285E+08   0.00000000E+00   1.78883831E+09   0.28329095      
  30               1.07151931E-02   4.08354050E-03   1213.37086247    9.53970981E-08   2.43763763E+16   5.95182544E+08   0.00000000E+00   1.77099219E+09   0.28212363      
  31               1.25892541E-02   4.66074271E-03   1231.20921155    1.07303844E-07   2.74188422E+16   5.95182877E+08   0.00000000E+00   1.75295151E+09   0.28150834      
  32               1.47910839E-02   5.31362203E-03   1260.94119633    1.19451447E-07   3.05226098E+16   5.95183359E+08   0.00000000E+00   1.73471547E+09   0.28020332      
  33               1.73780083E-02   6.05043005E-03   1280.97771237    1.33887912E-07   3.42113735E+16   5.95184021E+08   0.00000000E+00   1.71629128E+09   0.2794541       
  34               2.04173794E-02   6.87987682E-03   1313.19365471    1.48516517E-07   3.79470244E+16   5.95184949E+08   0.00000000E+00   1.69769027E+09   0.27782901      
  35               2.39883292E-02   7.81026456E-03   1336.01099615    1.65720959E-07   4.23429929E+16   5.95186152E+08   0.00000000E+00   1.67893648E+09   0.27886721      
  36               2.81838293E-02   8.84926073E-03   1371.24878573    1.82998703E-07   4.67429992E+16   5.95187727E+08   0.00000000E+00   1.66006819E+09   0.27583692      
  37               3.31131121E-02   1.00021294E-02   1397.57049998    2.02957321E-07   5.18375639E+16   5.95190251E+08   0.00000000E+00   1.64115093E+09   0.27344833      
  38               3.89045145E-02   1.12694799E-02   1436.49808916    2.22490344E-07   5.68230655E+16   5.95193137E+08   0.00000000E+00   1.62229086E+09   0.27105941      
  39               4.57088190E-02   1.26452537E-02   1466.65938142    2.44613819E-07   6.24488033E+16   5.95196587E+08   0.00000000E+00   1.60364103E+09   0.26873702      
  40               5.37031796E-02   1.40986160E-02   1509.47300635    2.65226013E-07   6.76514282E+16   5.95199958E+08   0.00000000E+00   1.58559504E+09   0.26665201      
  41               6.30957344E-02   1.55101549E-02   1548.25356464    2.84751673E-07   7.25604366E+16   5.94137471E+08   9.80886831E+05   1.56934972E+09   0.26465223      
  42               7.41310241E-02   1.68025814E-02   1581.24792751    3.02029790E-07   7.69665251E+16   5.92565689E+08   2.48356147E+06   1.55541339E+09   0.2626531       
  43               8.70963590E-02   1.82214700E-02   1615.22213881    3.20626686E-07   8.17103352E+16   5.90110303E+08   4.91435360E+06   1.54099474E+09   0.26058029      
  44               1.02329299E-01   1.97752766E-02   1649.88822857    3.40629900E-07   8.68148225E+16   5.86579593E+08   8.42556556E+06   1.52612659E+09   0.25807305      
  45               1.20226443E-01   2.14692153E-02   1685.16204916    3.62029973E-07   9.22784606E+16   5.81788947E+08   1.32010241E+07   1.51087253E+09   0.25493568      
  46               1.41253754E-01   2.32995010E-02   1720.46183545    3.84781532E-07   9.80906058E+16   5.75653340E+08   1.93133604E+07   1.49536504E+09   0.25141123      
  47               1.65958691E-01   2.52254787E-02   1755.03320615    4.08315794E-07   1.04106997E+17   5.68464847E+08   2.65001900E+07   1.47999948E+09   0.24759122      
  48               1.94984460E-01   2.72436694E-02   1788.56618061    4.32629677E-07   1.10328173E+17   5.60728323E+08   3.43468184E+07   1.46481470E+09   0.24340232      
  49               2.29086765E-01   2.94622957E-02   1822.82753214    4.58953044E-07   1.17070330E+17   5.51988267E+08   4.31475356E+07   1.44906962E+09   0.23884635      
  50               2.69153480E-01   3.19029058E-02   1857.52534322    4.87538281E-07   1.24400273E+17   5.41871710E+08   5.32756724E+07   1.43275363E+09   0.23384587      
  51               3.16227766E-01   3.45875132E-02   1892.74247940    5.18532766E-07   1.32359052E+17   5.30163407E+08   6.49897516E+07   1.41586896E+09   0.22839038      
  52               3.71535229E-01   3.75405691E-02   1928.13453760    5.52221245E-07   1.41022808E+17   5.16707232E+08   7.84480125E+07   1.39841749E+09   0.22239342      
  53               4.36515832E-01   4.07893963E-02   1963.75313577    5.88805475E-07   1.50447933E+17   5.01411855E+08   9.37448492E+07   1.38040019E+09   0.21611821      
  54               5.12861384E-01   4.43644184E-02   1999.31908192    6.28614003E-07   1.60723182E+17   4.84230946E+08   1.10926862E+08   1.36181756E+09   0.20961581      
  55               6.02559586E-01   4.82995688E-02   2034.90006133    6.71899582E-07   1.71919844E+17   4.65171986E+08   1.29985156E+08   1.34266953E+09   0.20291401      
  56               7.07945784E-01   5.26334934E-02   2070.22098908    7.19075772E-07   1.84149833E+17   4.44341230E+08   1.50813526E+08   1.32295214E+09   0.19594584      
  57               8.31763771E-01   5.74104593E-02   2105.33906898    7.70498004E-07   1.97512602E+17   4.21990788E+08   1.73159704E+08   1.30265722E+09   0.18925711      
  58               9.77237221E-01   6.26792972E-02   2140.16824688    8.26607585E-07   2.12129975E+17   3.98365893E+08   1.96778106E+08   1.28177925E+09   0.18291157      
  59               1.14815362E+00   6.84937353E-02   2174.78985300    8.87812486E-07   2.28117914E+17   3.73696322E+08   2.21439335E+08   1.26031544E+09   0.17679006      
  60               1.34896288E+00   7.49129579E-02   2209.06982530    9.54651840E-07   2.45625438E+17   3.48232602E+08   2.46892723E+08   1.23826542E+09   0.17080867      
  61               1.58489319E+00   8.20021886E-02   2243.05927243    1.02762790E-06   2.64795459E+17   3.22291275E+08   2.72821461E+08   1.21563103E+09   0.16524012      
  62               1.86208714E+00   8.98326489E-02   2276.73035054    1.10731781E-06   2.85790934E+17   2.96122012E+08   2.98975789E+08   1.19241737E+09   0.15989102      
  63               2.18776162E+00   9.84822022E-02   2310.05979238    1.19434071E-06   3.08787968E+17   2.69986422E+08   3.25092485E+08   1.16863231E+09   0.15469028      
  64               2.57039578E+00   1.08033470E-01   2342.98343779    1.28944267E-06   3.33975760E+17   2.44218293E+08   3.50838367E+08   1.14429243E+09   0.149739        
  65               3.01995172E+00   1.18579816E-01   2375.52940382    1.39319194E-06   3.61556524E+17   2.19216672E+08   3.75815794E+08   1.11940922E+09   0.14533596      
  66               3.54813389E+00   1.30224056E-01   2407.78700984    1.50637435E-06   3.91740966E+17   1.95252985E+08   3.99755844E+08   1.09399071E+09   0.14142524      
  67               4.16869383E+00   1.43074813E-01   2439.76657970    1.62977476E-06   4.24757199E+17   1.72502201E+08   4.22483816E+08   1.06805433E+09   0.13784741      
  68               4.89778819E+00   1.57248942E-01   2471.48811037    1.76421110E-06   4.60845177E+17   1.51082975E+08   4.43883061E+08   1.04162000E+09   0.13450247      
  69               5.75439937E+00   1.72855087E-01   2502.88928743    1.91043369E-06   5.00226119E+17   1.31194619E+08   4.63755245E+08   1.01473778E+09   0.13145943      
  70               6.76082975E+00   1.90029830E-01   2534.04358069    2.06933447E-06   5.43167205E+17   1.13228058E+08   4.81709082E+08   9.87421627E+08   0.12869333      
  71               7.94328235E+00   2.08924892E-01   2564.93446734    2.24199447E-06   5.89983346E+17   9.74009084E+07   4.97527405E+08   9.59680366E+08   0.12619383      
  72               9.33254301E+00   2.29702395E-01   2595.64078087    2.42943045E-06   6.40983388E+17   8.37186285E+07   5.11204631E+08   9.31526745E+08   0.12385854      
  73               1.09647820E+01   2.52535389E-01   2626.09379031    2.63288207E-06   6.96526834E+17   7.20729106E+07   5.22848485E+08   9.02976811E+08   0.12171553      
  74               1.28824955E+01   2.77608031E-01   2656.38765407    2.85342471E-06   7.56948639E+17   6.22620433E+07   5.32660371E+08   8.74049290E+08   0.11977756      
  75               1.51356125E+01   3.05115909E-01   2686.45948268    3.09239421E-06   8.22641089E+17   5.40170324E+07   5.40906723E+08   8.44764894E+08   0.11804749      
  76               1.77827941E+01   3.35266545E-01   2716.40955319    3.35091928E-06   8.93965603E+17   4.70611190E+07   5.47867759E+08   8.15145464E+08   0.11650785      
  77               2.08929613E+01   3.68280114E-01   2746.16825064    3.63045382E-06   9.71352733E+17   4.11279916E+07   5.53810853E+08   7.85213208E+08   0.11510953      
  78               2.45470892E+01   4.04390879E-01   2775.81776264    3.93223802E-06   1.05520354E+18   3.60355850E+07   5.58919182E+08   7.54989652E+08   0.11384265      
  79               2.88403150E+01   4.43848784E-01   2805.28785096    4.25788084E-06   1.14599690E+18   3.16370388E+07   5.63339704E+08   7.24494812E+08   0.11268975      
  80               3.38844156E+01   4.86920980E-01   2834.66001947    4.60874829E-06   1.24418038E+18   2.78301099E+07   5.67173631E+08   6.93746761E+08   0.11164999      
  81               3.98107171E+01   5.33892941E-01   2863.86842882    4.98663033E-06   1.35028970E+18   2.45194434E+07   5.70517198E+08   6.62761714E+08   0.11072525      
  82               4.67735141E+01   5.85070315E-01   2893.00331754    5.39301465E-06   1.46482240E+18   2.16394575E+07   5.73437088E+08   6.31553638E+08   0.10991032      
  83               5.49540874E+01   6.40780930E-01   2922.00077377    5.82990967E-06   1.58838249E+18   1.91206691E+07   5.76002165E+08   6.00134130E+08   0.10917248      
  84               6.45654229E+01   7.01377907E-01   2950.94165001    6.29901953E-06   1.72154072E+18   1.69218119E+07   5.78252966E+08   5.68511968E+08   0.1085217       
  85               7.58577575E+01   7.67241873E-01   2979.77203583    6.80261089E-06   1.86498394E+18   1.49924218E+07   5.80238297E+08   5.36693348E+08   0.1079317       
  86               8.91250938E+01   8.38784621E-01   3008.56592591    7.34266099E-06   2.01937403E+18   1.33037628E+07   5.81983548E+08   5.04681653E+08   0.10742135      
  87               1.04712855E+02   9.16444800E-01   3037.28118682    7.92168189E-06   2.18548158E+18   1.18163463E+07   5.83530679E+08   4.72480579E+08   0.10696611      
  88               1.23026877E+02   1.00068183E+00   3065.97734177    8.54181367E-06   2.36402962E+18   1.05062726E+07   5.84901430E+08   4.40096872E+08   0.10659343      
  89               1.44543977E+02   1.09199463E+00   3094.62754288    9.20576622E-06   2.55586526E+18   9.34601101E+06   5.86121381E+08   4.07533176E+08   0.10626596      
  90               1.69824365E+02   1.19092751E+00   3123.27969743    9.91612673E-06   2.76185128E+18   8.32058270E+06   5.87204527E+08   3.74788055E+08   0.1060081       
  91               1.99526231E+02   1.29807284E+00   3151.92595850    1.06759906E-05   2.98297006E+18   7.41021857E+06   5.88169554E+08   3.41857057E+08   0.10578663      
  92               2.34422882E+02   1.41407689E+00   3180.60196934    1.14884741E-05   3.22024964E+18   6.60351015E+06   5.89028938E+08   3.08732921E+08   0.10563259      
  93               2.75422870E+02   1.53964243E+00   3209.32041261    1.23570729E-05   3.47482256E+18   5.88629643E+06   5.89798448E+08   2.75406547E+08   0.10552544      
  94               3.23593657E+02   1.67553462E+00   3238.10894812    1.32854605E-05   3.74789822E+18   5.24999188E+06   5.90486309E+08   2.41867182E+08   0.10549274      
  95               3.80189396E+02   1.82258509E+00   3266.99759555    1.42775562E-05   4.04077658E+18   4.68363521E+06   5.91103547E+08   2.08102897E+08   0.10547801      
  96               4.46683592E+02   1.98170161E+00   3295.98531048    1.53378527E-05   4.35490649E+18   4.17994353E+06   5.91657787E+08   1.74100280E+08   0.10550398      
  97               5.24807460E+02   2.15387115E+00   3325.11657279    1.64707978E-05   4.69179127E+18   3.72995941E+06   5.92158406E+08   1.39845361E+08   0.10553292      
  98               6.16595002E+02   2.34017012E+00   3354.37023433    1.76817955E-05   5.05315097E+18   3.32738824E+06   5.92613985E+08   1.05323348E+08   0.1055851       
  99               7.24435960E+02   2.54177063E+00   3383.80355125    1.89759173E-05   5.44072851E+18   2.96670559E+06   5.93037827E+08   7.05190262E+07   0.10563165      
  100              8.51138038E+02   2.75995204E+00   3413.37937255    2.03596332E-05   5.85656295E+18   2.64375863E+06   5.93422732E+08   3.54165777E+07   0.10570071      
  101              1.00000000E+03   2.99610794E+00   3443.17209344    2.18386843E-05   6.30266995E+18   2.49256462E+06   5.93632794E+08   0.00000000E+00   0.10579283      
