# ATMO pressure-temperature profile
# Effective temperature = 1200.0K
# log(g) = 2.5cm/s^2
# M/H = 0.0
# Optical depth grid in band 17 (1.20-1.33microns)
# All parameters in cgs units
#
# Model Level      Optical Depth    Pressure         Temperature      Density          Number Density   Rad Flux         Conv Flux        Radial Extension Adiabatic Gradient
#                                   [Ba]             [K]              [g/cm^3]         [/cm^3]          [ergs/s/cm^2/sr] [ergs/s/cm^2/sr] [cm]             [K/Ba]          
  1                1.00000000E-04   1.00000000E-05   290.68948327     9.75320191E-10   2.49170440E+14   1.17569441E+08   0.00000000E+00   1.53665433E+09   0.30092355      
  2                1.17489755E-04   3.16267663E-05   366.19886907     2.44857369E-09   6.25552307E+14   1.17569440E+08   0.00000000E+00   1.49239943E+09   0.29818724      
  3                1.38038426E-04   5.44748789E-05   389.30502022     3.96717702E-09   1.01351950E+15   1.17569439E+08   0.00000000E+00   1.46921732E+09   0.2978296       
  4                1.62181010E-04   8.01292683E-05   415.58768927     5.46643757E-09   1.39654310E+15   1.17569437E+08   0.00000000E+00   1.45179648E+09   0.29761288      
  5                1.90546072E-04   1.09144113E-04   432.52041494     7.15437926E-09   1.82776158E+15   1.17569436E+08   0.00000000E+00   1.43712472E+09   0.29963083      
  6                2.23872114E-04   1.42264581E-04   450.57633614     8.95172335E-09   2.28693726E+15   1.17569435E+08   0.00000000E+00   1.42403720E+09   0.29952003      
  7                2.63026799E-04   1.80361246E-04   459.39628393     1.11309951E-08   2.84368567E+15   1.17569434E+08   0.00000000E+00   1.41196833E+09   0.29947307      
  8                3.09029543E-04   2.24344550E-04   473.38001247     1.34364285E-08   3.43266520E+15   1.17569433E+08   0.00000000E+00   1.40059523E+09   0.29939592      
  9                3.63078055E-04   2.75214293E-04   479.96958376     1.62568168E-08   4.15320251E+15   1.17569432E+08   0.00000000E+00   1.38971094E+09   0.299363        
  10               4.26579519E-04   3.34118696E-04   492.63323564     1.92289385E-08   4.91250391E+15   1.17569431E+08   0.00000000E+00   1.37917551E+09   0.29929602      
  11               5.01187234E-04   4.02366363E-04   498.36728577     2.28902420E-08   5.84787365E+15   1.17569431E+08   0.00000000E+00   1.36888860E+09   0.29926847      
  12               5.88843655E-04   4.81478524E-04   510.48332324     2.67407523E-08   6.83158068E+15   1.17569430E+08   0.00000000E+00   1.35877674E+09   0.29920427      
  13               6.91830971E-04   5.73220146E-04   515.72186016     3.15125947E-08   8.05066480E+15   1.17569430E+08   0.00000000E+00   1.34878278E+09   0.29917835      
  14               8.12830516E-04   6.79669300E-04   527.55508481     3.65265041E-08   9.33159067E+15   1.17569430E+08   0.00000000E+00   1.33886085E+09   0.29911484      
  15               9.54992586E-04   8.03228396E-04   532.49079214     4.27666487E-08   1.09257885E+16   1.17569430E+08   0.00000000E+00   1.32897491E+09   0.29908896      
  16               1.12201845E-03   9.46689037E-04   544.25358540     4.93156005E-08   1.25988785E+16   1.17569430E+08   0.00000000E+00   1.31909648E+09   0.29902139      
  17               1.31825674E-03   1.11327215E-03   549.10313845     5.74811825E-08   1.46849766E+16   1.17569430E+08   0.00000000E+00   1.30920239E+09   0.29899422      
  18               1.54881662E-03   1.30670530E-03   561.05045726     6.60319358E-08   1.68694752E+16   1.17569430E+08   0.00000000E+00   1.29927372E+09   0.29892139      
  19               1.81970086E-03   1.53127302E-03   566.10546998     7.66890880E-08   1.95921058E+16   1.17569430E+08   0.00000000E+00   1.28929434E+09   0.29889023      
  20               2.13796209E-03   1.79192058E-03   578.52841332     8.78157401E-08   2.24346813E+16   1.17569431E+08   0.00000000E+00   1.27925048E+09   0.29880723      
  21               2.51188643E-03   2.09433643E-03   583.93064333     1.01686542E-07   2.59783175E+16   1.17569431E+08   0.00000000E+00   1.26913033E+09   0.29877094      
  22               2.95120923E-03   2.44507413E-03   596.92792499     1.16131076E-07   2.96685262E+16   1.17569432E+08   0.00000000E+00   1.25892384E+09   0.29867564      
  23               3.46736850E-03   2.85162146E-03   602.87095635     1.34105262E-07   3.42604729E+16   1.17569432E+08   0.00000000E+00   1.24862202E+09   0.29862969      
  24               4.07380278E-03   3.32254568E-03   616.74312829     1.52737269E-07   3.90204686E+16   1.17569433E+08   0.00000000E+00   1.23821670E+09   0.29851589      
  25               4.78630092E-03   3.86759614E-03   623.52878975     1.75858337E-07   4.49273132E+16   1.17569434E+08   0.00000000E+00   1.22769992E+09   0.29845768      
  26               5.62341325E-03   4.49824996E-03   638.35651568     1.99783166E-07   5.10394668E+16   1.17569435E+08   0.00000000E+00   1.21706020E+09   0.29832021      
  27               6.60693448E-03   5.22768937E-03   645.98192594     2.29439373E-07   5.86158742E+16   1.17569436E+08   0.00000000E+00   1.20628623E+09   0.29824598      
  28               7.76247117E-03   6.07102354E-03   661.87595368     2.60054705E-07   6.64371743E+16   1.17569437E+08   0.00000000E+00   1.19536847E+09   0.29808042      
  29               9.12010839E-03   7.04531900E-03   670.61488217     2.97856254E-07   7.60945082E+16   1.17569438E+08   0.00000000E+00   1.18429828E+09   0.29798292      
  30               1.07151931E-02   8.17000387E-03   687.82859915     3.36762447E-07   8.60335557E+16   1.17569439E+08   0.00000000E+00   1.17306864E+09   0.29777757      
  31               1.25892541E-02   9.46674628E-03   697.93501293     3.84562663E-07   9.82452567E+16   1.17569439E+08   0.00000000E+00   1.16167380E+09   0.29765036      
  32               1.47910839E-02   1.09597597E-02   716.91283636     4.33429097E-07   1.10728780E+17   1.17569438E+08   0.00000000E+00   1.15010944E+09   0.29738512      
  33               1.73780083E-02   1.26753831E-02   729.01195989     4.92957404E-07   1.25936692E+17   1.17569436E+08   0.00000000E+00   1.13837241E+09   0.29724761      
  34               2.04173794E-02   1.46426438E-02   750.31937933     5.53292929E-07   1.41351094E+17   1.17569432E+08   0.00000000E+00   1.12646054E+09   0.29690316      
  35               2.39883292E-02   1.68928933E-02   764.71562328     6.26303203E-07   1.60003659E+17   1.17569427E+08   0.00000000E+00   1.11437237E+09   0.29662359      
  36               2.81838293E-02   1.94643583E-02   788.43357543     6.99926504E-07   1.78813713E+17   1.17569420E+08   0.00000000E+00   1.10209056E+09   0.29615663      
  37               3.31131121E-02   2.23988202E-02   805.46805496     7.88408026E-07   2.01420033E+17   1.17569410E+08   0.00000000E+00   1.08959871E+09   0.29582154      
  38               3.89045145E-02   2.57412779E-02   832.20262129     8.76936859E-07   2.24040670E+17   1.17569395E+08   0.00000000E+00   1.07688693E+09   0.29529669      
  39               4.57088190E-02   2.95375506E-02   852.47575855     9.82321808E-07   2.50967960E+17   1.17569373E+08   0.00000000E+00   1.06395252E+09   0.29489381      
  40               5.37031796E-02   3.38344624E-02   882.58741311     1.08683061E-06   2.77668996E+17   1.17569345E+08   0.00000000E+00   1.05080179E+09   0.29422425      
  41               6.30957344E-02   3.86763403E-02   906.46514493     1.20960214E-06   3.09043848E+17   1.17569314E+08   0.00000000E+00   1.03744777E+09   0.29360889      
  42               7.41310241E-02   4.41067661E-02   940.43468330     1.32956429E-06   3.39705375E+17   1.17569280E+08   0.00000000E+00   1.02390654E+09   0.29264892      
  43               8.70963590E-02   5.01817562E-02   968.57891031     1.46869882E-06   3.75263813E+17   1.17569259E+08   0.00000000E+00   1.01015901E+09   0.29181179      
  44               1.02329299E-01   5.69589733E-02   1007.94991602    1.60189420E-06   4.09306875E+17   1.17504231E+08   6.72049959E+04   9.96186689E+08   0.29064229      
  45               1.20226443E-01   6.44819567E-02   1041.80083848    1.75451923E-06   4.48310948E+17   1.17191360E+08   3.81567491E+05   9.81996301E+08   0.28961143      
  46               1.41253754E-01   7.28125330E-02   1082.24851590    1.90712449E-06   4.87309615E+17   1.16664800E+08   9.09697843E+05   9.67594837E+08   0.28831448      
  47               1.65958691E-01   8.20091271E-02   1116.59576035    2.08191867E-06   5.31976018E+17   1.15959231E+08   1.61690846E+06   9.52999783E+08   0.28717595      
  48               1.94984460E-01   9.21385685E-02   1157.95636566    2.25551092E-06   5.76335148E+17   1.15055368E+08   2.52239210E+06   9.38217849E+08   0.28580407      
  49               2.29086765E-01   1.03315475E-01   1192.80612996    2.45521884E-06   6.27366544E+17   1.13995464E+08   3.58408324E+06   9.23198396E+08   0.28460164      
  50               2.69153480E-01   1.15655355E-01   1235.37005187    2.65376552E-06   6.78101207E+17   1.12728747E+08   4.85294459E+06   9.07910959E+08   0.2830582       
  51               3.16227766E-01   1.29269825E-01   1270.95160575    2.88311231E-06   7.36705626E+17   1.11241593E+08   6.34260186E+06   8.92346330E+08   0.28176334      
  52               3.71535229E-01   1.44266368E-01   1314.78719946    3.11030885E-06   7.94759032E+17   1.09421548E+08   8.16570645E+06   8.76509837E+08   0.27986867      
  53               4.36515832E-01   1.60751507E-01   1350.92344350    3.37302919E-06   8.61886650E+17   1.07272715E+08   1.03182738E+07   8.60415194E+08   0.27849387      
  54               5.12861384E-01   1.78830643E-01   1395.86376072    3.63168894E-06   9.27950363E+17   1.04752151E+08   1.28430005E+07   8.44080295E+08   0.27721482      
  55               6.02559586E-01   1.98652748E-01   1432.61265974    3.93088791E-06   1.00436514E+18   1.01949903E+08   1.56531083E+07   8.27490025E+08   0.27572568      
  56               7.07945784E-01   2.20338282E-01   1478.59237222    4.22576197E-06   1.07936253E+18   9.88367955E+07   1.87885744E+07   8.10663254E+08   0.27386403      
  57               8.31763771E-01   2.43872464E-01   1515.42000148    4.56353954E-06   1.16561624E+18   9.54387995E+07   2.22309227E+07   7.93716089E+08   0.2721637       
  58               9.77237221E-01   2.69056698E-01   1561.24626952    4.88794928E-06   1.24824040E+18   9.15516379E+07   2.61914249E+07   7.76853442E+08   0.27021333      
  59               1.14815362E+00   2.95191977E-01   1595.71918326    5.24802383E-06   1.33990474E+18   8.72720676E+07   3.05091433E+07   7.60535162E+08   0.26844095      
  60               1.34896288E+00   3.20419509E-01   1636.25198037    5.56153998E-06   1.41838655E+18   8.25399332E+07   3.50676304E+07   7.45766537E+08   0.26711418      
  61               1.58489319E+00   3.42172606E-01   1659.96392107    5.85418691E-06   1.49304339E+18   7.84426167E+07   3.89518463E+07   7.33710893E+08   0.2656218       
  62               1.86208714E+00   3.66215663E-01   1695.38983199    6.13420132E-06   1.56456345E+18   7.42728398E+07   4.30783645E+07   7.21023340E+08   0.26421964      
  63               2.18776162E+00   3.86736776E-01   1714.56982247    6.41134360E-06   1.63375202E+18   7.08682007E+07   4.64366202E+07   7.10674141E+08   0.26267555      
  64               2.57039578E+00   4.02742797E-01   1738.28845778    6.58540417E-06   1.67815386E+18   6.79780507E+07   4.93429814E+07   7.02884491E+08   0.26181648      
  65               3.01995172E+00   4.20625886E-01   1752.71722734    6.82106924E-06   1.73824097E+18   6.50987893E+07   5.22784052E+07   6.94446770E+08   0.26038473      
  66               3.54813389E+00   4.40535699E-01   1779.38763803    7.03656693E-06   1.79323158E+18   6.21850500E+07   5.52425662E+07   6.85358923E+08   0.25927475      
  67               4.16869383E+00   4.62610105E-01   1796.51588058    7.31849149E-06   1.86513338E+18   5.89211780E+07   5.85540209E+07   6.75631495E+08   0.25752866      
  68               4.89778819E+00   4.86971075E-01   1825.93483656    7.57929900E-06   1.93171802E+18   5.55427407E+07   6.19731485E+07   6.65287936E+08   0.25621747      
  69               5.75439937E+00   5.13684202E-01   1845.40154719    7.91037898E-06   2.01618867E+18   5.17349967E+07   6.58158825E+07   6.54378260E+08   0.25413644      
  70               6.76082975E+00   5.42687787E-01   1876.93218120    8.21591891E-06   2.09424413E+18   4.80513272E+07   6.95222922E+07   6.43001306E+08   0.25253048      
  71               7.94328235E+00   5.74132444E-01   1898.01301675    8.59487276E-06   2.19098166E+18   4.45430384E+07   7.30448964E+07   6.31168180E+08   0.2499991       
  72               9.33254301E+00   6.08829258E-01   1931.71084540    8.95416712E-06   2.28285978E+18   4.16120594E+07   7.59839207E+07   6.18661022E+08   0.24811764      
  73               1.09647820E+01   6.47044334E-01   1955.19122018    9.40101575E-06   2.39701438E+18   3.85987143E+07   7.89995196E+07   6.05489517E+08   0.24508445      
  74               1.28824955E+01   6.89081592E-01   1991.26446558    9.82863627E-06   2.50649905E+18   3.58762709E+07   8.17167932E+07   5.91660150E+08   0.2427865       
  75               1.51356125E+01   7.35259495E-01   2016.84645726    1.03528208E-05   2.64054544E+18   3.29655981E+07   8.46203238E+07   5.77183797E+08   0.23905299      
  76               1.77827941E+01   7.85947242E-01   2054.90442132    1.08588179E-05   2.77030514E+18   3.04215024E+07   8.71523945E+07   5.62066122E+08   0.23640567      
  77               2.08929613E+01   8.41530852E-01   2082.28586270    1.14716199E-05   2.92722113E+18   2.76830907E+07   8.98770315E+07   5.46317433E+08   0.23210773      
  78               2.45470892E+01   9.02462055E-01   2121.94160303    1.20681173E-05   3.08050106E+18   2.54147414E+07   9.21297259E+07   5.29941310E+08   0.22921882      
  79               2.88403150E+01   9.69207809E-01   2150.84483640    1.27830334E-05   3.26387609E+18   2.29230237E+07   9.46076271E+07   5.12947582E+08   0.22441851      
  80               3.38844156E+01   1.04231520E+00   2191.70462940    1.34847004E-05   3.44463244E+18   2.09701768E+07   9.65442190E+07   4.95338849E+08   0.22138492      
  81               3.98107171E+01   1.12234306E+00   2221.87525827    1.43176803E-05   3.65874207E+18   1.87314699E+07   9.87679270E+07   4.77125640E+08   0.21604662      
  82               4.67735141E+01   1.20994988E+00   2263.50376953    1.51422901E-05   3.87179183E+18   1.70572685E+07   1.00426951E+08   4.58310339E+08   0.21280881      
  83               5.49540874E+01   1.30579050E+00   2294.65457692    1.61123560E-05   4.12175358E+18   1.50145305E+07   1.02459848E+08   4.38906975E+08   0.20685306      
  84               6.45654229E+01   1.41057115E+00   2336.51738934    1.70819263E-05   4.37272151E+18   1.35765715E+07   1.03889663E+08   4.18933593E+08   0.20369355      
  85               7.58577575E+01   1.52508512E+00   2368.40410893    1.82093110E-05   4.66405989E+18   1.18311544E+07   1.05629757E+08   3.98400866E+08   0.1977211       
  86               8.91250938E+01   1.65037004E+00   2410.21610829    1.93455130E-05   4.95965180E+18   1.06937741E+07   1.06763080E+08   3.77291805E+08   0.19478866      
  87               1.04712855E+02   1.78737029E+00   2442.78646468    2.06569488E-05   5.29974372E+18   9.25820149E+06   1.08198496E+08   3.55619657E+08   0.18872375      
  88               1.23026877E+02   1.93720719E+00   2484.24649360    2.19909784E-05   5.64816307E+18   8.32376106E+06   1.09134153E+08   3.33388044E+08   0.18608656      
  89               1.44543977E+02   2.10097176E+00   2517.41063716    2.35151046E-05   6.04493995E+18   7.14965472E+06   1.10312395E+08   3.10614608E+08   0.1802706       
  90               1.69824365E+02   2.27998238E+00   2558.31362049    2.50791376E-05   6.45510851E+18   6.40273810E+06   1.11066685E+08   2.87303820E+08   0.17786963      
  91               1.99526231E+02   2.47550682E+00   2591.96953477    2.68484558E-05   6.91767371E+18   5.50027717E+06   1.11980197E+08   2.63475694E+08   0.17219661      
  92               2.34422882E+02   2.68908456E+00   2632.08004820    2.86799884E-05   7.39999125E+18   4.91637263E+06   1.12578894E+08   2.39136014E+08   0.17009502      
  93               2.75422870E+02   2.92217282E+00   2666.16522555    3.07308052E-05   7.93861385E+18   4.22996196E+06   1.13283102E+08   2.14307590E+08   0.16483027      
  94               3.23593657E+02   3.17653746E+00   2705.37511404    3.28709594E-05   8.50456941E+18   3.76954711E+06   1.13766206E+08   1.88998795E+08   0.1628792       
  95               3.80189396E+02   3.45384294E+00   2739.77144680    3.52443089E-05   9.13091057E+18   3.24675524E+06   1.14316610E+08   1.63234795E+08   0.15790358      
  96               4.46683592E+02   3.75612552E+00   2777.94262106    3.77400530E-05   9.79360685E+18   2.88883291E+06   1.14710764E+08   1.37024317E+08   0.15620968      
  97               5.24807460E+02   4.08528959E+00   2812.59749235    4.04810725E-05   1.05206144E+19   2.50090929E+06   1.15139464E+08   1.10393107E+08   0.15191869      
  98               6.16595002E+02   4.44362117E+00   2849.80469645    4.33816493E-05   1.12939996E+19   2.22307678E+06   1.15466685E+08   8.33526999E+07   0.15042392      
  99               7.24435960E+02   4.83326011E+00   2884.65049376    4.65396385E-05   1.21359228E+19   1.93134155E+06   1.15812560E+08   5.59304098E+07   0.146569        
  100              8.51138038E+02   5.25679304E+00   2920.88315257    4.99003738E-05   1.30356453E+19   1.71412373E+06   1.16097732E+08   2.81377285E+07   0.14520364      
  101              1.00000000E+03   5.71666206E+00   2955.83823674    5.35301352E-05   1.40083730E+19   1.57851122E+06   1.16286287E+08   0.00000000E+00   0.1418293       
