# ATMO pressure-temperature profile
# Effective temperature = 450.0K
# log(g) = 5.0cm/s^2
# M/H = 0.0
# Optical depth grid in band 17 (1.20-1.33microns)
# All parameters in cgs units
#
# Model Level      Optical Depth    Pressure         Temperature      Density          Number Density   Rad Flux         Conv Flux        Radial Extension Adiabatic Gradient
#                                   [Ba]             [K]              [g/cm^3]         [/cm^3]          [ergs/s/cm^2/sr] [ergs/s/cm^2/sr] [cm]             [K/Ba]          
  1                5.00000000E-07   1.00000000E-05   39.25236239      7.22225056E-09   1.84527050E+15   2.32490286E+06   0.00000000E+00   3.27038991E+06   0.34574552      
  2                6.19412983E-07   2.61050349E-05   47.68631026      1.55191850E-08   3.96512056E+15   2.32490286E+06   0.00000000E+00   3.25517775E+06   0.34574552      
  3                7.67344888E-07   4.60486388E-05   51.14186521      2.55257546E-08   6.52177893E+15   2.32490286E+06   0.00000000E+00   3.24515747E+06   0.34574551      
  4                9.50606773E-07   7.07440289E-05   53.93023983      3.71873982E-08   9.50130540E+15   2.32490286E+06   0.00000000E+00   3.23714200E+06   0.34574551      
  5                1.17763635E-06   1.01320247E-04   56.92159994      5.04611912E-08   1.28927328E+16   2.32490286E+06   0.00000000E+00   3.23008359E+06   0.34574551      
  6                1.45888650E-06   1.39175009E-04   59.14902857      6.67040186E-08   1.70427425E+16   2.32490286E+06   0.00000000E+00   3.22355881E+06   0.31479376      
  7                1.80730647E-06   1.86033647E-04   61.90788264      8.51890758E-08   2.17656374E+16   2.32490286E+06   0.00000000E+00   3.21734266E+06   0.31480345      
  8                2.23893819E-06   2.44031895E-04   64.15001085      1.07842070E-07   2.75534317E+16   2.32490286E+06   0.00000000E+00   3.21129163E+06   0.3148128       
  9                2.77365477E-06   3.15805207E-04   67.12362296      1.33377403E-07   3.40776577E+16   2.32490286E+06   0.00000000E+00   3.20530713E+06   0.31482196      
  10               3.43607555E-06   4.04605099E-04   69.49089997      1.65059975E-07   4.21724911E+16   2.32490286E+06   0.00000000E+00   3.19932232E+06   0.31483101      
  11               4.25669961E-06   5.14402743E-04   72.47128549      2.01222097E-07   5.14118403E+16   2.32490286E+06   0.00000000E+00   3.19329764E+06   0.31484003      
  12               5.27331001E-06   6.49452672E-04   74.82799643      2.46049083E-07   6.28650449E+16   2.32490286E+06   0.00000000E+00   3.18722824E+06   0.31484907      
  13               6.53271338E-06   8.14714647E-04   77.98110701      2.96179154E-07   7.56731771E+16   2.32490286E+06   0.00000000E+00   3.18110636E+06   0.31485817      
  14               8.09289496E-06   1.01619406E-03   80.57702209      3.57522846E-07   9.13463667E+16   2.32490286E+06   0.00000000E+00   3.17491478E+06   0.31486733      
  15               1.00256884E-05   1.26112392E-03   84.16038772      4.24803805E-07   1.08536516E+17   2.32490286E+06   0.00000000E+00   3.16862992E+06   0.31487656      
  16               1.24200832E-05   1.55841306E-03   87.18334570      5.06742593E-07   1.29471711E+17   2.32490286E+06   0.00000000E+00   3.16222238E+06   0.31488587      
  17               1.53863215E-05   1.91967204E-03   91.17313693      5.96895773E-07   1.52505667E+17   2.32490286E+06   0.00000000E+00   3.15565374E+06   0.31489527      
  18               1.90609746E-05   2.35889738E-03   94.49493906      7.07683158E-07   1.80811620E+17   2.32490286E+06   0.00000000E+00   3.14889573E+06   0.3149048       
  19               2.36132303E-05   2.89299687E-03   98.95713837      8.28779876E-07   2.11751588E+17   2.32490286E+06   0.00000000E+00   3.14192171E+06   0.31491451      
  20               2.92526829E-05   3.54262691E-03   102.70353969     9.77863190E-07   2.49842228E+17   2.32490286E+06   0.00000000E+00   3.13470553E+06   0.31492444      
  21               3.62389832E-05   4.33301094E-03   107.66410937     1.14092330E-06   2.91504103E+17   2.32490286E+06   0.00000000E+00   3.12722261E+06   0.31493462      
  22               4.48937934E-05   5.29488236E-03   111.89332438     1.34148824E-06   3.42750406E+17   2.32490286E+06   0.00000000E+00   3.11944770E+06   0.316413        
  23               5.56155970E-05   6.46546645E-03   117.51482902     1.55968222E-06   3.98504316E+17   2.32490286E+06   0.00000000E+00   3.11135505E+06   0.31592049      
  24               6.88980457E-05   7.89023755E-03   122.24174680     1.82966196E-06   4.67515884E+17   2.32490286E+06   0.00000000E+00   3.10292089E+06   0.32172471      
  25               8.53526881E-05   9.62428496E-03   128.47153733     2.12373314E-06   5.42609499E+17   2.32490286E+06   0.00000000E+00   3.09412407E+06   0.32147069      
  26               1.05737126E-04   1.17338918E-02   133.82009216     2.48576225E-06   6.35106554E+17   2.32490286E+06   0.00000000E+00   3.08494240E+06   0.32494338      
  27               1.30989898E-04   1.42999281E-02   140.77449229     2.87970979E-06   7.35759240E+17   2.32490286E+06   0.00000000E+00   3.07535152E+06   0.32503817      
  28               1.62273687E-04   1.74210650E-02   146.76306244     3.36509069E-06   8.59772948E+17   2.32490286E+06   0.00000000E+00   3.06532523E+06   0.3253676       
  29               2.01028857E-04   2.12167435E-02   154.43732763     3.89462172E-06   9.95066918E+17   2.32490286E+06   0.00000000E+00   3.05484047E+06   0.32532558      
  30               2.49039768E-04   2.58315126E-02   161.10704563     4.54542102E-06   1.16134470E+18   2.32490286E+06   0.00000000E+00   3.04387240E+06   0.32469711      
  31               3.08516931E-04   3.14426787E-02   169.43192920     5.26093617E-06   1.34415738E+18   2.32490286E+06   0.00000000E+00   3.03239788E+06   0.32469137      
  32               3.82198786E-04   3.82642748E-02   176.68688193     6.13942335E-06   1.56861015E+18   2.32490286E+06   0.00000000E+00   3.02039486E+06   0.32308616      
  33               4.73477780E-04   4.65539806E-02   185.67666276     7.10783046E-06   1.81603970E+18   2.32490286E+06   0.00000000E+00   3.00784593E+06   0.32299787      
  34               5.86556569E-04   5.66188365E-02   193.72837935     8.28516335E-06   2.11686682E+18   2.32490286E+06   0.00000000E+00   2.99473032E+06   0.31976047      
  35               7.26641509E-04   6.88240814E-02   203.67091611     9.57934496E-06   2.44758198E+18   2.32490286E+06   0.00000000E+00   2.98103008E+06   0.31943499      
  36               9.00182369E-04   8.36124257E-02   212.27800221     1.11649275E-05   2.85293365E+18   2.32490286E+06   0.00000000E+00   2.96673049E+06   0.31588647      
  37               1.11516929E-03   1.01518905E-01   222.41490208     1.29317252E-05   3.30604592E+18   2.32490286E+06   0.00000000E+00   2.95182816E+06   0.31540265      
  38               1.38150068E-03   1.23192424E-01   231.12518364     1.51104919E-05   3.86066901E+18   2.32490286E+06   0.00000000E+00   2.93632351E+06   0.31231814      
  39               1.71143891E-03   1.49445328E-01   241.20095104     1.75647754E-05   4.48775527E+18   2.32490286E+06   0.00000000E+00   2.92020902E+06   0.31185961      
  40               2.12017497E-03   1.81250402E-01   249.96889674     2.05558246E-05   5.25192898E+18   2.32490286E+06   0.00000000E+00   2.90347086E+06   0.30934276      
  41               2.62652780E-03   2.19791907E-01   260.24985972     2.39421470E-05   6.11712045E+18   2.32490286E+06   0.00000000E+00   2.88609766E+06   0.30887472      
  42               3.25381085E-03   2.66526512E-01   269.47024792     2.80395794E-05   7.16399763E+18   2.32490286E+06   0.00000000E+00   2.86806037E+06   0.30680212      
  43               4.03090537E-03   3.23193125E-01   280.37440665     3.26787660E-05   8.34929077E+18   2.32490286E+06   0.00000000E+00   2.84934025E+06   0.30640895      
  44               4.99359024E-03   3.91849990E-01   290.51102275     3.82383487E-05   9.76974131E+18   2.32490286E+06   0.00000000E+00   2.82991791E+06   0.30484865      
  45               6.18618926E-03   4.74966843E-01   302.68916148     4.44844606E-05   1.13655973E+19   2.32490286E+06   0.00000000E+00   2.80976511E+06   0.3044761       
  46               7.66361189E-03   5.75480302E-01   314.49654208     5.18748073E-05   1.32538005E+19   2.32490286E+06   0.00000000E+00   2.78884125E+06   0.30319609      
  47               9.49388141E-03   6.96844237E-01   328.56947837     6.01243516E-05   1.53615251E+19   2.32490286E+06   0.00000000E+00   2.76710993E+06   0.30281759      
  48               1.17612668E-02   8.43080060E-01   342.66424319     6.97496356E-05   1.78207455E+19   2.32490286E+06   0.00000000E+00   2.74452818E+06   0.30194123      
  49               1.45701627E-02   1.01897702E+00   359.70985555     8.03071062E-05   2.05181354E+19   2.32490286E+06   0.00000000E+00   2.72102588E+06   0.30163061      
  50               1.80498959E-02   1.23023337E+00   377.61825436     9.23583990E-05   2.35971940E+19   2.32490284E+06   0.00000000E+00   2.69649604E+06   0.30096805      
  51               2.23606798E-02   1.48310905E+00   399.50301046     1.05243734E-04   2.68892610E+19   2.32153100E+06   3.37186357E+03   2.67084699E+06   0.3006943       
  52               2.77009907E-02   1.78433225E+00   422.29077784     1.19786358E-04   3.06048297E+19   2.30625003E+06   1.86528414E+04   2.64401910E+06   0.30036676      
  53               3.43167066E-02   2.14231060E+00   446.16091127     1.36123829E-04   3.47789733E+19   2.28405100E+06   4.08518684E+04   2.61598504E+06   0.30016992      
  54               4.25124273E-02   2.56692522E+00   470.99879930     1.54502901E-04   3.94747381E+19   2.25838552E+06   6.65173645E+04   2.58670581E+06   0.29991281      
  55               5.26654988E-02   3.06875429E+00   496.93770941     1.75066116E-04   4.47286718E+19   2.23270239E+06   9.22004898E+04   2.55619269E+06   0.29975116      
  56               6.52433875E-02   3.65927588E+00   523.81292959     1.98061827E-04   5.05993314E+19   2.21598932E+06   1.08913590E+05   2.52447894E+06   0.29955896      
  57               8.08252026E-02   4.35393194E+00   551.83717073     2.23693253E-04   5.71474064E+19   2.21480517E+06   1.10097708E+05   2.49147673E+06   0.29940649      
  58               1.00128360E-01   5.17056357E+00   580.93835084     2.52342281E-04   6.44664380E+19   2.22096105E+06   1.03941844E+05   2.45710473E+06   0.29918792      
  59               1.24041612E-01   6.12705571E+00   611.22572554     2.84205420E-04   7.26065906E+19   2.22450531E+06   1.00397542E+05   2.42138812E+06   0.29902196      
  60               1.53665970E-01   7.24105266E+00   642.48979159     3.19534354E-04   8.16321648E+19   2.21689497E+06   1.08007926E+05   2.38442156E+06   0.29873336      
  61               1.90365394E-01   8.53659268E+00   674.88393042     3.58622407E-04   9.16181066E+19   2.19391110E+06   1.30991749E+05   2.34615025E+06   0.29844511      
  62               2.35829593E-01   1.00436174E+01   708.38917367     4.01975880E-04   1.02693767E+20   2.15288359E+06   1.72019345E+05   2.30645837E+06   0.29794499      
  63               2.92151824E-01   1.17915335E+01   743.06465103     4.49909450E-04   1.14939560E+20   2.09500982E+06   2.29893079E+05   2.26535684E+06   0.29751429      
  64               3.61925265E-01   1.38103263E+01   778.79351861     5.02762261E-04   1.28442116E+20   2.02505941E+06   2.99843633E+05   2.22290975E+06   0.29680025      
  65               4.48362417E-01   1.61404011E+01   815.63083550     5.61049827E-04   1.43333111E+20   1.95526331E+06   3.69639781E+05   2.17903771E+06   0.29619517      
  66               5.55443005E-01   1.88409171E+01   853.84410805     6.25611145E-04   1.59826685E+20   1.89743679E+06   4.27466418E+05   2.13345565E+06   0.29520453      
  67               6.88097217E-01   2.19664732E+01   893.31715366     6.97168532E-04   1.78106800E+20   1.86393825E+06   4.60965020E+05   2.08612891E+06   0.29439536      
  68               8.52432700E-01   2.55606939E+01   934.06564488     7.75853929E-04   1.98207955E+20   1.85968208E+06   4.65221117E+05   2.03725848E+06   0.2931016       
  69               1.05601576E+00   2.96607658E+01   975.51207710     8.62053279E-04   2.20229529E+20   1.88902975E+06   4.35873267E+05   1.98712423E+06   0.29207956      
  70               1.30821975E+00   3.43273346E+01   1018.08336597    9.55964257E-04   2.44220762E+20   1.94753201E+06   3.77370872E+05   1.93571869E+06   0.29048224      
  71               1.62065660E+00   3.96471115E+01   1061.30922909    1.05914994E-03   2.70579850E+20   2.03145143E+06   2.93451572E+05   1.88285052E+06   0.28929312      
  72               2.00771148E+00   4.56923748E+01   1105.89689535    1.17146463E-03   2.99264314E+20   2.12689630E+06   1.98010713E+05   1.82857886E+06   0.2874664       
  73               2.48720511E+00   5.25305779E+01   1150.72232584    1.29431802E-03   3.30649202E+20   2.23196616E+06   9.29366500E+04   1.77304511E+06   0.28612681      
  74               3.08121427E+00   6.02424459E+01   1196.92437762    1.42703516E-03   3.64553879E+20   2.32490300E+06   0.00000000E+00   1.71630087E+06   0.28424503      
  75               3.81708825E+00   6.89371794E+01   1243.11461672    1.57232017E-03   4.01668872E+20   2.32490287E+06   0.00000000E+00   1.65825538E+06   0.28272646      
  76               4.72870805E+00   7.87809243E+01   1286.58650490    1.73612723E-03   4.43514599E+20   2.32490285E+06   0.00000000E+00   1.59867556E+06   0.28092773      
  77               5.85804632E+00   8.99065523E+01   1332.30957484    1.91332128E-03   4.88778432E+20   2.32490285E+06   0.00000000E+00   1.53763197E+06   0.27939725      
  78               7.25709989E+00   1.02414278E+02   1376.78438720    2.10911326E-03   5.38791102E+20   2.32490285E+06   0.00000000E+00   1.47536830E+06   0.27759062      
  79               8.99028379E+00   1.16408317E+02   1424.33637774    2.31729487E-03   5.91966709E+20   2.32490278E+06   0.00000000E+00   1.41206841E+06   0.27600443      
  80               1.11373970E+01   1.32033970E+02   1471.52265044    2.54408772E-03   6.49897056E+20   2.32494296E+06   0.00000000E+00   1.34771344E+06   0.27408564      
  81               1.37972966E+01   1.49515780E+02   1522.69443374    2.78412342E-03   7.11213695E+20   2.31738554E+06   7.51684811E+03   1.28202682E+06   0.27239638      
  82               1.70924493E+01   1.68996971E+02   1573.85965581    3.04456633E-03   7.77747738E+20   2.23044579E+06   9.44570322E+04   1.21511396E+06   0.27052851      
  83               2.11745701E+01   1.90538025E+02   1625.91547367    3.32271869E-03   8.48808140E+20   2.12342636E+06   2.01478394E+05   1.14738743E+06   0.26879609      
  84               2.62316072E+01   2.14146921E+02   1677.28589438    3.61999696E-03   9.24763284E+20   1.99815318E+06   3.26754330E+05   1.07931414E+06   0.26697609      
  85               3.24963962E+01   2.39784509E+02   1728.83171705    3.93446289E-03   1.00460247E+21   1.86676268E+06   4.58151820E+05   1.01137236E+06   0.26528955      
  86               4.02573794E+01   2.67581110E+02   1779.39421432    4.26581595E-03   1.08920372E+21   1.73945291E+06   5.85467839E+05   9.43522258E+05   0.26350521      
  87               4.98718870E+01   2.97884488E+02   1830.55159865    4.61616020E-03   1.17866871E+21   1.61874694E+06   7.06190032E+05   8.75233210E+05   0.26186788      
  88               6.17825886E+01   3.30947339E+02   1881.23691029    4.99046132E-03   1.27421068E+21   1.49158296E+06   8.33367231E+05   8.06347041E+05   0.26010306      
  89               7.65378750E+01   3.66883694E+02   1932.48550550    5.38611270E-03   1.37511179E+21   1.35109463E+06   9.73903096E+05   7.37031618E+05   0.25851816      
  90               9.48171070E+01   4.05348369E+02   1982.49031849    5.80235658E-03   1.48095954E+21   1.19049759E+06   1.13455029E+06   6.68224697E+05   0.25679158      
  91               1.17461894E+02   4.45571920E+02   2031.35928120    6.22799124E-03   1.58875493E+21   1.06305184E+06   1.26211491E+06   6.01310583E+05   0.25529449      
  92               1.45514845E+02   4.90409466E+02   2081.28571657    6.69595931E-03   1.70668346E+21   9.47119620E+05   1.37797055E+06   5.31875407E+05   0.2535074       
  93               1.80267568E+02   5.36711835E+02   2129.49228686    7.16269632E-03   1.82553826E+21   8.10916198E+05   1.51427801E+06   4.65015658E+05   0.25200367      
  94               2.23320145E+02   5.83270972E+02   2174.25506847    7.62355207E-03   1.94305776E+21   7.18184088E+05   1.60808732E+06   4.02008679E+05   0.25028042      
  95               2.76654794E+02   6.36438659E+02   2222.28973253    8.13826873E-03   2.07434845E+21   6.34164882E+05   1.69279031E+06   3.34508667E+05   0.24876197      
  96               3.42727143E+02   6.88208496E+02   2265.60379391    8.63410739E-03   2.20019871E+21   5.19168780E+05   1.80881144E+06   2.72747008E+05   0.24697655      
  97               4.24579284E+02   7.35894626E+02   2303.42883906    9.08043286E-03   2.31401767E+21   4.51601083E+05   1.87796686E+06   2.18891448E+05   0.24576857      
  98               5.25979842E+02   7.91832783E+02   2345.06335620    9.59778785E-03   2.44570875E+21   4.24151683E+05   1.90523243E+06   1.58969636E+05   0.2439078       
  99               6.51597486E+02   8.57337054E+02   2390.86285735    1.01918050E-02   2.59730391E+21   3.65305620E+05   1.95976409E+06   9.27389595E+04   0.24246629      
  100              8.07215886E+02   9.12554307E+02   2427.15007091    1.06952396E-02   2.72325261E+21   2.82758854E+05   2.04255889E+06   3.98445726E+04   0.24063472      
  101              1.00000000E+03   9.55927183E+02   2454.31468973    1.10791921E-02   2.82111249E+21   2.46131454E+05   2.07898936E+06   0.00000000E+00   0.23969023      
