# ATMO pressure-temperature profile
# Effective temperature = 400.0K
# log(g) = 4.5cm/s^2
# M/H = 0.0
# Optical depth grid in band 17 (1.20-1.33microns)
# All parameters in cgs units
#
# Model Level      Optical Depth    Pressure         Temperature      Density          Number Density   Rad Flux         Conv Flux        Radial Extension Adiabatic Gradient
#                                   [Ba]             [K]              [g/cm^3]         [/cm^3]          [ergs/s/cm^2/sr] [ergs/s/cm^2/sr] [cm]             [K/Ba]          
  1                5.00000000E-05   1.00000000E-05   48.43335429      5.85274262E-09   1.49548235E+15   1.45139619E+06   0.00000000E+00   9.76398917E+06   0.34612403      
  2                5.91534807E-05   4.71338587E-04   63.74465983      2.09600909E-07   5.35568502E+16   1.45139619E+06   0.00000000E+00   9.34746186E+06   0.31481522      
  3                6.99826855E-05   1.01202263E-03   75.26939608      3.81132309E-07   9.73862474E+16   1.45139619E+06   0.00000000E+00   9.28696831E+06   0.31484356      
  4                8.27943887E-05   1.62997034E-03   81.75722598      5.65141926E-07   1.44404056E+17   1.45139619E+06   0.00000000E+00   9.24486317E+06   0.31486326      
  5                9.79515255E-05   2.32965564E-03   88.61631052      7.45215776E-07   1.90416205E+17   1.45139619E+06   0.00000000E+00   9.21076878E+06   0.31487908      
  6                1.15883473E-04   3.12910058E-03   93.46221771      9.49046333E-07   2.42498626E+17   1.45139619E+06   0.00000000E+00   9.18070775E+06   0.31489272      
  7                1.37098216E-04   4.04810481E-03   99.61884401      1.15189820E-06   2.94331057E+17   1.45139619E+06   0.00000000E+00   9.15291274E+06   0.31490517      
  8                1.62196734E-04   5.10804887E-03   104.13110997     1.39052093E-06   3.55304236E+17   1.45139619E+06   0.00000000E+00   9.12642853E+06   0.31491691      
  9                1.91890027E-04   6.33318620E-03   110.35939107     1.62672576E-06   4.15660543E+17   1.45139619E+06   0.00000000E+00   9.10066894E+06   0.31492825      
  10               2.27019260E-04   7.75217386E-03   114.88968280     1.91263316E-06   4.88729229E+17   1.45139619E+06   0.00000000E+00   9.07522962E+06   0.3149394       
  11               2.68579588E-04   9.39793476E-03   121.33667794     2.19538264E-06   5.61004268E+17   1.45139619E+06   0.00000000E+00   9.04983184E+06   0.31943463      
  12               3.17748350E-04   1.13076522E-02   126.12958006     2.54132341E-06   6.49353720E+17   1.45139619E+06   0.00000000E+00   9.02426459E+06   0.3149617       
  13               3.75918418E-04   1.35243032E-02   133.04460490     2.88152289E-06   7.36280790E+17   1.45139619E+06   0.00000000E+00   8.99836121E+06   0.32293979      
  14               4.44737657E-04   1.60986559E-02   138.17424411     3.30268353E-06   8.43894896E+17   1.45139619E+06   0.00000000E+00   8.97197218E+06   0.31694582      
  15               5.26155608E-04   1.90897563E-02   145.53395401     3.71826636E-06   9.50083760E+17   1.45139619E+06   0.00000000E+00   8.94498066E+06   0.32554706      
  16               6.22478712E-04   2.25655558E-02   151.10297033     4.23328463E-06   1.08168018E+18   1.45139619E+06   0.00000000E+00   8.91727645E+06   0.32546467      
  17               7.36435649E-04   2.66050405E-02   159.06492603     4.74126159E-06   1.21147745E+18   1.45139619E+06   0.00000000E+00   8.88876363E+06   0.32583311      
  18               8.71254639E-04   3.13008882E-02   165.12500263     5.37338716E-06   1.37299724E+18   1.45139619E+06   0.00000000E+00   8.85934361E+06   0.325833        
  19               1.03075489E-03   3.67616553E-02   173.51606264     6.00564258E-06   1.53455060E+18   1.45139619E+06   0.00000000E+00   8.82894527E+06   0.32533653      
  20               1.21945479E-03   4.31114016E-02   179.96477746     6.79058897E-06   1.73512381E+18   1.45139619E+06   0.00000000E+00   8.79750234E+06   0.32533735      
  21               1.44269991E-03   5.04930674E-02   188.78896530     7.58151169E-06   1.93722912E+18   1.45139619E+06   0.00000000E+00   8.76496945E+06   0.32512549      
  22               1.70681442E-03   5.90660873E-02   195.91739950     8.54519733E-06   2.18369025E+18   1.45139619E+06   0.00000000E+00   8.73128768E+06   0.32507701      
  23               2.01928028E-03   6.90148522E-02   205.40915134     9.52417952E-06   2.43359673E+18   1.45139619E+06   0.00000000E+00   8.69641428E+06   0.32486283      
  24               2.38894914E-03   8.05510017E-02   212.84030986     1.07210829E-05   2.74121376E+18   1.45139619E+06   0.00000000E+00   8.66031257E+06   0.32471748      
  25               2.82629313E-03   9.39300009E-02   222.24172777     1.19807426E-05   3.06129063E+18   1.45139619E+06   0.00000000E+00   8.62298218E+06   0.32426102      
  26               3.34370152E-03   1.09445759E-01   229.44847948     1.35213863E-05   3.45493271E+18   1.45139618E+06   0.00000000E+00   8.58443253E+06   0.32397459      
  27               3.95583167E-03   1.27441883E-01   238.44463392     1.51506787E-05   3.87124330E+18   1.45139619E+06   0.00000000E+00   8.54467198E+06   0.32323286      
  28               4.68002425E-03   1.48330805E-01   245.36999857     1.71363119E-05   4.37860463E+18   1.45139618E+06   0.00000000E+00   8.50367600E+06   0.32282792      
  29               5.53679448E-03   1.72588992E-01   254.23688596     1.92434076E-05   4.91700186E+18   1.45139619E+06   0.00000000E+00   8.46143262E+06   0.32183771      
  30               6.55041330E-03   2.00766907E-01   261.31582334     2.17787969E-05   5.56483458E+18   1.45139619E+06   0.00000000E+00   8.41790640E+06   0.32132174      
  31               7.74959494E-03   2.33504152E-01   270.57782716     2.44630086E-05   6.25069404E+18   1.45139619E+06   0.00000000E+00   8.37305560E+06   0.32012842      
  32               9.16831029E-03   2.71530011E-01   278.32789941     2.76546752E-05   7.06621643E+18   1.45139619E+06   0.00000000E+00   8.32682390E+06   0.31954666      
  33               1.08467493E-02   3.15671920E-01   288.49817497     3.10170398E-05   7.92535495E+18   1.45139620E+06   0.00000000E+00   8.27916251E+06   0.31831683      
  34               1.28324595E-02   3.66876803E-01   297.32061846     3.49786216E-05   8.93760312E+18   1.45139619E+06   0.00000000E+00   8.23000274E+06   0.31764513      
  35               1.51816929E-02   4.26220877E-01   308.68543948     3.91404703E-05   1.00010227E+19   1.45139620E+06   0.00000000E+00   8.17928464E+06   0.31628297      
  36               1.79609996E-02   4.94922166E-01   318.94268444     4.39877478E-05   1.12395804E+19   1.45139620E+06   0.00000000E+00   8.12692629E+06   0.3154732       
  37               2.12491128E-02   5.74351801E-01   332.06229844     4.90304506E-05   1.25280725E+19   1.45139619E+06   0.00000000E+00   8.07284042E+06   0.31416808      
  38               2.51391797E-02   6.66009936E-01   344.62678601     5.47821600E-05   1.39977270E+19   1.45138592E+06   0.00000000E+00   8.01691381E+06   0.31278178      
  39               2.97413996E-02   7.71557634E-01   360.84301634     6.06118500E-05   1.54873070E+19   1.45033111E+06   1.06588675E+03   7.95899090E+06   0.31090094      
  40               3.51861462E-02   8.92815847E-01   377.50341654     6.70422398E-05   1.71303739E+19   1.44122681E+06   1.01705318E+04   7.89883778E+06   0.30935269      
  41               4.16276604E-02   1.03207751E+00   394.82369922     7.40997021E-05   1.89336759E+19   1.42596722E+06   2.54292033E+04   7.83635662E+06   0.3077131       
  42               4.92484201E-02   1.19184168E+00   412.59661909     8.18849158E-05   2.09227489E+19   1.40495110E+06   4.64459566E+04   7.77149756E+06   0.30641372      
  43               5.82643093E-02   1.37477975E+00   431.08037615     9.04036403E-05   2.30994008E+19   1.37876531E+06   7.26310404E+04   7.70426042E+06   0.30530402      
  44               6.89307339E-02   1.58387981E+00   450.02020222     9.97702946E-05   2.54927128E+19   1.34893637E+06   1.02460601E+05   7.63463617E+06   0.3043723       
  45               8.15498567E-02   1.82243598E+00   469.69880741     1.09987604E-04   2.81033870E+19   1.31706693E+06   1.34329523E+05   7.56262196E+06   0.30350779      
  46               9.64791575E-02   2.09442500E+00   489.84722365     1.21204334E-04   3.09692010E+19   1.28602015E+06   1.65376694E+05   7.48812793E+06   0.30266228      
  47               1.14141560E-01   2.40420519E+00   510.78222948     1.33428415E-04   3.40927152E+19   1.26235706E+06   1.89039668E+05   7.41109606E+06   0.30193996      
  48               1.35037411E-01   2.75662887E+00   532.21410385     1.46838294E-04   3.75161066E+19   1.24463183E+06   2.06765147E+05   7.33147454E+06   0.30136041      
  49               1.59758657E-01   3.15702522E+00   554.48383197     1.61412382E-04   4.12396531E+19   1.22993936E+06   2.21457536E+05   7.24923096E+06   0.30095951      
  50               1.89005613E-01   3.61088931E+00   577.25781874     1.77333995E-04   4.53075096E+19   1.21492463E+06   2.36472572E+05   7.16439863E+06   0.30059021      
  51               2.23606798E-01   4.12506420E+00   600.90168198     1.94614355E-04   4.97225201E+19   1.19669542E+06   2.54701382E+05   7.07687457E+06   0.30032986      
  52               2.64542408E-01   4.70698790E+00   625.09588821     2.13473471E-04   5.45408974E+19   1.17380793E+06   2.77589520E+05   6.98659143E+06   0.30011461      
  53               3.12972084E-01   5.36444657E+00   650.19693781     2.33898437E-04   5.97593470E+19   1.14674282E+06   3.04653941E+05   6.89354862E+06   0.29995536      
  54               3.70267763E-01   6.10593943E+00   675.84106031     2.56126793E-04   6.54385636E+19   1.11725938E+06   3.34138620E+05   6.79774855E+06   0.29982397      
  55               4.38052539E-01   6.93998429E+00   702.38535647     2.80110783E-04   7.15663517E+19   1.08668610E+06   3.64711027E+05   6.69928013E+06   0.29966165      
  56               5.18246648E-01   7.87652065E+00   729.42706541     3.06125104E-04   7.82128987E+19   1.05682800E+06   3.94570173E+05   6.59814308E+06   0.29950907      
  57               6.13121862E-01   8.92882442E+00   757.44759892     3.34185553E-04   8.53822370E+19   1.02859644E+06   4.22801524E+05   6.49410369E+06   0.29934805      
  58               7.25365844E-01   1.01111998E+01   786.05288159     3.64667033E-04   9.31701441E+19   1.00359147E+06   4.47804785E+05   6.38699781E+06   0.29920642      
  59               8.58158289E-01   1.14400680E+01   815.75095193     3.97572491E-04   1.01577345E+20   9.83885958E+05   4.67513132E+05   6.27663428E+06   0.29898496      
  60               1.01526100E+00   1.29313435E+01   846.04937686     4.33307418E-04   1.10706667E+20   9.71674425E+05   4.79720248E+05   6.16301491E+06   0.29875283      
  61               1.20112443E+00   1.45999169E+01   877.40906655     4.71732516E-04   1.20524158E+20   9.69767100E+05   4.81632438E+05   6.04630725E+06   0.29847454      
  62               1.42101382E+00   1.64646380E+01   909.30237637     5.13325771E-04   1.31150424E+20   9.81039110E+05   4.70355977E+05   5.92647609E+06   0.29816851      
  63               1.68115827E+00   1.85467952E+01   942.29615556     5.57994969E-04   1.42563155E+20   1.00566539E+06   4.45732979E+05   5.80344869E+06   0.29771632      
  64               1.98892727E+00   2.08678395E+01   975.77780719     6.06282860E-04   1.54900347E+20   1.04182174E+06   4.09574489E+05   5.67725701E+06   0.29717057      
  65               2.35303941E+00   2.34486819E+01   1010.30887836    6.57981456E-04   1.68108667E+20   1.08656972E+06   3.64825606E+05   5.54804077E+06   0.29655124      
  66               2.78380943E+00   2.63086549E+01   1045.17812972    7.13608313E-04   1.82319941E+20   1.13638106E+06   3.15017161E+05   5.41605551E+06   0.29580793      
  67               3.29344035E+00   2.94649888E+01   1080.92300674    7.72815867E-04   1.97441008E+20   1.18995911E+06   2.61430716E+05   5.28165022E+06   0.29492639      
  68               3.89636920E+00   3.29455224E+01   1116.87351077    8.36288881E-04   2.13657552E+20   1.25148744E+06   1.99912943E+05   5.14474195E+06   0.29391307      
  69               4.60967600E+00   3.67958350E+01   1153.86541557    9.04080001E-04   2.30977324E+20   1.31803014E+06   1.33348887E+05   5.00471410E+06   0.29279438      
  70               5.45356761E+00   4.10587519E+01   1191.23621068    9.77171348E-04   2.49651222E+20   1.38351063E+06   6.78821465E+04   4.86129133E+06   0.29153156      
  71               6.45195012E+00   4.57725938E+01   1229.68636528    1.05529500E-03   2.69610626E+20   1.43963744E+06   1.16965623E+04   4.71449920E+06   0.2901463       
  72               7.63310614E+00   5.09703466E+01   1268.37029783    1.13929153E-03   2.91069944E+20   1.45570729E+06   0.00000000E+00   4.56459586E+06   0.28872392      
  73               9.03049593E+00   5.66825653E+01   1306.16288925    1.23031913E-03   3.14324328E+20   1.45139022E+06   0.00000000E+00   4.41202253E+06   0.28713935      
  74               1.06837053E+01   6.29399558E+01   1344.00022818    1.32769211E-03   3.39197725E+20   1.45139426E+06   0.00000000E+00   4.25719936E+06   0.2856463       
  75               1.26395671E+01   6.98036982E+01   1382.13118745    1.43187981E-03   3.65809521E+20   1.45139612E+06   0.00000000E+00   4.09977953E+06   0.28392764      
  76               1.49534878E+01   7.73511715E+01   1420.86296264    1.54347883E-03   3.94312497E+20   1.45139544E+06   0.00000000E+00   3.93923387E+06   0.28242773      
  77               1.76910170E+01   8.56601485E+01   1460.37319124    1.66306276E-03   4.24855076E+20   1.45139624E+06   0.00000000E+00   3.77523393E+06   0.28060493      
  78               2.09297047E+01   9.47890427E+01   1500.89278523    1.79063109E-03   4.57440178E+20   1.45139533E+06   0.00000000E+00   3.60794710E+06   0.27901072      
  79               2.47612977E+01   1.04773216E+02   1542.51133030    1.92583339E-03   4.91980346E+20   1.45196623E+06   0.00000000E+00   3.43792676E+06   0.27731339      
  80               2.92943389E+01   1.15619917E+02   1585.42430115    2.06766497E-03   5.28217740E+20   1.41782882E+06   3.35413444E+04   3.26603712E+06   0.27568065      
  81               3.46572422E+01   1.27316275E+02   1627.64700710    2.21778461E-03   5.66564735E+20   1.36155032E+06   8.98269685E+04   3.09331266E+06   0.27380927      
  82               4.10019301E+01   1.39886551E+02   1670.32661183    2.37440799E-03   6.06597202E+20   1.29654290E+06   1.54841520E+05   2.92008824E+06   0.27230846      
  83               4.85081376E+01   1.53317553E+02   1712.13375219    2.54005294E-03   6.48604609E+20   1.22421671E+06   2.27173208E+05   2.74712147E+06   0.27040009      
  84               5.73885036E+01   1.67652545E+02   1754.13937538    2.71102252E-03   6.92264230E+20   1.15547058E+06   2.95923245E+05   2.57437382E+06   0.26902485      
  85               6.78945948E+01   1.82951385E+02   1795.49289360    2.89022284E-03   7.38036516E+20   1.08191359E+06   3.69482953E+05   2.40154041E+06   0.26719268      
  86               8.03240320E+01   1.99166796E+02   1836.75795995    3.07571900E-03   7.85399906E+20   1.00327749E+06   4.48120569E+05   2.22955508E+06   0.26582644      
  87               9.50289215E+01   2.16170338E+02   1876.91924994    3.26695764E-03   8.34211845E+20   9.32765987E+05   5.18631945E+05   2.05992749E+06   0.26417562      
  88               1.12425830E+02   2.34443137E+02   1917.61319914    3.46825547E-03   8.85528111E+20   8.62410137E+05   5.88986820E+05   1.88826264E+06   0.2627193       
  89               1.33007583E+02   2.53414762E+02   1956.96309261    3.67445341E-03   9.37940121E+20   7.75566006E+05   6.75830424E+05   1.72020428E+06   0.26126782      
  90               1.57357229E+02   2.72763556E+02   1994.98240180    3.88117600E-03   9.90314447E+20   7.08779163E+05   7.42616174E+05   1.55817830E+06   0.25989027      
  91               1.86164557E+02   2.93810924E+02   2033.65351459    4.10507181E-03   1.04644599E+21   6.43178959E+05   8.08213024E+05   1.39142326E+06   0.25846987      
  92               2.20245630E+02   3.14760511E+02   2070.20963061    4.32040048E-03   1.10126480E+21   5.59100153E+05   8.92288471E+05   1.23411208E+06   0.25719972      
  93               2.60565913E+02   3.34739715E+02   2103.02570330    4.52281329E-03   1.15289167E+21   5.04650514E+05   9.46736390E+05   1.09118571E+06   0.255838        
  94               3.08267614E+02   3.56987288E+02   2137.97014560    4.74442586E-03   1.20941947E+21   4.79829684E+05   9.71555708E+05   9.39310459E+05   0.25476071      
  95               3.64702046E+02   3.81705187E+02   2174.55927946    4.98733810E-03   1.27140130E+21   4.25456689E+05   1.02593206E+06   7.78621563E+05   0.25343991      
  96               4.31467909E+02   4.03564929E+02   2205.46424080    5.20060325E-03   1.32537641E+21   3.46350243E+05   1.10504856E+06   6.42882520E+05   0.25217057      
  97               5.10456573E+02   4.21504170E+02   2229.63207882    5.37277229E-03   1.36928708E+21   3.01929531E+05   1.14947887E+06   5.35563128E+05   0.25096563      
  98               6.03905660E+02   4.41878536E+02   2256.24071856    5.56589994E-03   1.41854564E+21   2.88210846E+05   1.16320434E+06   4.17743552E+05   0.25002456      
  99               7.14462436E+02   4.64907588E+02   2284.94338527    5.78224345E-03   1.47372697E+21   2.73335515E+05   1.17808830E+06   2.89374440E+05   0.24899025      
  100              8.45258798E+02   4.90874881E+02   2316.09463099    6.02286331E-03   1.53511300E+21   2.58140364E+05   1.19328304E+06   1.50226324E+05   0.24786507      
  101              1.00000000E+03   5.20116711E+02   2349.38909118    6.29135851E-03   1.60351010E+21   2.49666838E+05   1.20175230E+06   0.00000000E+00   0.2466632       
