# ATMO pressure-temperature profile
# Effective temperature = 1000.0K
# log(g) = 2.5cm/s^2
# M/H = 0.0
# Optical depth grid in band 17 (1.20-1.33microns)
# All parameters in cgs units
#
# Model Level      Optical Depth    Pressure         Temperature      Density          Number Density   Rad Flux         Conv Flux        Radial Extension Adiabatic Gradient
#                                   [Ba]             [K]              [g/cm^3]         [/cm^3]          [ergs/s/cm^2/sr] [ergs/s/cm^2/sr] [cm]             [K/Ba]          
  1                5.00000000E-04   1.00000000E-05   277.02597552     1.02336405E-09   2.61460054E+14   5.66987813E+07   0.00000000E+00   1.35391385E+09   0.29986517      
  2                5.78069831E-04   1.10740604E-04   339.50380806     9.24717441E-09   2.36258846E+15   5.66987813E+07   0.00000000E+00   1.25035555E+09   0.29798043      
  3                6.68329458E-04   2.16174251E-04   362.61991360     1.69004426E-08   4.31795540E+15   5.66987813E+07   0.00000000E+00   1.22368538E+09   0.29966581      
  4                7.72682194E-04   3.32643955E-04   385.30091511     2.44751049E-08   6.25324486E+15   5.66987813E+07   0.00000000E+00   1.20557608E+09   0.29962024      
  5                8.93328530E-04   4.63037063E-04   396.71140429     3.30891747E-08   8.45409081E+15   5.66987813E+07   0.00000000E+00   1.19108672E+09   0.2994661       
  6                1.03281254E-03   6.10071035E-04   413.07209676     4.18695288E-08   1.06974530E+16   5.66987813E+07   0.00000000E+00   1.17859490E+09   0.29946468      
  7                1.19407555E-03   7.76226209E-04   422.62518329     5.20722719E-08   1.33032812E+16   5.66987813E+07   0.00000000E+00   1.16734193E+09   0.29935293      
  8                1.38051810E-03   9.64177884E-04   438.98511426     6.22706862E-08   1.59086458E+16   5.66987813E+07   0.00000000E+00   1.15690430E+09   0.29936105      
  9                1.59607173E-03   1.17703176E-03   447.57681800     7.45584514E-08   1.90478708E+16   5.66987813E+07   0.00000000E+00   1.14702580E+09   0.29926411      
  10               1.84528182E-03   1.41914252E-03   459.68945248     8.75261217E-08   2.23607987E+16   5.66987813E+07   0.00000000E+00   1.13754823E+09   0.29927641      
  11               2.13340350E-03   1.69490931E-03   466.74623180     1.02953679E-07   2.63021642E+16   5.66987813E+07   0.00000000E+00   1.12836169E+09   0.29918165      
  12               2.46651240E-03   2.00931606E-03   477.87623561     1.19208986E-07   3.04550040E+16   5.66987813E+07   0.00000000E+00   1.11938706E+09   0.2991952       
  13               2.85163282E-03   2.36791309E-03   484.44768448     1.38578245E-07   3.54033789E+16   5.66987813E+07   0.00000000E+00   1.11056430E+09   0.29909871      
  14               3.29688580E-03   2.77699712E-03   495.41186057     1.58922420E-07   4.06008259E+16   5.66987813E+07   0.00000000E+00   1.10184719E+09   0.29911425      
  15               3.81166043E-03   3.24362442E-03   502.05533639     1.83170328E-07   4.67955777E+16   5.66987813E+07   0.00000000E+00   1.09319851E+09   0.29901136      
  16               4.40681180E-03   3.77581375E-03   513.27697758     2.08561859E-07   5.32825031E+16   5.66987813E+07   0.00000000E+00   1.08458815E+09   0.29902656      
  17               5.09488990E-03   4.38278741E-03   520.10553269     2.38910398E-07   6.10358183E+16   5.66987813E+07   0.00000000E+00   1.07598941E+09   0.29891386      
  18               5.89040429E-03   5.07511222E-03   531.65817869     2.70638288E-07   6.91415308E+16   5.66987813E+07   0.00000000E+00   1.06737951E+09   0.29892797      
  19               6.81013002E-03   5.86466081E-03   538.89907165     3.08540057E-07   7.88245142E+16   5.66987813E+07   0.00000000E+00   1.05873922E+09   0.29880066      
  20               7.87346142E-03   6.76492096E-03   551.01691225     3.48075827E-07   8.89249516E+16   5.66987813E+07   0.00000000E+00   1.05005211E+09   0.29881102      
  21               9.10282102E-03   7.79103540E-03   558.84538116     3.95257011E-07   1.00978602E+17   5.66987813E+07   0.00000000E+00   1.04130390E+09   0.29866296      
  22               1.05241324E-02   8.96012385E-03   571.65761734     4.44379557E-07   1.13528228E+17   5.66987813E+07   0.00000000E+00   1.03248265E+09   0.29866826      
  23               1.21673669E-02   1.02911997E-02   580.30449469     5.02789418E-07   1.28450533E+17   5.66987813E+07   0.00000000E+00   1.02357767E+09   0.29849191      
  24               1.40671754E-02   1.18054553E-02   594.21659609     5.63266604E-07   1.43900997E+17   5.66987813E+07   0.00000000E+00   1.01457961E+09   0.29850022      
  25               1.62636194E-02   1.35263102E-02   604.06342021     6.34852520E-07   1.62189467E+17   5.66987814E+07   0.00000000E+00   1.00547941E+09   0.29831659      
  26               1.88030155E-02   1.54799360E-02   619.25874026     7.08717348E-07   1.81060142E+17   5.66987814E+07   0.00000000E+00   9.96269221E+08   0.29829849      
  27               2.17389119E-02   1.76953525E-02   630.43239286     7.95786843E-07   2.03304287E+17   5.66987814E+07   0.00000000E+00   9.86940535E+08   0.29803985      
  28               2.51332183E-02   2.02063506E-02   647.16041148     8.85221831E-07   2.26152702E+17   5.66987814E+07   0.00000000E+00   9.77479863E+08   0.29799259      
  29               2.90575105E-02   2.30497169E-02   660.07688968     9.90027588E-07   2.52927999E+17   5.66987814E+07   0.00000000E+00   9.67875178E+08   0.29767474      
  30               3.35945403E-02   2.62657882E-02   678.80740206     1.09703576E-06   2.80265543E+17   5.66987814E+07   0.00000000E+00   9.58116483E+08   0.29760751      
  31               3.88399805E-02   2.98978577E-02   693.82858317     1.22170174E-06   3.12114340E+17   5.66987814E+07   0.00000000E+00   9.48195350E+08   0.29719869      
  32               4.49044419E-02   3.39925931E-02   714.74974090     1.34837141E-06   3.44473746E+17   5.66987814E+07   0.00000000E+00   9.38106567E+08   0.29709165      
  33               5.19158062E-02   3.85976726E-02   732.24772004     1.49446241E-06   3.81793850E+17   5.66987813E+07   0.00000000E+00   9.27847912E+08   0.2966045       
  34               6.00219227E-02   4.37618853E-02   755.98846769     1.64120386E-06   4.19282457E+17   5.66987813E+07   0.00000000E+00   9.17420407E+08   0.2964441       
  35               6.93937253E-02   4.95361079E-02   776.60367677     1.80843861E-06   4.62006704E+17   5.66987813E+07   0.00000000E+00   9.06821517E+08   0.29579858      
  36               8.02288381E-02   5.59863366E-02   803.55167264     1.97537097E-06   5.04654419E+17   5.66987813E+07   0.00000000E+00   8.96029592E+08   0.29550348      
  37               9.27557418E-02   6.31781060E-02   827.47973993     2.16465309E-06   5.53012659E+17   5.66987812E+07   0.00000000E+00   8.85031500E+08   0.29467576      
  38               1.07238592E-01   7.11707402E-02   858.54725917     2.35024658E-06   6.00431013E+17   5.66646424E+07   3.42646213E+04   8.73825792E+08   0.29430667      
  39               1.23982789E-01   8.00101031E-02   887.04849450     2.55723767E-06   6.53316018E+17   5.64995179E+07   1.99234211E+05   8.62423841E+08   0.29337065      
  40               1.43341420E-01   8.97571015E-02   919.02627665     2.76893895E-06   7.07402728E+17   5.62415768E+07   4.57159679E+05   8.50840614E+08   0.29288628      
  41               1.65722701E-01   1.00480205E-01   948.25834242     3.00409365E-06   7.67502288E+17   5.59198919E+07   7.78826418E+05   8.39083324E+08   0.29169242      
  42               1.91598587E-01   1.12291155E-01   981.08334627     3.24477071E-06   8.29020907E+17   5.55512655E+07   1.14743818E+06   8.27120429E+08   0.29100222      
  43               2.21514726E-01   1.25298533E-01   1011.17739231    3.51277807E-06   8.97520702E+17   5.51398723E+07   1.55882327E+06   8.14936913E+08   0.28964402      
  44               2.56101960E-01   1.39605555E-01   1044.95558949    3.78726024E-06   9.67677641E+17   5.46743702E+07   2.02432376E+06   8.02532919E+08   0.28894361      
  45               2.96089634E-01   1.55308044E-01   1075.90787258    4.09195691E-06   1.04554976E+18   5.41422509E+07   2.55644769E+06   7.89919275E+08   0.28755584      
  46               3.42320969E-01   1.72499145E-01   1110.51460743    4.40319559E-06   1.12509323E+18   5.35367392E+07   3.16196808E+06   7.77112071E+08   0.28687757      
  47               3.95770849E-01   1.91272251E-01   1142.16870710    4.74703832E-06   1.21296300E+18   5.28644580E+07   3.83425900E+06   7.64127103E+08   0.28541004      
  48               4.57566375E-01   2.11791693E-01   1177.51253734    5.09848311E-06   1.30277442E+18   5.21516173E+07   4.54711005E+06   7.50937438E+08   0.28465118      
  49               5.29010634E-01   2.34238693E-01   1210.00319755    5.48741299E-06   1.40216124E+18   5.13963133E+07   5.30242918E+06   7.37517390E+08   0.28289687      
  50               6.11610175E-01   2.58792186E-01   1246.21977059    5.88640851E-06   1.50411957E+18   5.06033320E+07   6.09543220E+06   7.23855703E+08   0.28203869      
  51               7.07106781E-01   2.85621801E-01   1279.62998743    6.32702960E-06   1.61671245E+18   4.97502576E+07   6.94853335E+06   7.09953316E+08   0.28003105      
  52               8.17514195E-01   3.14900155E-01   1316.63223974    6.77954685E-06   1.73234437E+18   4.88577057E+07   7.84111207E+06   6.95816665E+08   0.27916196      
  53               9.45160584E-01   3.46791706E-01   1350.87918750    7.27687611E-06   1.85942228E+18   4.79119864E+07   8.78685790E+06   6.81458363E+08   0.27764675      
  54               1.09273764E+00   3.81466051E-01   1388.64984591    7.78680175E-06   1.98970633E+18   4.69467554E+07   9.75210991E+06   6.66891802E+08   0.2769341       
  55               1.26335732E+00   4.19174672E-01   1423.70624899    8.34596618E-06   2.13255618E+18   4.59532510E+07   1.07456359E+07   6.52099899E+08   0.27501688      
  56               1.46061751E+00   4.60173805E-01   1462.18418963    8.92152243E-06   2.27953177E+18   4.49461326E+07   1.17527645E+07   6.37074687E+08   0.27410762      
  57               1.68867783E+00   5.04641767E-01   1498.01064052    9.55268563E-06   2.44002420E+18   4.38044199E+07   1.28944540E+07   6.21841378E+08   0.27203206      
  58               1.95234742E+00   5.52562795E-01   1536.81728307    1.01958054E-05   2.60426541E+18   4.24666621E+07   1.42320763E+07   6.06486248E+08   0.27124024      
  59               2.25718628E+00   6.03646347E-01   1572.61220809    1.08856856E-05   2.78026872E+18   4.07629748E+07   1.59358364E+07   5.91152565E+08   0.26931572      
  60               2.60962258E+00   6.56998594E-01   1610.18001934    1.15729824E-05   2.95539712E+18   3.86444039E+07   1.80544840E+07   5.76120860E+08   0.26861407      
  61               3.01708817E+00   7.11402526E-01   1643.56455883    1.22810283E-05   3.13512221E+18   3.60648149E+07   2.06339017E+07   5.61689612E+08   0.26729754      
  62               3.48817529E+00   7.64665475E-01   1676.85352866    1.29474731E-05   3.30295147E+18   3.31272527E+07   2.35720612E+07   5.48331586E+08   0.26668303      
  63               4.03281780E+00   8.12923796E-01   1703.10111198    1.35559027E-05   3.45728549E+18   3.03515246E+07   2.63505899E+07   5.36812135E+08   0.26540286      
  64               4.66250061E+00   8.55328210E-01   1727.47998140    1.40614956E-05   3.58629171E+18   2.82059729E+07   2.84952559E+07   5.27099628E+08   0.26495416      
  65               5.39050188E+00   9.01767730E-01   1750.56442661    1.46286324E-05   3.73114761E+18   2.60479479E+07   3.06592068E+07   5.16860328E+08   0.26413169      
  66               6.23217301E+00   9.38241121E-01   1770.22646056    1.50648406E-05   3.83894133E+18   2.39266351E+07   3.28280631E+07   5.09089781E+08   0.26356093      
  67               7.20526240E+00   9.64289755E-01   1781.77550557    1.53822941E-05   3.91994892E+18   2.24423997E+07   3.44014796E+07   5.03678595E+08   0.26257395      
  68               8.33028963E+00   9.92606840E-01   1796.60957275    1.57026440E-05   4.00174484E+18   2.11869439E+07   3.56728132E+07   4.97916877E+08   0.26184548      
  69               9.63097823E+00   1.02348112E+00   1809.79424570    1.60727162E-05   4.09615585E+18   1.99665754E+07   3.68009827E+07   4.91771252E+08   0.26064771      
  70               1.11347559E+01   1.05748321E+00   1826.51108268    1.64541871E-05   4.19350348E+18   1.88597935E+07   3.78463420E+07   4.85159403E+08   0.25975896      
  71               1.28733329E+01   1.09504200E+00   1841.85421638    1.68961404E-05   4.30627106E+18   1.77203353E+07   3.89848777E+07   4.78036126E+08   0.25840714      
  72               1.48833708E+01   1.13633746E+00   1860.78134201    1.73542459E-05   4.42321267E+18   1.66507009E+07   4.00541284E+07   4.70409965E+08   0.25737894      
  73               1.72072553E+01   1.18149585E+00   1878.24046040    1.78754268E-05   4.55624268E+18   1.55930800E+07   4.11103965E+07   4.62302079E+08   0.25578245      
  74               1.98939903E+01   1.23101127E+00   1899.27185149    1.84172574E-05   4.69462316E+18   1.47496710E+07   4.19484872E+07   4.53672290E+08   0.25449677      
  75               2.30002312E+01   1.28556815E+00   1919.03987001    1.90342418E-05   4.85218049E+18   1.39475068E+07   4.27428062E+07   4.44457836E+08   0.25260959      
  76               2.65914795E+01   1.34560532E+00   1942.46948418    1.96813288E-05   5.01752251E+18   1.32340273E+07   4.34514954E+07   4.34648814E+08   0.25111832      
  77               3.07434641E+01   1.41157392E+00   1964.64402308    2.04115521E-05   5.20409953E+18   1.24708060E+07   4.42128228E+07   4.24240688E+08   0.24890734      
  78               3.55437382E+01   1.48394778E+00   1990.37710196    2.11784486E-05   5.40019063E+18   1.17780098E+07   4.49038537E+07   4.13232968E+08   0.24707984      
  79               4.10935254E+01   1.56323115E+00   2014.82223839    2.20368829E-05   5.61968928E+18   1.10278693E+07   4.56524427E+07   4.01627554E+08   0.24443075      
  80               4.75098546E+01   1.64997980E+00   2042.66078999    2.29395723E-05   5.85070519E+18   1.03607089E+07   4.63181903E+07   3.89426538E+08   0.24230538      
  81               5.49280272E+01   1.74478691E+00   2069.19657363    2.39430845E-05   6.10754230E+18   9.64852908E+06   4.70291702E+07   3.76633929E+08   0.23930486      
  82               6.35044707E+01   1.84831303E+00   2098.91873196    2.49999404E-05   6.37831174E+18   9.02860159E+06   4.76480581E+07   3.63252833E+08   0.23689005      
  83               7.34200373E+01   1.96126610E+00   2127.33912803    2.61682468E-05   6.67768046E+18   8.36744064E+06   4.83084354E+07   3.49287784E+08   0.23357524      
  84               8.48838171E+01   2.08443685E+00   2158.70678304    2.74009127E-05   6.99392428E+18   7.79594317E+06   4.88792485E+07   3.34741923E+08   0.2309465       
  85               9.81375475E+01   2.21867374E+00   2188.80857061    2.87571259E-05   7.34195135E+18   7.18509085E+06   4.94896038E+07   3.19619610E+08   0.22731804      
  86               1.13460711E+02   2.36492756E+00   2221.56751215    3.01914239E-05   7.71052884E+18   6.65510614E+06   5.00191852E+07   3.03923402E+08   0.22436166      
  87               1.31176428E+02   2.52421036E+00   2253.10477316    3.17635031E-05   8.11465381E+18   6.07988401E+06   5.05944005E+07   2.87657996E+08   0.22030727      
  88               1.51658271E+02   2.69751939E+00   2286.92246724    3.34324499E-05   8.54356198E+18   5.57555580E+06   5.10987190E+07   2.70839471E+08   0.21706959      
  89               1.75338142E+02   2.88609286E+00   2319.60233517    3.52512818E-05   9.01202946E+18   5.06692672E+06   5.16071817E+07   2.53469005E+08   0.21287261      
  90               2.02715380E+02   3.09147721E+00   2354.26717045    3.71859610E-05   9.51121815E+18   4.64131327E+06   5.20326965E+07   2.35530205E+08   0.2095609       
  91               2.34367291E+02   3.31518866E+00   2387.97912862    3.92939929E-05   1.00554975E+19   4.20751186E+06   5.24667921E+07   2.17023099E+08   0.20529569      
  92               2.70961321E+02   3.55891709E+00   2423.32535058    4.15432350E-05   1.06373141E+19   3.83500280E+06   5.28396406E+07   1.97946699E+08   0.20187181      
  93               3.13269130E+02   3.82450380E+00   2457.88616714    4.39885868E-05   1.12703959E+19   3.46473373E+06   5.32104040E+07   1.78300002E+08   0.19771029      
  94               3.62182865E+02   4.11403654E+00   2493.78641082    4.66049534E-05   1.19490872E+19   3.14200458E+06   5.35336052E+07   1.58078402E+08   0.19430302      
  95               4.18733975E+02   4.42981926E+00   2529.07640201    4.94456399E-05   1.26867358E+19   2.82846757E+06   5.38477399E+07   1.37276063E+08   0.19024272      
  96               4.84114957E+02   4.77439403E+00   2565.42853212    5.24935724E-05   1.34798226E+19   2.55885044E+06   5.41179659E+07   1.15888037E+08   0.18679785      
  97               5.59704502E+02   5.15053945E+00   2601.31152596    5.57999867E-05   1.43412231E+19   2.30548207E+06   5.43720161E+07   9.39099479E+07   0.18304413      
  98               6.47096573E+02   5.56134227E+00   2638.09223134    5.93541835E-05   1.52691721E+19   2.08388766E+06   5.45942797E+07   7.13366305E+07   0.17968949      
  99               7.48134013E+02   6.01018435E+00   2674.47837480    6.32090705E-05   1.62770067E+19   1.87724465E+06   5.48016252E+07   4.81635996E+07   0.17617599      
  100              8.64947405E+02   6.50080741E+00   2711.65036704    6.73588363E-05   1.73643866E+19   1.69322286E+06   5.49863724E+07   2.43861103E+07   0.17281422      
  101              1.00000000E+03   7.03732594E+00   2748.40915594    7.18620679E-05   1.85460796E+19   1.59132990E+06   5.50883061E+07   0.00000000E+00   0.16977712      
