# ATMO pressure-temperature profile
# Effective temperature = 1800.0K
# log(g) = 5.0cm/s^2
# M/H = 0.0
# Optical depth grid in band 17 (1.20-1.33microns)
# All parameters in cgs units
#
# Model Level      Optical Depth    Pressure         Temperature      Density          Number Density   Rad Flux         Conv Flux        Radial Extension Adiabatic Gradient
#                                   [Ba]             [K]              [g/cm^3]         [/cm^3]          [ergs/s/cm^2/sr] [ergs/s/cm^2/sr] [cm]             [K/Ba]          
  1                1.00000000E-07   1.00000000E-05   483.99925161     5.85697411E-10   1.49651526E+14   5.95203354E+08   0.00000000E+00   7.93551009E+06   0.29800689      
  2                1.25892541E-07   1.76945420E-05   514.67490916     9.74594978E-10   2.49018819E+14   5.95203354E+08   0.00000000E+00   7.83366641E+06   0.29796305      
  3                1.58489319E-07   2.70524071E-05   530.52187300     1.44550756E-09   3.69341799E+14   5.95203354E+08   0.00000000E+00   7.75482498E+06   0.29785533      
  4                1.99526231E-07   3.86013379E-05   542.62597458     2.01659827E-09   5.15261410E+14   5.95203354E+08   0.00000000E+00   7.68718212E+06   0.2978101       
  5                2.51188643E-07   5.28954595E-05   554.86137738     2.70241090E-09   6.90493728E+14   5.95203354E+08   0.00000000E+00   7.62595102E+06   0.29765145      
  6                3.16227766E-07   7.06076880E-05   565.46313981     3.53968796E-09   9.04427023E+14   5.95203354E+08   0.00000000E+00   7.56868262E+06   0.29760214      
  7                3.98107171E-07   9.25697551E-05   576.81026820     4.54939050E-09   1.16241705E+15   5.95203354E+08   0.00000000E+00   7.51395405E+06   0.29739551      
  8                5.01187234E-07   1.19807944E-04   586.98228162     5.78598721E-09   1.47838131E+15   5.95203354E+08   0.00000000E+00   7.46086403E+06   0.2975612       
  9                6.30957344E-07   1.53593525E-04   598.05940995     7.28023042E-09   1.86017764E+15   5.95203354E+08   0.00000000E+00   7.40880811E+06   0.29735221      
  10               7.94328235E-07   1.95496571E-04   608.16318405     9.11245403E-09   2.32833174E+15   5.95203354E+08   0.00000000E+00   7.35736166E+06   0.29730924      
  11               1.00000000E-06   2.47459834E-04   619.24602230     1.13281080E-08   2.89445852E+15   5.95203354E+08   0.00000000E+00   7.30621703E+06   0.29708273      
  12               1.25892541E-06   3.11891160E-04   629.48303572     1.40454644E-08   3.58876380E+15   5.95203354E+08   0.00000000E+00   7.25513705E+06   0.29703539      
  13               1.58489319E-06   3.91802416E-04   640.75047619     1.73338597E-08   4.42898298E+15   5.95203354E+08   0.00000000E+00   7.20392261E+06   0.29678662      
  14               1.99526231E-06   4.90919788E-04   651.26846414     2.13681088E-08   5.45979490E+15   5.95203354E+08   0.00000000E+00   7.15242120E+06   0.29673173      
  15               2.51188643E-06   6.13854364E-04   662.84757267     2.62522208E-08   6.70776003E+15   5.95203354E+08   0.00000000E+00   7.10051635E+06   0.29645631      
  16               3.16227766E-06   7.66305141E-04   673.67622487     3.22452002E-08   8.23903520E+15   5.95203354E+08   0.00000000E+00   7.04811839E+06   0.29639367      
  17               3.98107171E-06   9.55320141E-04   685.54037831     3.95029015E-08   1.00934988E+16   5.95203354E+08   0.00000000E+00   6.99515823E+06   0.2960906       
  18               5.01187234E-06   1.18959728E-03   696.63588528     4.84066142E-08   1.23685833E+16   5.95203354E+08   0.00000000E+00   6.94158312E+06   0.29601798      
  19               6.30957344E-06   1.47986753E-03   708.77976978     5.91861911E-08   1.51229797E+16   5.95203354E+08   0.00000000E+00   6.88735308E+06   0.29568317      
  20               7.94328235E-06   1.83934582E-03   720.18373682     7.23979126E-08   1.84989006E+16   5.95203354E+08   0.00000000E+00   6.83243701E+06   0.29559977      
  21               1.00000000E-05   2.28430160E-03   732.65206738     8.83811637E-08   2.25829932E+16   5.95203354E+08   0.00000000E+00   6.77681150E+06   0.295234        
  22               1.25892541E-05   2.83473652E-03   744.35142217     1.07953235E-07   2.75842078E+16   5.95203354E+08   0.00000000E+00   6.72045963E+06   0.29514025      
  23               1.58489319E-05   3.51526703E-03   757.07437911     1.31619074E-07   3.36314515E+16   5.95203354E+08   0.00000000E+00   6.66336828E+06   0.29474193      
  24               1.99526231E-05   4.35654446E-03   768.92896569     1.60602375E-07   4.10375825E+16   5.95203354E+08   0.00000000E+00   6.60550489E+06   0.29463891      
  25               2.51188643E-05   5.39688316E-03   781.73856324     1.95693519E-07   5.00042962E+16   5.95203354E+08   0.00000000E+00   6.54682212E+06   0.29421038      
  26               3.16227766E-05   6.68362096E-03   793.63386569     2.38717198E-07   6.09982619E+16   5.95203354E+08   0.00000000E+00   6.48728882E+06   0.29409953      
  27               3.98107171E-05   8.27512279E-03   806.59525706     2.90811007E-07   7.43095484E+16   5.95203354E+08   0.00000000E+00   6.42688562E+06   0.29363697      
  28               5.01187234E-05   1.02432063E-02   818.67600350     3.54660923E-07   9.06253499E+16   5.95203354E+08   0.00000000E+00   6.36560383E+06   0.29351637      
  29               6.30957344E-05   1.26759728E-02   831.94753647     4.31893329E-07   1.10359875E+17   5.95203354E+08   0.00000000E+00   6.30344459E+06   0.29320398      
  30               7.94328235E-05   1.56813343E-02   844.54367979     5.26319545E-07   1.34488992E+17   5.95203354E+08   0.00000000E+00   6.24040930E+06   0.29309929      
  31               1.00000000E-04   1.93908927E-02   858.47867497     6.40267568E-07   1.63604080E+17   5.95203354E+08   0.00000000E+00   6.17650692E+06   0.29257427      
  32               1.25892541E-04   2.39647676E-02   871.83537859     7.79164792E-07   1.99096934E+17   5.95203354E+08   0.00000000E+00   6.11174960E+06   0.29239382      
  33               1.58489319E-04   2.95968326E-02   886.80845723     9.46047450E-07   2.41735954E+17   5.95203354E+08   0.00000000E+00   6.04615064E+06   0.29182038      
  34               1.99526231E-04   3.65207590E-02   901.48105581     1.14835967E-06   2.93433051E+17   5.95203354E+08   0.00000000E+00   5.97972174E+06   0.29158697      
  35               2.51188643E-04   4.50175498E-02   917.86307825     1.39026353E-06   3.55246488E+17   5.95203354E+08   0.00000000E+00   5.91247560E+06   0.29083108      
  36               3.16227766E-04   5.54247303E-02   934.11521090     1.68187231E-06   4.29762962E+17   5.95203354E+08   0.00000000E+00   5.84441621E+06   0.29054399      
  37               3.98107171E-04   6.81597414E-02   952.44545335     2.02850185E-06   5.18338731E+17   5.95203354E+08   0.00000000E+00   5.77546925E+06   0.2898264       
  38               5.01187234E-04   8.37221139E-02   970.81151930     2.44449349E-06   6.24641888E+17   5.95203354E+08   0.00000000E+00   5.70558268E+06   0.28958038      
  39               6.30957344E-04   1.02702438E-01   991.53056647     2.93599429E-06   7.50240470E+17   5.95203354E+08   0.00000000E+00   5.63473402E+06   0.28874294      
  40               7.94328235E-04   1.25796373E-01   1012.68815896    3.52101793E-06   8.99742481E+17   5.95203355E+08   0.00000000E+00   5.56290727E+06   0.28833328      
  41               1.00000000E-03   1.53812433E-01   1036.65994077    4.20559125E-06   1.07468445E+18   5.95203355E+08   0.00000000E+00   5.49010256E+06   0.28740866      
  42               1.25892541E-03   1.87668360E-01   1061.40655030    5.01159509E-06   1.28066381E+18   5.95203355E+08   0.00000000E+00   5.41635744E+06   0.28698523      
  43               1.58489319E-03   2.28390578E-01   1089.45253435    5.94199261E-06   1.51843327E+18   5.95203355E+08   0.00000000E+00   5.34173363E+06   0.28595946      
  44               1.99526231E-03   2.77128256E-01   1118.71949129    7.02128494E-06   1.79426028E+18   5.95203355E+08   0.00000000E+00   5.26627819E+06   0.28531833      
  45               2.51188643E-03   3.35165766E-01   1151.63081883    8.24895802E-06   2.10800780E+18   5.95203355E+08   0.00000000E+00   5.19001745E+06   0.28396571      
  46               3.16227766E-03   4.04071825E-01   1186.10732695    9.65567877E-06   2.46751852E+18   5.95203355E+08   0.00000000E+00   5.11280869E+06   0.28305744      
  47               3.98107171E-03   4.85590710E-01   1224.65305018    1.12383359E-05   2.87199144E+18   5.95203355E+08   0.00000000E+00   5.03455301E+06   0.28137695      
  48               5.01187234E-03   5.81625398E-01   1265.07600572    1.30307113E-05   3.33006403E+18   5.95203356E+08   0.00000000E+00   4.95519456E+06   0.28017721      
  49               6.30957344E-03   6.94121258E-01   1309.72261722    1.50208652E-05   3.83867954E+18   5.95203356E+08   0.00000000E+00   4.87478548E+06   0.27841145      
  50               7.94328235E-03   8.25002673E-01   1356.18967972    1.72413812E-05   4.40616504E+18   5.95203357E+08   0.00000000E+00   4.79345662E+06   0.27723148      
  51               1.00000000E-02   9.76358232E-01   1406.38993386    1.96761592E-05   5.02839381E+18   5.95203357E+08   0.00000000E+00   4.71128106E+06   0.27520453      
  52               1.25892541E-02   1.15108196E+00   1457.86880116    2.23784985E-05   5.71891503E+18   5.95203358E+08   0.00000000E+00   4.62801493E+06   0.2735779       
  53               1.58489319E-02   1.35188521E+00   1512.70784248    2.53311199E-05   6.47307437E+18   5.95203358E+08   0.00000000E+00   4.54367472E+06   0.27124045      
  54               1.99526231E-02   1.57975552E+00   1568.19254384    2.85624852E-05   7.29652939E+18   5.95203359E+08   0.00000000E+00   4.45895422E+06   0.26951803      
  55               2.51188643E-02   1.83024876E+00   1625.53243552    3.19262635E-05   8.15530714E+18   5.95203440E+08   0.00000000E+00   4.37600195E+06   0.26720154      
  56               3.16227766E-02   2.09100485E+00   1684.15527541    3.52189800E-05   8.99287900E+18   5.93872654E+08   1.33165102E+06   4.29823487E+06   0.26515557      
  57               3.98107171E-02   2.33565661E+00   1734.10664483    3.82393132E-05   9.75571333E+18   5.90735297E+08   4.49146103E+06   4.23156261E+06   0.263441        
  58               5.01187234E-02   2.54815502E+00   1774.20922807    4.07881046E-05   1.04027186E+19   5.86743967E+08   8.61536619E+06   4.17775340E+06   0.26180661      
  59               6.30957344E-02   2.71959530E+00   1804.59972672    4.27989797E-05   1.09156408E+19   5.82583296E+08   1.26838170E+07   4.13672073E+06   0.26034139      
  60               7.94328235E-02   2.91905113E+00   1838.10404804    4.50982130E-05   1.15026379E+19   5.76957773E+08   1.84524858E+07   4.09132127E+06   0.2591213       
  61               1.00000000E-01   3.07482648E+00   1862.93355814    4.69131447E-05   1.19549864E+19   5.71484453E+08   2.53946424E+07   4.05745022E+06   0.25824092      
  62               1.25892541E-01   3.18899916E+00   1880.57538978    4.81975917E-05   1.22825770E+19   5.66836010E+08   2.94908206E+07   4.03343965E+06   0.25737428      
  63               1.58489319E-01   3.32465819E+00   1900.77198483    4.97127070E-05   1.26690141E+19   5.61475158E+08   3.37275345E+07   4.00572544E+06   0.25639046      
  64               1.99526231E-01   3.48605490E+00   1924.01715970    5.14945150E-05   1.31235437E+19   5.55038149E+08   4.01659724E+07   3.97382616E+06   0.25521754      
  65               2.51188643E-01   3.67588753E+00   1950.12601949    5.35694020E-05   1.36529147E+19   5.47325698E+08   4.78736583E+07   3.93768248E+06   0.2538788       
  66               3.16227766E-01   3.89787464E+00   1979.34723979    5.59626485E-05   1.42636843E+19   5.38469345E+08   5.66959030E+07   3.89713903E+06   0.25227112      
  67               3.98107171E-01   4.15841101E+00   2011.76590373    5.87368660E-05   1.49718618E+19   5.28249588E+08   6.68840131E+07   3.85169629E+06   0.250431        
  68               5.01187234E-01   4.46253066E+00   2047.56526273    6.19246638E-05   1.57858983E+19   5.16099950E+08   7.90192334E+07   3.80126987E+06   0.24829939      
  69               6.30957344E-01   4.81569277E+00   2086.43233634    6.55726969E-05   1.67178455E+19   5.01574136E+08   9.35291685E+07   3.74584791E+06   0.24590712      
  70               7.94328235E-01   5.22392603E+00   2128.45461290    6.97164799E-05   1.77769997E+19   4.84246008E+08   1.10840337E+08   3.68546963E+06   0.24314815      
  71               1.00000000E+00   5.69394414E+00   2173.18858882    7.44108063E-05   1.89776147E+19   4.63767728E+08   1.31300867E+08   3.62021208E+06   0.24016836      
  72               1.25892541E+00   6.23325929E+00   2220.71571461    7.96963905E-05   2.03305003E+19   4.39827747E+08   1.55222568E+08   3.55017827E+06   0.23678795      
  73               1.58489319E+00   6.85032952E+00   2270.46409199    8.56414873E-05   2.18535836E+19   4.12224684E+08   1.82809596E+08   3.47548590E+06   0.23300723      
  74               1.99526231E+00   7.55428324E+00   2322.45739921    9.23035429E-05   2.35597863E+19   3.81074724E+08   2.13943853E+08   3.39630703E+06   0.22885391      
  75               2.51188643E+00   8.35605175E+00   2376.10898238    9.97509285E-05   2.54718568E+19   3.47173408E+08   2.47826159E+08   3.31274947E+06   0.22454378      
  76               3.16227766E+00   9.26842499E+00   2431.61171768    1.08059724E-04   2.76081656E+19   3.11337720E+08   2.83645469E+08   3.22487002E+06   0.21998946      
  77               3.98107171E+00   1.03052857E+01   2488.29909431    1.17337800E-04   2.99973780E+19   2.74363014E+08   3.20607907E+08   3.13278787E+06   0.21529238      
  78               5.01187234E+00   1.14827385E+01   2546.41498230    1.27666357E-04   3.26619517E+19   2.37468712E+08   3.57491974E+08   3.03658388E+06   0.21050875      
  79               6.30957344E+00   1.28186295E+01   2605.30842228    1.39178790E-04   3.56375871E+19   2.02360969E+08   3.92592687E+08   2.93636403E+06   0.2055403       
  80               7.94328235E+00   1.43330851E+01   2665.17443714    1.51977644E-04   3.89529075E+19   1.70648156E+08   4.24301349E+08   2.83223102E+06   0.20074395      
  81               1.00000000E+01   1.60486240E+01   2725.55502321    1.66214367E-04   4.26489838E+19   1.43142743E+08   4.51805832E+08   2.72429029E+06   0.19581936      
  82               1.25892541E+01   1.79904927E+01   2786.48963681    1.82025877E-04   4.67639799E+19   1.20164624E+08   4.74785316E+08   2.61264805E+06   0.19113138      
  83               1.58489319E+01   2.01864564E+01   2847.73404508    1.99577992E-04   5.13436218E+19   1.01195061E+08   4.93757652E+08   2.49743217E+06   0.18675892      
  84               1.99526231E+01   2.26668534E+01   2909.38790440    2.19021212E-04   5.64307013E+19   8.54118779E+07   5.09544403E+08   2.37879185E+06   0.18256786      
  85               2.51188643E+01   2.54648171E+01   2971.11858035    2.40550649E-04   6.20792435E+19   7.21204789E+07   5.22839585E+08   2.25689105E+06   0.17866534      
  86               3.16227766E+01   2.86164150E+01   3033.12021827    2.64327961E-04   6.83362969E+19   6.08274509E+07   5.34136465E+08   2.13190338E+06   0.17499148      
  87               3.98107171E+01   3.21581457E+01   3094.98097034    2.90558014E-04   7.52590713E+19   5.12059998E+07   5.43762517E+08   2.00410104E+06   0.17151611      
  88               5.01187234E+01   3.61270769E+01   3156.83859112    3.19383611E-04   8.28907914E+19   4.30975699E+07   5.51876696E+08   1.87381071E+06   0.16838169      
  89               6.30957344E+01   4.05638842E+01   3218.40813826    3.51011660E-04   9.12902204E+19   3.62058441E+07   5.58775640E+08   1.74129580E+06   0.16554939      
  90               7.94328235E+01   4.55136409E+01   3279.89785799    3.85613632E-04   1.00509497E+20   3.03494603E+07   5.64641421E+08   1.60675373E+06   0.16295051      
  91               1.00000000E+02   5.10267490E+01   3341.04408176    4.23449734E-04   1.10622007E+20   2.53804970E+07   5.69622473E+08   1.47031728E+06   0.16066325      
  92               1.25892541E+02   5.71596513E+01   3402.19472569    4.64722378E-04   1.21690379E+20   2.12021518E+07   5.73816086E+08   1.33206278E+06   0.158646        
  93               1.58489319E+02   6.39756480E+01   3463.10214476    5.09755798E-04   1.33805890E+20   1.77186859E+07   5.77318632E+08   1.19201952E+06   0.15685117      
  94               1.99526231E+02   7.15451331E+01   3524.13008791    5.58800406E-04   1.47046267E+20   1.48557199E+07   5.80204939E+08   1.05018970E+06   0.15527929      
  95               2.51188643E+02   7.99474623E+01   3585.05583938    6.12251464E-04   1.61523084E+20   1.24761668E+07   5.82612320E+08   9.06535985E+05   0.15390626      
  96               3.16227766E+02   8.92726292E+01   3646.27351031    6.70426503E-04   1.77335189E+20   1.04901609E+07   5.84630733E+08   7.60981182E+05   0.15266909      
  97               3.98107171E+02   9.96230074E+01   3707.53410710    7.33834686E-04   1.94625765E+20   8.81643536E+06   5.86341237E+08   6.13413328E+05   0.1515939       
  98               5.01187234E+02   1.11114987E+02   3769.29173756    8.02874760E-04   2.13520081E+20   7.40633537E+06   5.87792113E+08   4.63692532E+05   0.15069816      
  99               6.30957344E+02   1.23880567E+02   3831.32102289    8.78177162E-04   2.34196543E+20   6.21476040E+06   5.89027877E+08   3.11660252E+05   0.14993627      
  100              7.94328235E+02   1.38068646E+02   3894.06161516    9.60244994E-04   2.56813640E+20   5.22408708E+06   5.90065254E+08   1.57151924E+05   0.14929694      
  101              1.00000000E+03   1.53847098E+02   3957.27258085    1.04985192E-03   2.81591267E+20   4.76700079E+06   5.90552221E+08   0.00000000E+00   0.14880223      
