# ATMO pressure-temperature profile
# Effective temperature = 200.0K
# log(g) = 4.0cm/s^2
# M/H = 0.0
# Optical depth grid in band 17 (1.20-1.33microns)
# All parameters in cgs units
#
# Model Level      Optical Depth    Pressure         Temperature      Density          Number Density   Rad Flux         Conv Flux        Radial Extension Adiabatic Gradient
#                                   [Ba]             [K]              [g/cm^3]         [/cm^3]          [ergs/s/cm^2/sr] [ergs/s/cm^2/sr] [cm]             [K/Ba]          
  1                5.00000000E-05   1.00000000E-05   22.80893233      1.24313101E-08   3.17556410E+15   9.06714226E+04   0.00000000E+00   1.65607685E+07   0.34574338      
  2                5.91534807E-05   7.03698386E-05   27.80061589      7.17718260E-08   1.83340317E+16   9.06714226E+04   0.00000000E+00   1.63586600E+07   0.34574339      
  3                6.99826855E-05   1.41671762E-04   30.18786828      1.33067718E-07   3.39919978E+16   9.06714226E+04   0.00000000E+00   1.62856995E+07   0.31479387      
  4                8.27943887E-05   2.25886964E-04   32.15073186      1.99215058E-07   5.08892611E+16   9.06714226E+04   0.00000000E+00   1.62339754E+07   0.31480959      
  5                9.79515255E-05   3.25346228E-04   33.52274785      2.75187069E-07   7.02962252E+16   9.06714226E+04   0.00000000E+00   1.61914968E+07   0.31482248      
  6                1.15883473E-04   4.42786180E-04   34.97601331      3.58959631E-07   9.16958312E+16   9.06714226E+04   0.00000000E+00   1.61541306E+07   0.31483379      
  7                1.37098216E-04   5.81441758E-04   36.07368086      4.57022538E-07   1.16745890E+17   9.06714226E+04   0.00000000E+00   1.61198975E+07   0.31484412      
  8                1.62196734E-04   7.45096610E-04   37.38291677      5.65146785E-07   1.44366106E+17   9.06714226E+04   0.00000000E+00   1.60876958E+07   0.31485382      
  9                1.91890027E-04   9.38227438E-04   38.37499135      6.93236940E-07   1.77086591E+17   9.06714226E+04   0.00000000E+00   1.60568405E+07   0.31486308      
  10               2.27019260E-04   1.16608565E-03   39.62541793      8.34407988E-07   2.13148576E+17   9.06714226E+04   0.00000000E+00   1.60268809E+07   0.31487207      
  11               2.68579588E-04   1.43480223E-03   40.59893502      1.00207276E-06   2.55978353E+17   9.06714226E+04   0.00000000E+00   1.59974939E+07   0.31488087      
  12               3.17748350E-04   1.75161858E-03   41.86267598      1.18640895E-06   3.03066824E+17   9.06714226E+04   0.00000000E+00   1.59684376E+07   0.31488956      
  13               3.75918418E-04   2.12503372E-03   42.84928607      1.40619028E-06   3.59209716E+17   9.06714226E+04   0.00000000E+00   1.59395273E+07   0.31489821      
  14               4.44737657E-04   2.56492789E-03   44.17069683      1.64650391E-06   4.20597560E+17   9.06714226E+04   0.00000000E+00   1.59106175E+07   0.31490685      
  15               5.26155608E-04   3.08280244E-03   45.24492739      1.93195789E-06   4.93516455E+17   9.06714226E+04   0.00000000E+00   1.58815810E+07   0.31491555      
  16               6.22478712E-04   3.69227772E-03   46.66716165      2.24339026E-06   5.73071501E+17   9.06714226E+04   0.00000000E+00   1.58523055E+07   0.31492432      
  17               7.36435649E-04   4.40916384E-03   47.83511432      2.61355280E-06   6.67629103E+17   9.06714226E+04   0.00000000E+00   1.58226993E+07   0.3149332       
  18               8.71254639E-04   5.25167805E-03   49.38643810      3.01517308E-06   7.70222550E+17   9.06714226E+04   0.00000000E+00   1.57926866E+07   0.31494222      
  19               1.03075489E-03   6.24082424E-03   50.69623228      3.49050388E-06   8.91645264E+17   9.06714226E+04   0.00000000E+00   1.57621964E+07   0.31495143      
  20               1.21945479E-03   7.40137716E-03   52.39590143      4.00531869E-06   1.02315412E+18   9.06714226E+04   0.00000000E+00   1.57311578E+07   0.31496083      
  21               1.44269991E-03   8.76196457E-03   53.83424887      4.61492548E-06   1.17887749E+18   9.06714226E+04   0.00000000E+00   1.56995113E+07   0.31497047      
  22               1.70681442E-03   1.03554048E-02   55.69618777      5.27185512E-06   1.34668942E+18   9.06714226E+04   0.00000000E+00   1.56672061E+07   0.31498038      
  23               2.01928028E-03   1.22192117E-02   57.32505611      6.04394575E-06   1.54391910E+18   9.06714226E+04   0.00000000E+00   1.56341875E+07   0.3149906       
  24               2.38894914E-03   1.43967715E-02   59.43877087      6.86779224E-06   1.75436975E+18   9.06714226E+04   0.00000000E+00   1.56003887E+07   0.31500116      
  25               2.82629313E-03   1.69384938E-02   61.35282929      7.82820251E-06   1.99970547E+18   9.06714226E+04   0.00000000E+00   1.55657239E+07   0.31501212      
  26               3.34370152E-03   1.99028256E-02   63.85677691      8.83750355E-06   2.25753028E+18   9.06714226E+04   0.00000000E+00   1.55300845E+07   0.31502351      
  27               3.95583167E-03   2.33575557E-02   66.24479414      9.99764005E-06   2.55388583E+18   9.06714226E+04   0.00000000E+00   1.54933308E+07   0.3150354       
  28               4.68002425E-03   2.73806658E-02   69.37123256      1.11914524E-05   2.85884384E+18   9.06714041E+04   0.00000000E+00   1.54552970E+07   0.31504785      
  29               5.53679448E-03   3.20610050E-02   72.90727676      1.24688991E-05   3.18516617E+18   9.06650716E+04   6.35243970E+00   1.54156765E+07   0.31506094      
  30               6.55041330E-03   3.74925406E-02   76.59237051      1.38797364E-05   3.54556294E+18   9.06496223E+04   2.18004085E+01   1.53743890E+07   0.31507475      
  31               7.74959494E-03   4.37879388E-02   80.43126276      1.54365937E-05   3.94326038E+18   9.06242359E+04   4.71867360E+01   1.53313803E+07   0.3150894       
  32               9.16831029E-03   5.10860394E-02   84.43453543      1.71555234E-05   4.38235903E+18   9.05887197E+04   8.27028339E+01   1.52865334E+07   0.31510494      
  33               1.08467493E-02   5.95506972E-02   88.61385388      1.90549180E-05   4.86755722E+18   9.05450466E+04   1.26375929E+02   1.52397164E+07   0.31512152      
  34               1.28324595E-02   6.93739543E-02   92.98180797      2.11553552E-05   5.40411153E+18   9.04966923E+04   1.74730263E+02   1.51907902E+07   0.31513929      
  35               1.51816929E-02   8.07832141E-02   97.55216530      2.34804314E-05   5.99804962E+18   9.04470599E+04   2.24362635E+02   1.51395991E+07   0.31515844      
  36               1.79609996E-02   9.40447389E-02   102.33930335     2.60563692E-05   6.65607012E+18   9.04009848E+04   2.70437783E+02   1.50859844E+07   0.31517919      
  37               2.12491128E-02   1.09467440E-01   107.35671508     2.89119624E-05   7.38552866E+18   9.03657899E+04   3.05632687E+02   1.50297937E+07   0.31520179      
  38               2.51391797E-02   1.27405067E-01   112.61663589     3.20778945E-05   8.19426473E+18   9.03469487E+04   3.24473856E+02   1.49708926E+07   0.31522655      
  39               2.97413996E-02   1.48275188E-01   118.13291531     3.55892463E-05   9.09124585E+18   9.03456728E+04   3.25749771E+02   1.49091247E+07   0.31678803      
  40               3.51861462E-02   1.72570217E-01   123.97914671     3.94672279E-05   1.00819152E+19   9.03585020E+04   3.12920657E+02   1.48443002E+07   0.31974736      
  41               4.16276604E-02   2.00868972E-01   130.17507750     4.37520112E-05   1.11766294E+19   9.03776070E+04   2.93815643E+02   1.47761997E+07   0.32253799      
  42               4.92484201E-02   2.33842627E-01   136.74456901     4.84836055E-05   1.23862384E+19   9.03894577E+04   2.81965001E+02   1.47046067E+07   0.32429435      
  43               5.82643093E-02   2.72264961E-01   143.66808694     5.37345706E-05   1.37264200E+19   9.03679263E+04   3.03496229E+02   1.46293302E+07   0.32593881      
  44               6.89307339E-02   3.17048746E-01   151.00801165     5.95317148E-05   1.52072922E+19   9.02626522E+04   4.08770048E+02   1.45501494E+07   0.32585225      
  45               8.15498567E-02   3.69273599E-01   158.66787278     6.59905277E-05   1.68571868E+19   9.00224242E+04   6.48997676E+02   1.44668269E+07   0.32523232      
  46               9.64791575E-02   4.30216882E-01   166.76821262     7.31469988E-05   1.86852974E+19   8.96181404E+04   1.05328078E+03   1.43791093E+07   0.32498664      
  47               1.14141560E-01   5.01373715E-01   175.24740064     8.11208130E-05   2.07221979E+19   8.89950252E+04   1.67639469E+03   1.42867348E+07   0.32452533      
  48               1.35037411E-01   5.84495275E-01   184.20675364     8.99699937E-05   2.29827131E+19   8.79370180E+04   2.73439898E+03   1.41894380E+07   0.32354453      
  49               1.59758657E-01   6.81624488E-01   193.55624169     9.98527210E-05   2.55072620E+19   8.60181265E+04   4.65328518E+03   1.40869622E+07   0.32184146      
  50               1.89005613E-01   7.94773599E-01   203.35710968     1.10816589E-04   2.83080472E+19   8.23441163E+04   8.32728420E+03   1.39793978E+07   0.31989743      
  51               2.23606798E-01   9.26270405E-01   213.50853557     1.23009681E-04   3.14230536E+19   7.60601779E+04   1.46112149E+04   1.38667706E+07   0.3176528       
  52               2.64542408E-01   1.07889034E+00   224.09014727     1.36508379E-04   3.48722831E+19   6.80728165E+04   2.25985857E+04   1.37489932E+07   0.31566703      
  53               3.12972084E-01   1.25611159E+00   235.05803723     1.51503898E-04   3.87060592E+19   6.07628645E+04   2.99085604E+04   1.36257610E+07   0.31346989      
  54               3.70267763E-01   1.46225069E+00   246.49884664     1.68100274E-04   4.29667776E+19   5.56014608E+04   3.50699826E+04   1.34965902E+07   0.31158694      
  55               4.38052539E-01   1.70218328E+00   258.40320671     1.86781497E-04   4.77127294E+19   5.23207435E+04   3.83507094E+04   1.33611842E+07   0.30966134      
  56               5.18246648E-01   1.98155193E+00   270.82281618     2.07465392E-04   5.29963607E+19   5.01803856E+04   4.04910701E+04   1.32192660E+07   0.30809386      
  57               6.13121862E-01   2.30670660E+00   283.76714409     2.30491918E-04   5.88784120E+19   4.85365187E+04   4.21349391E+04   1.30705734E+07   0.30651231      
  58               7.25365844E-01   2.68432374E+00   297.23004494     2.56075269E-04   6.54135961E+19   4.72893918E+04   4.33820718E+04   1.29151416E+07   0.30524764      
  59               8.58158289E-01   3.12205188E+00   311.23349377     2.84432514E-04   7.26573623E+19   4.66332136E+04   4.40382578E+04   1.27529490E+07   0.30404173      
  60               1.01526100E+00   3.62827449E+00   325.74765028     3.15823394E-04   8.06760605E+19   4.67305787E+04   4.39409017E+04   1.25840489E+07   0.30315334      
  61               1.20112443E+00   4.21311252E+00   340.83621854     3.50495763E-04   8.95330047E+19   4.75848803E+04   4.30866110E+04   1.24082679E+07   0.30235194      
  62               1.42101382E+00   4.88825282E+00   356.46909635     3.88827730E-04   9.93247805E+19   4.89553831E+04   4.17161202E+04   1.22253846E+07   0.30176007      
  63               1.68115827E+00   5.66650666E+00   372.72287328     4.31076958E-04   1.10117210E+20   5.03898935E+04   4.02816281E+04   1.20352920E+07   0.30122546      
  64               1.98892727E+00   6.56114705E+00   389.51699978     4.77616040E-04   1.22005440E+20   5.13698112E+04   3.93017326E+04   1.18381261E+07   0.30087657      
  65               2.35303941E+00   7.58570724E+00   406.91278718     5.28591638E-04   1.35026988E+20   5.14312361E+04   3.92403440E+04   1.16342164E+07   0.30059028      
  66               2.78380943E+00   8.75692683E+00   424.82693643     5.84474036E-04   1.49301962E+20   5.03853068E+04   4.02863253E+04   1.14235014E+07   0.30033901      
  67               3.29344035E+00   1.00919687E+01   443.34044111     6.45451939E-04   1.64878635E+20   4.84447711E+04   4.22269307E+04   1.12061410E+07   0.30015686      
  68               3.89636920E+00   1.16075431E+01   462.32550336     7.11905368E-04   1.81852088E+20   4.60439703E+04   4.46278164E+04   1.09825596E+07   0.29994442      
  69               4.60967600E+00   1.33199491E+01   481.82428150     7.83869375E-04   2.00234876E+20   4.34015585E+04   4.72703254E+04   1.07533283E+07   0.29981171      
  70               5.45356761E+00   1.52461607E+01   501.70870854     8.61665594E-04   2.20107426E+20   3.98904673E+04   5.07815251E+04   1.05189525E+07   0.29966129      
  71               6.45195012E+00   1.74142932E+01   522.11992544     9.45732637E-04   2.41580250E+20   3.53972538E+04   5.52748586E+04   1.02787746E+07   0.29953969      
  72               7.63310614E+00   1.98563928E+01   543.02622819     1.03684142E-03   2.64853300E+20   3.23453717E+04   5.83268685E+04   1.00321576E+07   0.29935551      
  73               9.03049593E+00   2.26026456E+01   564.51219262     1.13531749E-03   2.90009209E+20   3.09391181E+04   5.97332537E+04   9.77903807E+06   0.29919886      
  74               1.06837053E+01   2.56805316E+01   586.46545162     1.24173033E-03   3.17166578E+20   2.95300577E+04   6.11424449E+04   9.51980609E+06   0.29898592      
  75               1.26395671E+01   2.91147984E+01   608.90311518     1.35591137E-03   3.46331051E+20   2.81280296E+04   6.25445946E+04   9.25513608E+06   0.29880991      
  76               1.49534878E+01   3.29377679E+01   631.74361312     1.47849212E-03   3.77641004E+20   2.68358603E+04   6.38368789E+04   8.98512867E+06   0.29853328      
  77               1.76910170E+01   3.72015505E+01   655.12814762     1.61027662E-03   4.11301811E+20   2.57288737E+04   6.49439785E+04   8.70879405E+06   0.29826756      
  78               2.09297047E+01   4.19543556E+01   679.02175898     1.75210070E-03   4.47526960E+20   2.46893261E+04   6.59836227E+04   8.42583718E+06   0.29783268      
  79               2.47612977E+01   4.72399494E+01   703.43817052     1.90436060E-03   4.86417658E+20   2.36299331E+04   6.70430838E+04   8.13647641E+06   0.29744524      
  80               2.92943389E+01   5.30992903E+01   728.30923899     2.06746701E-03   5.28078805E+20   2.24688360E+04   6.82042127E+04   7.84118223E+06   0.29688544      
  81               3.46572422E+01   5.95731606E+01   753.58898472     2.24172213E-03   5.72587601E+20   2.12277125E+04   6.94453357E+04   7.54046812E+06   0.29642253      
  82               4.10019301E+01   6.67321494E+01   779.35387063     2.42809727E-03   6.20192138E+20   1.99802906E+04   7.06927312E+04   7.23361697E+06   0.29573         
  83               4.85081376E+01   7.46976462E+01   805.73434897     2.62894071E-03   6.71492055E+20   1.88795968E+04   7.17934260E+04   6.91834203E+06   0.29515493      
  84               5.73885036E+01   8.35782905E+01   832.89176851     2.84557872E-03   7.26826500E+20   1.79921428E+04   7.26809794E+04   6.59365213E+06   0.29428224      
  85               6.78945948E+01   9.34653909E+01   860.67357558     3.07948919E-03   7.86571482E+20   1.73873173E+04   7.32858707E+04   6.25965368E+06   0.29357745      
  86               8.03240320E+01   1.04429324E+02   889.17250420     3.33044757E-03   8.50672277E+20   1.70258029E+04   7.36468984E+04   5.91729944E+06   0.29252238      
  87               9.50289215E+01   1.16516139E+02   918.00105782     3.59925152E-03   9.19324307E+20   1.68540820E+04   7.38182639E+04   5.56819522E+06   0.29171119      
  88               1.12425830E+02   1.29764913E+02   947.33711277     3.88438179E-03   9.92152813E+20   1.69088491E+04   7.37633499E+04   5.21386463E+06   0.29051377      
  89               1.33007583E+02   1.44321528E+02   976.88850467     4.18945471E-03   1.07006944E+21   1.72803817E+04   7.33922904E+04   4.85301935E+06   0.28926934      
  90               1.57357229E+02   1.60328941E+02   1007.10624356    4.51448340E-03   1.15308806E+21   1.76289491E+04   7.30436094E+04   4.48494261E+06   0.28806256      
  91               1.86164557E+02   1.77906208E+02   1037.57228506    4.86232939E-03   1.24193418E+21   1.77839675E+04   7.28883573E+04   4.10977515E+06   0.28676984      
  92               2.20245630E+02   1.97155112E+02   1068.62692118    5.23183627E-03   1.33631170E+21   1.77821483E+04   7.28899972E+04   3.72813259E+06   0.28549653      
  93               2.60565913E+02   2.18166075E+02   1099.79628869    5.62533601E-03   1.43681485E+21   1.76330110E+04   7.30390879E+04   3.34083504E+06   0.28412243      
  94               3.08267614E+02   2.41025070E+02   1131.40210568    6.04117422E-03   1.54301829E+21   1.74053379E+04   7.32663370E+04   2.94871197E+06   0.28277815      
  95               3.64702046E+02   2.65857021E+02   1163.03248136    6.48242404E-03   1.65570183E+21   1.72195751E+04   7.34520241E+04   2.55190275E+06   0.28135619      
  96               4.31467909E+02   2.92962885E+02   1195.25902366    6.95086545E-03   1.77531905E+21   1.72340898E+04   7.34374536E+04   2.14809429E+06   0.27998692      
  97               5.10456573E+02   3.22647486E+02   1227.81571835    7.45217640E-03   1.90335999E+21   1.74743675E+04   7.31971060E+04   1.73564530E+06   0.27854007      
  98               6.03905660E+02   3.55184533E+02   1261.12903979    7.98697401E-03   2.03995393E+21   1.77915488E+04   7.28798920E+04   1.31390466E+06   0.27715493      
  99               7.14462436E+02   3.90780673E+02   1294.77351924    8.55907346E-03   2.18607525E+21   1.80510167E+04   7.28291652E+04   8.83379629E+05   0.27570978      
  100              8.45258798E+02   4.29608468E+02   1329.04086835    9.16688391E-03   2.34131764E+21   1.82208932E+04   7.24504751E+04   4.45032140E+05   0.27429553      
  101              1.00000000E+03   4.71815657E+02   1363.45860388    9.81224576E-03   2.50643376E+21   1.82297652E+04   7.24415562E+04   0.00000000E+00   0.27281947      
