# ATMO pressure-temperature profile
# Effective temperature = 550.0K
# log(g) = 4.0cm/s^2
# M/H = 0.0
# Optical depth grid in band 17 (1.20-1.33microns)
# All parameters in cgs units
#
# Model Level      Optical Depth    Pressure         Temperature      Density          Number Density   Rad Flux         Conv Flux        Radial Extension Adiabatic Gradient
#                                   [Ba]             [K]              [g/cm^3]         [/cm^3]          [ergs/s/cm^2/sr] [ergs/s/cm^2/sr] [cm]             [K/Ba]          
  1                5.00000000E-05   1.00000000E-05   87.60101062      3.23409720E-09   8.26830947E+14   5.19197969E+06   0.00000000E+00   3.40921499E+07   0.34574554      
  2                5.91534807E-05   2.48148504E-04   115.39711370     6.09226652E-08   1.55755200E+16   5.19197969E+06   0.00000000E+00   3.23955405E+07   0.31502708      
  3                6.99826855E-05   5.01931934E-04   137.91980518     1.03105139E-07   2.63599166E+16   5.19197969E+06   0.00000000E+00   3.20753314E+07   0.32150672      
  4                8.27943887E-05   7.85072097E-04   151.87865234     1.46444875E-07   3.74402420E+16   5.19197970E+06   0.00000000E+00   3.18449092E+07   0.32551892      
  5                9.79515255E-05   1.10813670E-03   164.11545330     1.91294107E-07   4.89068511E+16   5.19197970E+06   0.00000000E+00   3.16518896E+07   0.3258752       
  6                1.15883473E-04   1.48018930E-03   173.48658496     2.41710043E-07   6.17983960E+16   5.19197970E+06   0.00000000E+00   3.14788656E+07   0.32535007      
  7                1.37098216E-04   1.91065099E-03   183.06489288     2.95652690E-07   7.55965781E+16   5.19197970E+06   0.00000000E+00   3.13178396E+07   0.32502409      
  8                1.62196734E-04   2.40961464E-03   190.89575145     3.57402796E-07   9.14275683E+16   5.19197971E+06   0.00000000E+00   3.11643429E+07   0.32318693      
  9                1.91890027E-04   2.98890596E-03   199.53061665     4.24390418E-07   1.08499702E+17   5.19197971E+06   0.00000000E+00   3.10156003E+07   0.32285088      
  10               2.27019260E-04   3.66220125E-03   206.79058193     5.01737391E-07   1.28273602E+17   5.19197972E+06   0.00000000E+00   3.08696905E+07   0.3205605       
  11               2.68579588E-04   4.44522302E-03   214.91615838     5.85989046E-07   1.49813284E+17   5.19197972E+06   0.00000000E+00   3.07252826E+07   0.32024286      
  12               3.17748350E-04   5.35636424E-03   221.83440637     6.84078929E-07   1.74890829E+17   5.19197972E+06   0.00000000E+00   3.05813736E+07   0.31779874      
  13               3.75918418E-04   6.41671671E-03   229.69924272     7.91440560E-07   2.02338787E+17   5.19197971E+06   0.00000000E+00   3.04372657E+07   0.31745827      
  14               4.44737657E-04   7.65085561E-03   236.35698041     9.17078666E-07   2.34459272E+17   5.19197966E+06   0.00000000E+00   3.02924046E+07   0.31507617      
  15               5.26155608E-04   9.08783140E-03   243.89392254     1.05566057E-06   2.69888962E+17   5.19197956E+06   0.00000000E+00   3.01463605E+07   0.31473282      
  16               6.22478712E-04   1.07611990E-02   250.37455686     1.21768649E-06   3.11312320E+17   5.19197940E+06   0.00000000E+00   2.99987690E+07   0.31255005      
  17               7.36435649E-04   1.27098080E-02   257.90411438     1.39619391E-06   3.56949321E+17   5.19197917E+06   0.00000000E+00   2.98493231E+07   0.31224034      
  18               8.71254639E-04   1.49788113E-02   264.46485587     1.60462813E-06   4.10237372E+17   5.19197884E+06   0.00000000E+00   2.96977315E+07   0.31031224      
  19               1.03075489E-03   1.76207563E-02   272.10786936     1.83462988E-06   4.69039354E+17   5.19197840E+06   0.00000000E+00   2.95437522E+07   0.31004027      
  20               1.21945479E-03   2.06961408E-02   278.89497924     2.10239199E-06   5.37495105E+17   5.19197784E+06   0.00000000E+00   2.93871606E+07   0.30834052      
  21               1.44269991E-03   2.42750010E-02   286.83058205     2.39772196E-06   6.12998826E+17   5.19197710E+06   0.00000000E+00   2.92277606E+07   0.30813509      
  22               1.70681442E-03   2.84390187E-02   293.91926467     2.74126849E-06   7.00829532E+17   5.19197610E+06   0.00000000E+00   2.90653414E+07   0.30673687      
  23               2.01928028E-03   3.32833583E-02   302.15239434     3.12080131E-06   7.97860455E+17   5.19197478E+06   0.00000000E+00   2.88997164E+07   0.30649403      
  24               2.38894914E-03   3.89172505E-02   309.64078066     3.56081175E-06   9.10353016E+17   5.19197305E+06   0.00000000E+00   2.87307109E+07   0.30525738      
  25               2.82629313E-03   4.54662376E-02   318.40091805     4.04557007E-06   1.03428576E+18   5.19197077E+06   0.00000000E+00   2.85581630E+07   0.30500191      
  26               3.34370152E-03   5.30740310E-02   326.52819350     4.60496580E-06   1.17730023E+18   5.19196782E+06   0.00000000E+00   2.83819022E+07   0.30397394      
  27               3.95583167E-03   6.19075340E-02   335.91911454     5.22124192E-06   1.33485664E+18   5.19196399E+06   0.00000000E+00   2.82017528E+07   0.30374992      
  28               4.68002425E-03   7.21586024E-02   344.69437859     5.93087730E-06   1.51628121E+18   5.19195920E+06   0.00000000E+00   2.80175387E+07   0.30294171      
  29               5.53679448E-03   8.40497510E-02   354.82420493     6.71101548E-06   1.71573035E+18   5.19195300E+06   0.00000000E+00   2.78290566E+07   0.30273001      
  30               6.55041330E-03   9.78361359E-02   364.55356719     7.60331496E-06   1.94385461E+18   5.19194501E+06   0.00000000E+00   2.76360577E+07   0.30208568      
  31               7.74959494E-03   1.13808257E-01   375.85126489     8.57872878E-06   2.19322706E+18   5.19193484E+06   0.00000000E+00   2.74382926E+07   0.30190175      
  32               9.16831029E-03   1.32294747E-01   386.92904557     9.68671339E-06   2.47649302E+18   5.19192173E+06   0.00000000E+00   2.72354988E+07   0.3013894       
  33               1.08467493E-02   1.53664198E-01   399.69379222     1.08920678E-05   2.78465328E+18   5.19190528E+06   0.00000000E+00   2.70274573E+07   0.30119504      
  34               1.28324595E-02   1.78323797E-01   412.41412208     1.22502244E-05   3.13185477E+18   5.19188455E+06   0.00000000E+00   2.68139760E+07   0.30076913      
  35               1.51816929E-02   2.06721766E-01   427.04310660     1.37145884E-05   3.50622943E+18   5.19185937E+06   0.00000000E+00   2.65948853E+07   0.30062054      
  36               1.79609996E-02   2.39372164E-01   441.92433678     1.53459577E-05   3.92330043E+18   5.19183363E+06   0.00000000E+00   2.63698244E+07   0.30037165      
  37               2.12491128E-02   2.76844331E-01   459.06469847     1.70855863E-05   4.36804976E+18   5.19180710E+06   0.00000000E+00   2.61384065E+07   0.30028023      
  38               2.51391797E-02   3.19729364E-01   477.23120715     1.89811864E-05   4.85265625E+18   5.19180376E+06   0.00000000E+00   2.59002677E+07   0.30005132      
  39               2.97413996E-02   3.68621245E-01   498.66082902     2.09449725E-05   5.35427837E+18   5.18345067E+06   8.33073842E+03   2.56550540E+07   0.299919        
  40               3.51861462E-02   4.24224866E-01   519.47310356     2.31386362E-05   5.91505647E+18   5.15593383E+06   3.58259829E+04   2.54024767E+07   0.29975189      
  41               4.16276604E-02   4.87452988E-01   542.22693881     2.54715782E-05   6.51144665E+18   5.11101553E+06   8.07369468E+04   2.51420333E+07   0.29969378      
  42               4.92484201E-02   5.59353052E-01   564.35660736     2.80825124E-05   7.17890552E+18   5.05004525E+06   1.41716860E+05   2.48731998E+07   0.2995431       
  43               5.82643093E-02   6.41045319E-01   588.59151583     3.08586827E-05   7.88861162E+18   4.97145454E+06   2.20357763E+05   2.45956926E+07   0.29942158      
  44               6.89307339E-02   7.33724665E-01   612.12502011     3.39621137E-05   8.68198091E+18   4.87784328E+06   3.14073642E+05   2.43094087E+07   0.29921713      
  45               8.15498567E-02   8.38679193E-01   637.87472522     3.72529921E-05   9.52327474E+18   4.77130202E+06   4.20766846E+05   2.40143399E+07   0.29911193      
  46               9.64791575E-02   9.57565471E-01   662.87054535     4.09297942E-05   1.04632257E+19   4.66048215E+06   5.31776002E+05   2.37098791E+07   0.29890496      
  47               1.14141560E-01   1.09225032E+00   690.28488644     4.48324783E-05   1.14609246E+19   4.54933126E+06   6.43083924E+05   2.33954646E+07   0.29871334      
  48               1.35037411E-01   1.24464692E+00   716.87960818     4.91924260E-05   1.25755151E+19   4.44417552E+06   7.48387170E+05   2.30709533E+07   0.29834305      
  49               1.59758657E-01   1.41671965E+00   745.98557066     5.38085550E-05   1.37555934E+19   4.34885403E+06   8.43727204E+05   2.27364986E+07   0.2980733       
  50               1.89005613E-01   1.61052705E+00   774.11919305     5.89465065E-05   1.50690553E+19   4.27058985E+06   9.21982365E+05   2.23923740E+07   0.29763285      
  51               2.23606798E-01   1.82880961E+00   804.88527160     6.43775713E-05   1.64573670E+19   4.21403750E+06   9.78340529E+05   2.20380315E+07   0.29726826      
  52               2.64542408E-01   2.07485997E+00   834.66871255     7.04331382E-05   1.80053057E+19   4.18184687E+06   1.01030235E+06   2.16726314E+07   0.296577        
  53               3.12972084E-01   2.35200425E+00   867.24419033     7.68420284E-05   1.96436660E+19   4.17391227E+06   1.01781113E+06   2.12959120E+07   0.29598536      
  54               3.70267763E-01   2.66349833E+00   898.70735340     8.39723236E-05   2.14664373E+19   4.19143526E+06   9.99967627E+05   2.09081347E+07   0.29506865      
  55               4.38052539E-01   3.01251671E+00   932.95175718     9.14898090E-05   2.33881633E+19   4.23591269E+06   9.55016036E+05   2.05099414E+07   0.29437124      
  56               5.18246648E-01   3.40273006E+00   965.90063871     9.98157513E-05   2.55164871E+19   4.31116207E+06   8.79658168E+05   2.01016066E+07   0.29326682      
  57               6.13121862E-01   3.83884466E+00   1001.68700393    1.08587030E-04   2.77583942E+19   4.42072371E+06   7.69813373E+05   1.96827044E+07   0.29238072      
  58               7.25365844E-01   4.32634942E+00   1036.15878808    1.18307641E-04   3.02427387E+19   4.56757678E+06   6.22968924E+05   1.92525900E+07   0.29102255      
  59               8.58158289E-01   4.87095752E+00   1073.56416725    1.28559064E-04   3.28633759E+19   4.74379449E+06   4.46526965E+05   1.88109927E+07   0.28996259      
  60               1.01526100E+00   5.47858913E+00   1109.58686505    1.39901507E-04   3.57629441E+19   4.93738784E+06   2.53032304E+05   1.83579096E+07   0.28834961      
  61               1.20112443E+00   6.15545919E+00   1148.51778130    1.51857278E-04   3.88193780E+19   5.12743367E+06   6.28409472E+04   1.78935265E+07   0.28717633      
  62               1.42101382E+00   6.90896106E+00   1186.02170862    1.65055696E-04   4.21935383E+19   5.19023200E+06   0.00000000E+00   1.74175875E+07   0.28547862      
  63               1.68115827E+00   7.74962970E+00   1222.35213719    1.79635564E-04   4.59209067E+19   5.18923000E+06   0.00000000E+00   1.69293698E+07   0.28439179      
  64               1.98892727E+00   8.69077096E+00   1256.53185040    1.95970393E-04   5.00968758E+19   5.18907750E+06   0.00000000E+00   1.64277629E+07   0.28278781      
  65               2.35303941E+00   9.74573884E+00   1291.03852781    2.13885159E-04   5.46765881E+19   5.18894979E+06   0.00000000E+00   1.59124705E+07   0.28179211      
  66               2.78380943E+00   1.09278688E+01   1324.46569756    2.33777793E-04   5.97613773E+19   5.18884435E+06   0.00000000E+00   1.53838142E+07   0.28022191      
  67               3.29344035E+00   1.22506141E+01   1359.19281502    2.55384825E-04   6.52833798E+19   5.18875861E+06   0.00000000E+00   1.48424654E+07   0.27923851      
  68               3.89636920E+00   1.37284399E+01   1393.68509607    2.79121912E-04   7.13480931E+19   5.18868058E+06   0.00000000E+00   1.42889509E+07   0.27767121      
  69               4.60967600E+00   1.53821980E+01   1430.23982002    3.04771200E-04   7.78996260E+19   5.18861877E+06   0.00000000E+00   1.37219433E+07   0.2766359       
  70               5.45356761E+00   1.72434044E+01   1467.22752410    3.33055140E-04   8.51238756E+19   5.18856308E+06   0.00000000E+00   1.31377575E+07   0.27495741      
  71               6.45195012E+00   1.93498779E+01   1506.81002175    3.63934994E-04   9.30134104E+19   5.18851576E+06   0.00000000E+00   1.25327112E+07   0.27379935      
  72               7.63310614E+00   2.17393666E+01   1547.31595822    3.98168524E-04   1.01763895E+20   5.18847342E+06   0.00000000E+00   1.19049958E+07   0.27205106      
  73               9.03049593E+00   2.44394345E+01   1590.78819500    4.35380490E-04   1.11276801E+20   5.18843422E+06   0.00000000E+00   1.12564939E+07   0.27079558      
  74               1.06837053E+01   2.74524542E+01   1635.45460723    4.75699120E-04   1.21581787E+20   5.18839716E+06   0.00000000E+00   1.05944191E+07   0.26897608      
  75               1.26395671E+01   3.07376976E+01   1683.21875042    5.17712146E-04   1.32268556E+20   5.18848763E+06   0.00000000E+00   9.93236917E+06   0.26763009      
  76               1.49534878E+01   3.42631508E+01   1732.23478584    5.60755396E-04   1.43267071E+20   5.00038769E+06   2.00936498E+05   9.27805188E+06   0.26574146      
  77               1.76910170E+01   3.79696343E+01   1780.43599420    6.04626455E-04   1.54467063E+20   4.60143236E+06   5.84787974E+05   8.64149542E+06   0.26428803      
  78               2.09297047E+01   4.17745962E+01   1825.39986234    6.48997962E-04   1.65760133E+20   4.12262924E+06   1.06299261E+06   8.03406719E+06   0.26250733      
  79               2.47612977E+01   4.55327813E+01   1867.38997238    6.91826007E-04   1.76609880E+20   3.55067886E+06   1.63402682E+06   7.47318455E+06   0.26125005      
  80               2.92943389E+01   4.89512085E+01   1902.59094651    7.30714512E-04   1.86356194E+20   2.95510050E+06   2.22821158E+06   6.99236715E+06   0.25974031      
  81               3.46572422E+01   5.18987637E+01   1931.95427163    7.62920961E-04   1.94574539E+20   2.61953681E+06   2.56294541E+06   6.59759299E+06   0.25888838      
  82               4.10019301E+01   5.51599882E+01   1962.32804638    7.98290401E-04   2.03600290E+20   2.48541107E+06   2.69713621E+06   6.17970407E+06   0.25750147      
  83               4.85081376E+01   5.87543435E+01   1994.67354024    8.36485937E-04   2.13350660E+20   2.20052442E+06   2.98120580E+06   5.73984692E+06   0.25655211      
  84               5.73885036E+01   6.16968795E+01   2019.52900920    8.67814535E-04   2.21278359E+20   1.79372079E+06   3.38625287E+06   5.39446631E+06   0.25528183      
  85               6.78945948E+01   6.39574019E+01   2038.35210322    8.91287390E-04   2.27267559E+20   1.58167572E+06   3.59743465E+06   5.13743466E+06   0.25480124      
  86               8.03240320E+01   6.65202875E+01   2058.63716755    9.17850888E-04   2.34045420E+20   1.52045695E+06   3.65873579E+06   4.85407735E+06   0.25390339      
  87               9.50289215E+01   6.94140681E+01   2081.16827559    9.47389057E-04   2.41582872E+20   1.46022668E+06   3.71907770E+06   4.54375323E+06   0.25328532      
  88               1.12425830E+02   7.26691669E+01   2105.25641375    9.80443094E-04   2.50017853E+20   1.39172580E+06   3.78773631E+06   4.20600817E+06   0.25221573      
  89               1.33007583E+02   7.63159575E+01   2131.52490119    1.01688903E-03   2.59328821E+20   1.22744844E+06   3.95168004E+06   3.84078098E+06   0.25145006      
  90               1.57357229E+02   7.90208529E+01   2150.08524986    1.04473263E-03   2.66202343E+20   9.99927688E+05   4.17850133E+06   3.57832194E+06   0.25055569      
  91               1.86164557E+02   8.09717113E+01   2163.38698054    1.06392430E-03   2.71097146E+20   8.90341954E+05   4.28792518E+06   3.39328098E+06   0.24993974      
  92               2.20245630E+02   8.32158265E+01   2178.06280162    1.08602207E-03   2.76733269E+20   8.63371265E+05   4.31511316E+06   3.18450981E+06   0.24897607      
  93               2.60565913E+02   8.57894263E+01   2194.74284125    1.11107423E-03   2.83123529E+20   8.36866261E+05   4.34184974E+06   2.95022169E+06   0.24817015      
  94               3.08267614E+02   8.87315775E+01   2213.03093272    1.13965142E-03   2.90413337E+20   8.05275020E+05   4.37370623E+06   2.68876031E+06   0.24687929      
  95               3.64702046E+02   9.20844099E+01   2233.44766679    1.17186574E-03   2.98631880E+20   7.73802256E+05   4.40545379E+06   2.39863403E+06   0.24583939      
  96               4.31467909E+02   9.58930582E+01   2255.66447554    1.20827088E-03   3.07920433E+20   7.37843255E+05   4.44172394E+06   2.07856033E+06   0.24416682      
  97               5.10456573E+02   1.00206178E+02   2280.02062785    1.24907553E-03   3.18332925E+20   7.02057474E+05   4.47782335E+06   1.72747295E+06   0.24285919      
  98               6.03905660E+02   1.05075889E+02   2306.32177209    1.29477258E-03   3.29996258E+20   6.61867397E+05   4.51836694E+06   1.34454905E+06   0.24068527      
  99               7.14462436E+02   1.10558118E+02   2334.61427111    1.34587333E-03   3.43005704E+20   6.21961452E+05   4.55861755E+06   9.29238927E+05   0.23906281      
  100              8.45258798E+02   1.16714216E+02   2364.97272224    1.40248099E-03   3.57456716E+20   5.79537960E+05   4.60142889E+06   4.81159095E+05   0.23628323      
  101              1.00000000E+03   1.23612104E+02   2396.99924972    1.46540905E-03   3.73524367E+20   5.56760006E+05   4.62424122E+06   0.00000000E+00   0.234258        
