# ATMO pressure-temperature profile
# Effective temperature = 1400.0K
# log(g) = 4.5cm/s^2
# M/H = 0.0
# Optical depth grid in band 17 (1.20-1.33microns)
# All parameters in cgs units
#
# Model Level      Optical Depth    Pressure         Temperature      Density          Number Density   Rad Flux         Conv Flux        Radial Extension Adiabatic Gradient
#                                   [Ba]             [K]              [g/cm^3]         [/cm^3]          [ergs/s/cm^2/sr] [ergs/s/cm^2/sr] [cm]             [K/Ba]          
  1                5.00000000E-06   1.00000000E-05   416.62495856     6.80241022E-10   1.73852346E+14   2.17813187E+08   0.00000000E+00   2.05442409E+07   0.29749983      
  2                6.05313423E-06   1.24169992E-04   478.43257073     7.35536046E-09   1.87984376E+15   2.17813186E+08   0.00000000E+00   1.89301846E+07   0.29772431      
  3                7.32808679E-06   2.53323714E-04   504.36529304     1.42343848E-08   3.63794804E+15   2.17813186E+08   0.00000000E+00   1.85310351E+07   0.29784322      
  4                8.87157859E-06   4.04603205E-04   522.19782319     2.19584826E-08   5.61203152E+15   2.17813186E+08   0.00000000E+00   1.82604465E+07   0.29872156      
  5                1.07401712E-05   5.83498277E-04   536.56871048     3.08192667E-08   7.87662326E+15   2.17813186E+08   0.00000000E+00   1.80429832E+07   0.29859267      
  6                1.30023396E-05   7.96041633E-04   548.55498109     4.11266836E-08   1.05109376E+16   2.17813185E+08   0.00000000E+00   1.78541951E+07   0.29853494      
  7                1.57409813E-05   1.04920015E-03   559.62492698     5.31336158E-08   1.35796049E+16   2.17813185E+08   0.00000000E+00   1.76829390E+07   0.29841329      
  8                1.90564546E-05   1.35114507E-03   569.71758362     6.72125600E-08   1.71778259E+16   2.17813184E+08   0.00000000E+00   1.75231607E+07   0.29836281      
  9                2.30702555E-05   1.71154858E-03   579.67629771     8.36780951E-08   2.13859983E+16   2.17813184E+08   0.00000000E+00   1.73711907E+07   0.29823927      
  10               2.79294706E-05   2.14191371E-03   589.05703953     1.03051121E-07   2.63372521E+16   2.17813183E+08   0.00000000E+00   1.72246343E+07   0.29819111      
  11               3.38121669E-05   2.65598128E-03   598.41820525     1.25784858E-07   3.21474147E+16   2.17813182E+08   0.00000000E+00   1.70818502E+07   0.29806493      
  12               4.09339169E-05   3.27016882E-03   607.28224256     1.52611676E-07   3.90036662E+16   2.17813181E+08   0.00000000E+00   1.69416680E+07   0.2980178       
  13               4.95556987E-05   4.00409555E-03   616.24052741     1.84146021E-07   4.70630442E+16   2.17813179E+08   0.00000000E+00   1.68032229E+07   0.29788434      
  14               5.99934592E-05   4.88122019E-03   624.75548839     2.21424979E-07   5.65905818E+16   2.17813177E+08   0.00000000E+00   1.66658608E+07   0.29783637      
  15               7.26296922E-05   5.92984047E-03   633.45717718     2.65298080E-07   6.78034182E+16   2.17813175E+08   0.00000000E+00   1.65290445E+07   0.29769542      
  16               8.79274551E-05   7.18375874E-03   641.91324927     3.17163896E-07   8.10589993E+16   2.17813173E+08   0.00000000E+00   1.63923471E+07   0.29764698      
  17               1.06447338E-04   8.68328042E-03   650.67348003     3.78207038E-07   9.66599486E+16   2.17813170E+08   0.00000000E+00   1.62554336E+07   0.29749033      
  18               1.28868005E-04   1.04764431E-02   659.20151733     4.50406390E-07   1.15112239E+17   2.17813166E+08   0.00000000E+00   1.61180444E+07   0.29743591      
  19               1.56011066E-04   1.26203609E-02   668.13746748     5.35321999E-07   1.36814393E+17   2.17813162E+08   0.00000000E+00   1.59799747E+07   0.29726606      
  20               1.88871184E-04   1.51828558E-02   677.06902386     6.35520548E-07   1.62422564E+17   2.17813157E+08   0.00000000E+00   1.58410464E+07   0.29720311      
  21               2.28652526E-04   1.82441152E-02   686.57173246     7.53092267E-07   1.92469859E+17   2.17813152E+08   0.00000000E+00   1.57011162E+07   0.29701888      
  22               2.76812886E-04   2.18990770E-02   696.01197102     8.91703309E-07   2.27895076E+17   2.17813145E+08   0.00000000E+00   1.55600741E+07   0.29694462      
  23               3.35117111E-04   2.62596776E-02   706.13513807     1.05393449E-06   2.69356467E+17   2.17813138E+08   0.00000000E+00   1.54178316E+07   0.29673996      
  24               4.05701771E-04   3.14575969E-02   716.52295943     1.24424948E-06   3.17995717E+17   2.17813130E+08   0.00000000E+00   1.52742929E+07   0.29664983      
  25               4.91153455E-04   3.76467963E-02   727.71731778     1.46614610E-06   3.74706437E+17   2.17813120E+08   0.00000000E+00   1.51293850E+07   0.29642662      
  26               5.94603558E-04   4.50062771E-02   739.29104384     1.72532825E-06   4.40944048E+17   2.17813109E+08   0.00000000E+00   1.49830585E+07   0.29626338      
  27               7.19843029E-04   5.37429863E-02   751.90181427     2.02569801E-06   5.17709938E+17   2.17813096E+08   0.00000000E+00   1.48352755E+07   0.29601682      
  28               8.71461295E-04   6.40985705E-02   765.16127102     2.37415649E-06   6.06765954E+17   2.17813082E+08   0.00000000E+00   1.46859504E+07   0.29585506      
  29               1.05501444E-03   7.63613821E-02   779.44926222     2.77651386E-06   7.09596998E+17   2.17813066E+08   0.00000000E+00   1.45349127E+07   0.2955348       
  30               1.27722880E-03   9.08649321E-02   794.52988863     3.24115538E-06   8.28346243E+17   2.17813049E+08   0.00000000E+00   1.43820243E+07   0.29537638      
  31               1.54624747E-03   1.07990937E-01   810.89906503     3.77428009E-06   9.64597983E+17   2.17813029E+08   0.00000000E+00   1.42271822E+07   0.29506391      
  32               1.87192870E-03   1.28178733E-01   828.43929947     4.38499165E-06   1.12067871E+18   2.17813009E+08   0.00000000E+00   1.40702589E+07   0.29486834      
  33               2.26620714E-03   1.51922902E-01   847.42545491     5.08083468E-06   1.29851683E+18   2.17812986E+08   0.00000000E+00   1.39111827E+07   0.29442291      
  34               2.74353120E-03   1.79768687E-01   867.83289069     5.87071889E-06   1.50038869E+18   2.17812962E+08   0.00000000E+00   1.37499526E+07   0.2940727       
  35               3.32139252E-03   2.12308164E-01   889.95881037     6.76099525E-06   1.72791601E+18   2.17812934E+08   0.00000000E+00   1.35866249E+07   0.29351313      
  36               4.02096694E-03   2.50192992E-01   913.79842050     7.75961600E-06   1.98312723E+18   2.17812912E+08   0.00000000E+00   1.34212231E+07   0.29315154      
  37               4.86789053E-03   2.94125015E-01   939.50916348     8.87267711E-06   2.26754953E+18   2.17812882E+08   0.00000000E+00   1.32537926E+07   0.29253608      
  38               5.89319895E-03   3.44954257E-01   967.09217204     1.01091236E-05   2.58356552E+18   2.17812863E+08   0.00000000E+00   1.30840740E+07   0.29200731      
  39               7.13446485E-03   4.03602592E-01   996.77848219     1.14754218E-05   2.93279112E+18   2.17812841E+08   0.00000000E+00   1.29118813E+07   0.2911683       
  40               8.63717467E-03   4.71037145E-01   1028.57690043    1.29784878E-05   3.31699051E+18   2.17812837E+08   0.00000000E+00   1.27371437E+07   0.29050185      
  41               1.04563955E-02   5.48296004E-01   1062.41320699    1.46256976E-05   3.73807026E+18   2.17812824E+08   0.00000000E+00   1.25598154E+07   0.28958425      
  42               1.26587931E-02   6.36411200E-01   1098.14511856    1.64233751E-05   4.19762771E+18   2.17812839E+08   0.00000000E+00   1.23800271E+07   0.28880466      
  43               1.53250748E-02   7.36402683E-01   1135.62619699    1.83760546E-05   4.69684036E+18   2.17812838E+08   0.00000000E+00   1.21980127E+07   0.287694        
  44               1.85529469E-02   8.49574985E-01   1174.75052305    2.04936020E-05   5.23819799E+18   2.17812858E+08   0.00000000E+00   1.20135939E+07   0.28668016      
  45               2.24606956E-02   9.77624172E-01   1215.46821683    2.27919165E-05   5.82578112E+18   2.17812872E+08   0.00000000E+00   1.18262337E+07   0.28531742      
  46               2.71915211E-02   1.12231579E+00   1257.70043178    2.52861733E-05   6.46343969E+18   2.17812877E+08   0.00000000E+00   1.16356387E+07   0.28400472      
  47               3.29187854E-02   1.28536853E+00   1301.30510648    2.79890040E-05   7.15441894E+18   2.17812875E+08   0.00000000E+00   1.14418212E+07   0.28230187      
  48               3.98523653E-02   1.46847294E+00   1346.12802233    3.09110714E-05   7.90142503E+18   2.17812858E+08   0.00000000E+00   1.12449654E+07   0.28074581      
  49               4.82463432E-02   1.67335364E+00   1391.99710558    3.40628206E-05   8.70713426E+18   2.17812823E+08   0.00000000E+00   1.10452994E+07   0.27901552      
  50               5.84083183E-02   1.90260273E+00   1438.95523458    3.74655662E-05   9.57693790E+18   2.17812736E+08   0.00000000E+00   1.08423667E+07   0.2775494       
  51               7.07106781E-02   2.15933726E+00   1487.00998772    4.11473852E-05   1.05179823E+19   2.17812601E+08   0.00000000E+00   1.06355911E+07   0.27569489      
  52               8.56042452E-02   2.44548227E+00   1536.24353345    4.51100475E-05   1.15300261E+19   2.17803518E+08   0.00000000E+00   1.04255590E+07   0.27394689      
  53               1.03634797E-01   2.75922723E+00   1587.33795478    4.92725660E-05   1.25905269E+19   2.17162204E+08   6.37948450E+05   1.02151050E+07   0.27197374      
  54               1.25463068E-01   3.09348937E+00   1637.66291396    5.35495972E-05   1.36820116E+19   2.14905653E+08   2.90661651E+06   1.00093207E+07   0.27019109      
  55               1.51888958E-01   3.43028747E+00   1683.50599122    5.77764883E-05   1.47584820E+19   2.11105088E+08   6.75884975E+06   9.81784030E+06   0.26820856      
  56               1.83880850E-01   3.74736436E+00   1724.09429684    6.16659518E-05   1.57431179E+19   2.06078362E+08   1.18609424E+07   9.64984875E+06   0.26632537      
  57               2.22611093E-01   4.02269083E+00   1756.47353269    6.50219478E-05   1.65882620E+19   2.00654376E+08   1.73236500E+07   9.51234539E+06   0.26422782      
  58               2.69498965E-01   4.32164925E+00   1790.29233212    6.85370349E-05   1.74844270E+19   1.94360553E+08   2.35119592E+07   9.37072739E+06   0.2622779       
  59               3.26262682E-01   4.58122720E+00   1817.40714911    7.15923010E-05   1.82580940E+19   1.88097819E+08   2.94253314E+07   9.25353737E+06   0.26045541      
  60               3.94982361E-01   4.79081689E+00   1839.00485338    7.39880120E-05   1.88691587E+19   1.82436426E+08   3.48528288E+07   9.16247139E+06   0.25897608      
  61               4.78176250E-01   5.03085690E+00   1862.01485377    7.67339798E-05   1.95697223E+19   1.76291537E+08   4.10810513E+07   9.06172969E+06   0.25759728      
  62               5.78893005E-01   5.30440956E+00   1887.89054377    7.97926814E-05   2.03510151E+19   1.68974164E+08   4.85480409E+07   8.95117790E+06   0.25672823      
  63               7.00823412E-01   5.51343504E+00   1906.32474395    8.22060167E-05   2.09484173E+19   1.62021516E+08   5.57741582E+07   8.86955409E+06   0.25582989      
  64               8.48435636E-01   5.66770239E+00   1920.16175868    8.38958758E-05   2.13793777E+19   1.56242437E+08   6.17816523E+07   8.81081166E+06   0.25519493      
  65               1.02713896E+00   5.84783463E+00   1935.19024674    8.58885906E-05   2.18875553E+19   1.50597466E+08   6.75216232E+07   8.74370687E+06   0.25435441      
  66               1.24348200E+00   6.05716145E+00   1952.89939476    8.81543284E-05   2.24654498E+19   1.44805422E+08   7.33938886E+07   8.66763301E+06   0.25367631      
  67               1.50539269E+00   6.29950383E+00   1972.06508513    9.07879948E-05   2.31372074E+19   1.38627417E+08   7.96121728E+07   8.58196997E+06   0.25274055      
  68               1.82246880E+00   6.57734187E+00   1993.99632167    9.37466782E-05   2.38919668E+19   1.31981857E+08   8.62515925E+07   8.48673426E+06   0.25193178      
  69               2.20632965E+00   6.89452336E+00   2017.42627746    9.71223822E-05   2.47532606E+19   1.25177838E+08   9.30567594E+07   8.38161786E+06   0.25086742      
  70               2.67104190E+00   7.25760986E+00   2043.84797253    1.00910425E-04   2.57199944E+19   1.18403417E+08   9.98325340E+07   8.26563794E+06   0.24990766      
  71               3.23363503E+00   7.67146727E+00   2071.99364347    1.05209499E-04   2.68173498E+19   1.11429009E+08   1.06759086E+08   8.13862275E+06   0.24857398      
  72               3.91472538E+00   8.14131127E+00   2103.07230747    1.09994812E-04   2.80392243E+19   1.04284284E+08   1.13862600E+08   8.00050779E+06   0.24725835      
  73               4.73927163E+00   8.67272555E+00   2135.81350935    1.15367868E-04   2.94115636E+19   9.69505132E+07   1.21141822E+08   7.85132957E+06   0.24554857      
  74               5.73748947E+00   9.27176546E+00   2171.30896942    1.21306522E-04   3.09290550E+19   8.95639282E+07   1.28464350E+08   7.69119976E+06   0.24387146      
  75               6.94595877E+00   9.94498555E+00   2208.32485810    1.27916229E-04   3.26187290E+19   8.21445367E+07   1.35813400E+08   7.52029533E+06   0.24176484      
  76               8.40896415E+00   1.06995846E+01   2247.82424720    1.35181247E-04   3.44770744E+19   7.48619470E+07   1.43022670E+08   7.33882875E+06   0.23959326      
  77               1.01801177E+01   1.15434429E+01   2288.62169776    1.43214246E-04   3.65331558E+19   6.76771686E+07   1.50116165E+08   7.14704142E+06   0.23693011      
  78               1.23243238E+01   1.24848042E+01   2331.53571114    1.52021041E-04   3.87851525E+19   6.07942574E+07   1.56913674E+08   6.94528545E+06   0.23423419      
  79               1.49201573E+01   1.35332901E+01   2375.49423523    1.61692957E-04   4.12643731E+19   5.43533288E+07   1.63310348E+08   6.73380626E+06   0.23110673      
  80               1.80627429E+01   1.47000649E+01   2421.24118020    1.72257058E-04   4.39751208E+19   4.85351643E+07   1.69089118E+08   6.51272301E+06   0.22795886      
  81               2.18672415E+01   1.59969985E+01   2467.82063988    1.83845057E-04   4.69516383E+19   4.31702004E+07   1.74404519E+08   6.28225723E+06   0.22444423      
  82               2.64730696E+01   1.74374801E+01   2515.85480731    1.96484171E-04   5.02023434E+19   3.83269972E+07   1.79205252E+08   6.04258282E+06   0.22093225      
  83               3.20490087E+01   1.90364632E+01   2564.52061033    2.10321715E-04   5.37657750E+19   3.39290307E+07   1.83567722E+08   5.79384483E+06   0.21712578      
  84               3.87993903E+01   2.08106306E+01   2614.34411861    2.25406988E-04   5.76565071E+19   3.00194568E+07   1.87448747E+08   5.53616914E+06   0.21331801      
  85               4.69715834E+01   2.27784927E+01   2664.60865626    2.41905337E-04   6.19180666E+19   2.64846352E+07   1.90961534E+08   5.26967162E+06   0.20936971      
  86               5.68650599E+01   2.49605744E+01   2715.80112727    2.59885217E-04   6.65705970E+19   2.33296824E+07   1.94099522E+08   4.99446241E+06   0.20540951      
  87               6.88423680E+01   2.73794451E+01   2767.24062363    2.79537006E-04   7.16644145E+19   2.04785702E+07   1.96939088E+08   4.71066531E+06   0.20138035      
  88               8.33424188E+01   3.00598682E+01   2819.40300814    3.00945281E-04   7.72246152E+19   1.79672168E+07   1.99443899E+08   4.41842097E+06   0.19750892      
  89               1.00896570E+02   3.30285549E+01   2871.69392249    3.24316614E-04   8.33061882E+19   1.57506999E+07   2.01659619E+08   4.11792237E+06   0.1937686       
  90               1.22148096E+02   3.63143817E+01   2924.59022099    3.49743168E-04   8.99372224E+19   1.38044834E+07   2.03611533E+08   3.80939601E+06   0.19012508      
  91               1.47875764E+02   3.99485596E+01   2977.45833719    3.77462574E-04   9.71809793E+19   1.20765563E+07   2.05352268E+08   3.49309427E+06   0.1866792       
  92               1.79022369E+02   4.39646736E+01   3030.85418672    4.07565514E-04   1.05066593E+20   1.05435607E+07   2.06905778E+08   3.16929365E+06   0.18332098      
  93               2.16729286E+02   4.83959013E+01   3084.02982563    4.40308752E-04   1.13662146E+20   9.16696675E+06   2.08312066E+08   2.83850239E+06   0.1801193       
  94               2.62378292E+02   5.32755432E+01   3137.56061750    4.75742306E-04   1.22987678E+20   7.95042562E+06   2.09567545E+08   2.50134635E+06   0.17713372      
  95               3.17642204E+02   5.86394031E+01   3190.72142294    5.14137007E-04   1.33114845E+20   6.87668250E+06   2.10687379E+08   2.15837365E+06   0.17442258      
  96               3.84546179E+02   6.45258450E+01   3244.18624346    5.55534303E-04   1.44063434E+20   5.95101595E+06   2.11664368E+08   1.81006392E+06   0.17184972      
  97               4.65541927E+02   7.09758593E+01   3297.15591011    6.00259010E-04   1.55918273E+20   5.15306469E+06   2.12518102E+08   1.45684553E+06   0.16953962      
  98               5.63597555E+02   7.80341735E+01   3350.44150333    6.48335554E-04   1.68697495E+20   4.46963042E+06   2.13262538E+08   1.09904641E+06   0.16745161      
  99               6.82306330E+02   8.57498684E+01   3403.23238854    7.00153214E-04   1.82502029E+20   3.87397644E+06   2.13927587E+08   7.36898586E+05   0.16557542      
  100              8.26018359E+02   9.41771736E+01   3456.39642705    7.55743556E-04   1.97354914E+20   3.35958731E+06   2.14525914E+08   3.70534947E+05   0.16384553      
  101              1.00000000E+03   1.03376245E+02   3509.08771805    8.15585426E-04   2.13379340E+20   3.10538372E+06   2.14833958E+08   0.00000000E+00   0.16233369      
