# ATMO pressure-temperature profile
# Effective temperature = 1600.0K
# log(g) = 2.5cm/s^2
# M/H = 0.0
# Optical depth grid in band 17 (1.20-1.33microns)
# All parameters in cgs units
#
# Model Level      Optical Depth    Pressure         Temperature      Density          Number Density   Rad Flux         Conv Flux        Radial Extension Adiabatic Gradient
#                                   [Ba]             [K]              [g/cm^3]         [/cm^3]          [ergs/s/cm^2/sr] [ergs/s/cm^2/sr] [cm]             [K/Ba]          
  1                1.00000000E-04   1.00000000E-05   447.56370336     6.33466109E-10   1.61834452E+14   3.71582922E+08   0.00000000E+00   2.04143138E+09   0.29800199      
  2                1.17489755E-04   2.62039949E-05   533.24103171     1.39322632E-09   3.55934254E+14   3.71582923E+08   0.00000000E+00   1.98688698E+09   0.29742447      
  3                1.38038426E-04   4.34964852E-05   577.15350237     2.13666317E-09   5.45869298E+14   3.71582923E+08   0.00000000E+00   1.95519285E+09   0.29705192      
  4                1.62181010E-04   6.28881165E-05   599.59279907     2.97357705E-09   7.59692815E+14   3.71582923E+08   0.00000000E+00   1.93086483E+09   0.29651928      
  5                1.90546072E-04   8.49146208E-05   624.97451263     3.85189328E-09   9.84115354E+14   3.71582924E+08   0.00000000E+00   1.91028369E+09   0.29627312      
  6                2.23872114E-04   1.10073100E-04   639.36989468     4.88064604E-09   1.24696669E+15   3.71582925E+08   0.00000000E+00   1.89193483E+09   0.29639774      
  7                2.63026799E-04   1.38943412E-04   659.62221632     5.97139487E-09   1.52569782E+15   3.71582925E+08   0.00000000E+00   1.87502361E+09   0.29627383      
  8                3.09029543E-04   1.72147839E-04   670.97990835     7.27310415E-09   1.85830887E+15   3.71582926E+08   0.00000000E+00   1.85909059E+09   0.29593791      
  9                3.63078055E-04   2.10400190E-04   688.95363355     8.65710967E-09   2.21198396E+15   3.71582926E+08   0.00000000E+00   1.84384614E+09   0.29583087      
  10               4.26579519E-04   2.54499664E-04   698.84233065     1.03233729E-08   2.63775132E+15   3.71582927E+08   0.00000000E+00   1.82909464E+09   0.29548567      
  11               5.01187234E-04   3.05365858E-04   715.81175013     1.20928245E-08   3.08992185E+15   3.71582928E+08   0.00000000E+00   1.81469821E+09   0.29538566      
  12               5.88843655E-04   3.64034344E-04   725.14092640     1.42306237E-08   3.63618341E+15   3.71582929E+08   0.00000000E+00   1.80055562E+09   0.29502252      
  13               6.91830971E-04   4.31695837E-04   741.80483933     1.64963365E-08   4.21515974E+15   3.71582930E+08   0.00000000E+00   1.78659078E+09   0.29492196      
  14               8.12830516E-04   5.09696167E-04   750.99745054     1.92384760E-08   4.91585138E+15   3.71582931E+08   0.00000000E+00   1.77274500E+09   0.29453494      
  15               9.54992586E-04   5.99599566E-04   767.65018485     2.21408547E-08   5.65748994E+15   3.71582932E+08   0.00000000E+00   1.75896993E+09   0.29443089      
  16               1.12201845E-03   7.03260542E-04   776.86238602     2.56606344E-08   6.55689148E+15   3.71582934E+08   0.00000000E+00   1.74521734E+09   0.29401606      
  17               1.31825674E-03   8.22816858E-04   793.72753053     2.93851478E-08   7.50857592E+15   3.71582935E+08   0.00000000E+00   1.73144920E+09   0.29390337      
  18               1.54881662E-03   9.60668335E-04   803.27727948     3.39010652E-08   8.66231221E+15   3.71582937E+08   0.00000000E+00   1.71763768E+09   0.29345503      
  19               1.81970086E-03   1.11960071E-03   820.54721624     3.86778847E-08   9.88292334E+15   3.71582938E+08   0.00000000E+00   1.70375816E+09   0.29333003      
  20               2.13796209E-03   1.30277149E-03   830.52597942     4.44649150E-08   1.13616358E+16   3.71582940E+08   0.00000000E+00   1.68979075E+09   0.29284333      
  21               2.51188643E-03   1.51375484E-03   848.41245939     5.05765584E-08   1.29233274E+16   3.71582942E+08   0.00000000E+00   1.67572169E+09   0.29270086      
  22               2.95120923E-03   1.75654370E-03   859.10754338     5.79577632E-08   1.48093932E+16   3.71582944E+08   0.00000000E+00   1.66154097E+09   0.29217028      
  23               3.46736850E-03   2.03565191E-03   877.87781782     6.57307148E-08   1.67955907E+16   3.71582946E+08   0.00000000E+00   1.64724108E+09   0.29200591      
  24               4.07380278E-03   2.35607236E-03   889.53212107     7.50801987E-08   1.91846036E+16   3.71582949E+08   0.00000000E+00   1.63281749E+09   0.29142418      
  25               4.78630092E-03   2.72339584E-03   909.44027366     8.48856036E-08   2.16901436E+16   3.71582952E+08   0.00000000E+00   1.61826729E+09   0.29122776      
  26               5.62341325E-03   3.14372716E-03   922.31173918     9.66193591E-08   2.46884003E+16   3.71582957E+08   0.00000000E+00   1.60359011E+09   0.29058531      
  27               6.60693448E-03   3.62430812E-03   943.51405506     1.08886253E-07   2.78229117E+16   3.71582962E+08   0.00000000E+00   1.58877353E+09   0.29034677      
  28               7.76247117E-03   4.17356311E-03   957.63072588     1.23539231E-07   3.15671048E+16   3.71582969E+08   0.00000000E+00   1.57379790E+09   0.2896312       
  29               9.12010839E-03   4.80096734E-03   980.20679422     1.38837405E-07   3.54761827E+16   3.71582978E+08   0.00000000E+00   1.55864863E+09   0.28933556      
  30               1.07151931E-02   5.51683824E-03   995.79929792     1.57041202E-07   4.01277005E+16   3.71582988E+08   0.00000000E+00   1.54331748E+09   0.28852846      
  31               1.25892541E-02   6.33254342E-03   1020.11865073    1.75963364E-07   4.49627979E+16   3.71582999E+08   0.00000000E+00   1.52780021E+09   0.28815831      
  32               1.47910839E-02   7.26013840E-03   1037.65760420    1.98328607E-07   5.06776732E+16   3.71583010E+08   0.00000000E+00   1.51209822E+09   0.28724881      
  33               1.73780083E-02   8.31266174E-03   1064.12223654    2.21433230E-07   5.65814965E+16   3.71583023E+08   0.00000000E+00   1.49621576E+09   0.2858551       
  34               2.04173794E-02   9.50347937E-03   1084.03150794    2.48504757E-07   6.34989539E+16   3.71583035E+08   0.00000000E+00   1.48016275E+09   0.28449213      
  35               2.39883292E-02   1.08465621E-02   1113.16175432    2.76202432E-07   7.05764275E+16   3.71583048E+08   0.00000000E+00   1.46395131E+09   0.28380389      
  36               2.81838293E-02   1.23557059E-02   1136.07798756    3.08285309E-07   7.87744274E+16   3.71583060E+08   0.00000000E+00   1.44759669E+09   0.28269912      
  37               3.31131121E-02   1.40491002E-02   1168.39085269    3.40842283E-07   8.70935915E+16   3.71583071E+08   0.00000000E+00   1.43107688E+09   0.28228377      
  38               3.89045145E-02   1.59461563E-02   1194.69183282    3.78349307E-07   9.66776223E+16   3.71583083E+08   0.00000000E+00   1.41437147E+09   0.28157434      
  39               4.57088190E-02   1.80668780E-02   1230.64458641    4.16143543E-07   1.06335017E+17   3.71583094E+08   0.00000000E+00   1.39747034E+09   0.28128007      
  40               5.37031796E-02   2.04291692E-02   1261.26752254    4.59130519E-07   1.17319265E+17   3.71583106E+08   0.00000000E+00   1.38038027E+09   0.28031306      
  41               6.30957344E-02   2.30480786E-02   1302.74162217    5.01500181E-07   1.28145180E+17   3.71583119E+08   0.00000000E+00   1.36312119E+09   0.27825968      
  42               7.41310241E-02   2.59182880E-02   1345.76375509    5.45939360E-07   1.39496504E+17   3.70754873E+08   8.27247760E+05   1.34577481E+09   0.27611757      
  43               8.70963590E-02   2.90497815E-02   1388.72906820    5.93016435E-07   1.51513449E+17   3.69107261E+08   2.47411825E+06   1.32837060E+09   0.27412503      
  44               1.02329299E-01   3.24615936E-02   1431.46732855    6.43058338E-07   1.64253350E+17   3.66697131E+08   4.88334171E+06   1.31089838E+09   0.27200865      
  45               1.20226443E-01   3.61578940E-02   1473.98544217    6.95729833E-07   1.77678866E+17   3.63544018E+08   8.03504742E+06   1.29342270E+09   0.26995353      
  46               1.41253754E-01   4.00836646E-02   1515.41409222    7.50348430E-07   1.91585192E+17   3.59688912E+08   1.18859173E+07   1.27624021E+09   0.26811317      
  47               1.65958691E-01   4.40665623E-02   1554.35907991    8.05188558E-07   2.05344775E+17   3.55367064E+08   1.62041853E+07   1.26003385E+09   0.26650326      
  48               1.94984460E-01   4.78576337E-02   1588.81783879    8.55438070E-07   2.18173980E+17   3.51022685E+08   2.05480142E+07   1.24558879E+09   0.26509732      
  49               2.29086765E-01   5.15712109E-02   1620.62564302    9.04501368E-07   2.30489137E+17   3.46476237E+08   2.50949233E+07   1.23223679E+09   0.26386265      
  50               2.69153480E-01   5.49705201E-02   1648.07680942    9.48027190E-07   2.41589601E+17   3.42029242E+08   2.95409666E+07   1.22062829E+09   0.26236491      
  51               3.16227766E-01   5.87195829E-02   1676.86464732    9.95250139E-07   2.53635940E+17   3.36825449E+08   3.47437583E+07   1.20842304E+09   0.26056112      
  52               3.71535229E-01   6.28403731E-02   1706.65165833    1.04643949E-06   2.66697968E+17   3.30712291E+08   4.08555966E+07   1.19565400E+09   0.25846652      
  53               4.36515832E-01   6.73470429E-02   1737.45920649    1.10151285E-06   2.80756458E+17   3.23561321E+08   4.80051403E+07   1.18237991E+09   0.2561592       
  54               5.12861384E-01   7.22317276E-02   1768.76599570    1.16037938E-06   2.95789982E+17   3.15275845E+08   5.62914082E+07   1.16871700E+09   0.25350178      
  55               6.02559586E-01   7.74164295E-02   1800.06110051    1.22189906E-06   3.11509812E+17   3.06137490E+08   6.54351557E+07   1.15494784E+09   0.25063991      
  56               7.07945784E-01   8.29250253E-02   1831.18050440    1.28640871E-06   3.28004873E+17   2.96857478E+08   7.47229088E+07   1.14105358E+09   0.24758865      
  57               8.31763771E-01   8.89859461E-02   1863.36348969    1.35634131E-06   3.45899297E+17   2.87263457E+08   8.43206529E+07   1.12654360E+09   0.2442416       
  58               9.77237221E-01   9.56501986E-02   1896.31126718    1.43226769E-06   3.65344093E+17   2.76927378E+08   9.46585781E+07   1.11142342E+09   0.24043227      
  59               1.14815362E+00   1.02972293E-01   1930.08819379    1.51451079E-06   3.86428429E+17   2.65718026E+08   1.05866792E+08   1.09570207E+09   0.23627098      
  60               1.34896288E+00   1.11012532E-01   1964.40136669    1.60371768E-06   4.09324387E+17   2.53598918E+08   1.17982611E+08   1.07938763E+09   0.23177539      
  61               1.58489319E+00   1.19837718E-01   1999.32109855    1.70029983E-06   4.34147017E+17   2.40590627E+08   1.30986182E+08   1.06248707E+09   0.22694927      
  62               1.86208714E+00   1.29521979E-01   2034.54436824    1.80504594E-06   4.61107457E+17   2.26770281E+08   1.44801636E+08   1.04500616E+09   0.22171373      
  63               2.18776162E+00   1.40149049E-01   2070.12269046    1.91852747E-06   4.90365502E+17   2.12307578E+08   1.59258755E+08   1.02694730E+09   0.21617496      
  64               2.57039578E+00   1.51813547E-01   2105.78278357    2.04171820E-06   5.22183082E+17   1.97431082E+08   1.74129163E+08   1.00830971E+09   0.21048393      
  65               3.01995172E+00   1.64620045E-01   2141.62918145    2.17530622E-06   5.56755196E+17   1.82369595E+08   1.89184873E+08   9.89093031E+08   0.20489449      
  66               3.54813389E+00   1.78683260E-01   2177.46319637    2.32035835E-06   5.94372742E+17   1.67279026E+08   2.04269415E+08   9.69298120E+08   0.1992182       
  67               4.16869383E+00   1.94129504E-01   2213.32565499    2.47777416E-06   6.35290069E+17   1.52338154E+08   2.19203881E+08   9.48926681E+08   0.19359073      
  68               4.89778819E+00   2.11097280E-01   2249.05827645    2.64876926E-06   6.79841651E+17   1.37710861E+08   2.33824553E+08   9.27981713E+08   0.18804044      
  69               5.75439937E+00   2.29738063E-01   2284.71347684    2.83439660E-06   7.28328075E+17   1.23552290E+08   2.47977284E+08   9.06467775E+08   0.18262029      
  70               6.76082975E+00   2.50216337E-01   2320.14743943    3.03604110E-06   7.81134676E+17   1.09942374E+08   2.61582369E+08   8.84391910E+08   0.1770742       
  71               7.94328235E+00   2.72706365E-01   2355.30452061    3.25523090E-06   8.38637056E+17   9.71070011E+07   2.74413797E+08   8.61768085E+08   0.1718196       
  72               9.33254301E+00   2.97405562E-01   2390.21085515    3.49301191E-06   9.01236375E+17   8.52457255E+07   2.86271610E+08   8.38604757E+08   0.16693903      
  73               1.09647820E+01   3.24533237E-01   2424.87009867    3.75114098E-06   9.69385552E+17   7.44770516E+07   2.97037509E+08   8.14905207E+08   0.16245085      
  74               1.28824955E+01   3.54321158E-01   2459.32281956    4.03117351E-06   1.04353588E+18   6.47631013E+07   3.06749769E+08   7.90680852E+08   0.15814505      
  75               1.51356125E+01   3.87005195E-01   2493.46658368    4.33487701E-06   1.12418835E+18   5.60891911E+07   3.15422840E+08   7.65955581E+08   0.15407963      
  76               1.77827941E+01   4.22842510E-01   2527.36600160    4.66384306E-06   1.21181505E+18   4.85489005E+07   3.22962466E+08   7.40750697E+08   0.15036531      
  77               2.08929613E+01   4.62130400E-01   2560.99938645    5.02016234E-06   1.30701600E+18   4.21214965E+07   3.29389793E+08   7.15074101E+08   0.14696489      
  78               2.45470892E+01   5.05184817E-01   2594.43929345    5.40577370E-06   1.41036855E+18   3.66321915E+07   3.34879934E+08   6.88938077E+08   0.14376749      
  79               2.88403150E+01   5.52341681E-01   2627.61094481    5.82305504E-06   1.52255362E+18   3.19176585E+07   3.39595923E+08   6.62358376E+08   0.14076701      
  80               3.38844156E+01   6.03957722E-01   2660.58612747    6.27409137E-06   1.64420156E+18   2.78620473E+07   3.43653503E+08   6.35353430E+08   0.13803132      
  81               3.98107171E+01   6.60410195E-01   2693.32230068    6.76135341E-06   1.77603403E+18   2.43539558E+07   3.47163302E+08   6.07943994E+08   0.13556281      
  82               4.67735141E+01   7.22097579E-01   2725.89802991    7.28700675E-06   1.91872230E+18   2.13009891E+07   3.50219051E+08   5.80152350E+08   0.1332607       
  83               5.49540874E+01   7.89442605E-01   2758.22633683    7.85386714E-06   2.07308209E+18   1.86348577E+07   3.52889134E+08   5.52001063E+08   0.13109164      
  84               6.45654229E+01   8.62895820E-01   2790.37859818    8.46433214E-06   2.23986102E+18   1.63175413E+07   3.55211814E+08   5.23511772E+08   0.1290691       
  85               7.58577575E+01   9.42940167E-01   2822.28165423    9.12152473E-06   2.41996800E+18   1.43089455E+07   3.57227315E+08   4.94704024E+08   0.12723686      
  86               8.91250938E+01   1.03008962E+00   2854.03915329    9.82796459E-06   2.61421272E+18   1.25739150E+07   3.58970919E+08   4.65596335E+08   0.12562086      
  87               1.04712855E+02   1.12489064E+00   2885.59628726    1.05869955E-05   2.82358308E+18   1.10671271E+07   3.60489034E+08   4.36206093E+08   0.12418986      
  88               1.23026877E+02   1.22792646E+00   2917.05038894    1.14013744E-05   3.04897783E+18   9.75654700E+06   3.61814580E+08   4.06548803E+08   0.12289718      
  89               1.44543977E+02   1.33982265E+00   2948.32934932    1.22749383E-05   3.29152502E+18   8.61245188E+06   3.62978204E+08   3.76637521E+08   0.12173148      
  90               1.69824365E+02   1.46125235E+00   2979.53480142    1.32107716E-05   3.55224246E+18   7.61408771E+06   3.64001913E+08   3.46482545E+08   0.12067451      
  91               1.99526231E+02   1.59294200E+00   3010.59137884    1.42132941E-05   3.83242786E+18   6.73860003E+06   3.64910169E+08   3.16091352E+08   0.11972386      
  92               2.34422882E+02   1.73565945E+00   3041.60515085    1.52858639E-05   4.13321048E+18   5.96950665E+06   3.65720929E+08   2.85472269E+08   0.11885509      
  93               2.75422870E+02   1.89020960E+00   3072.48490618    1.64333217E-05   4.45600887E+18   5.29085357E+06   3.66451289E+08   2.54635491E+08   0.11805765      
  94               3.23593657E+02   2.05747221E+00   3103.33798250    1.76594094E-05   4.80209491E+18   4.69338899E+06   3.67111792E+08   2.23585950E+08   0.11732714      
  95               3.80189396E+02   2.23840802E+00   3134.07939954    1.89698739E-05   5.17315031E+18   4.16553065E+06   3.67715025E+08   1.92324358E+08   0.11667202      
  96               4.46683592E+02   2.43406511E+00   3164.83119774    2.03690680E-05   5.57067062E+18   3.69990739E+06   3.68269451E+08   1.60847993E+08   0.11609487      
  97               5.24807460E+02   2.64558490E+00   3195.51410949    2.18636917E-05   5.99662380E+18   3.28767980E+06   3.68786468E+08   1.29151570E+08   0.11560632      
  98               6.16595002E+02   2.87420849E+00   3226.26256876    2.34586982E-05   6.45274343E+18   2.92339284E+06   3.69271206E+08   9.72278262E+07   0.11520428      
  99               7.24435960E+02   3.12128339E+00   3256.99765258    2.51618192E-05   6.94131247E+18   2.59977225E+06   3.69731021E+08   6.50681261E+07   0.1148766       
  100              8.51138038E+02   3.38827351E+00   3287.85210149    2.69787767E-05   7.46435054E+18   2.31281364E+06   3.70169917E+08   3.26625815E+07   0.11460439      
  101              1.00000000E+03   3.67677257E+00   3318.73740241    2.89186375E-05   8.02453207E+18   2.17566123E+06   3.70424227E+08   0.00000000E+00   0.11437877      
