# ATMO pressure-temperature profile
# Effective temperature = 250.0K
# log(g) = 3.5cm/s^2
# M/H = 0.0
# Optical depth grid in band 17 (1.20-1.33microns)
# All parameters in cgs units
#
# Model Level      Optical Depth    Pressure         Temperature      Density          Number Density   Rad Flux         Conv Flux        Radial Extension Adiabatic Gradient
#                                   [Ba]             [K]              [g/cm^3]         [/cm^3]          [ergs/s/cm^2/sr] [ergs/s/cm^2/sr] [cm]             [K/Ba]          
  1                5.00000000E-05   1.00000000E-05   28.60755562      9.90965808E-09   2.53189149E+15   2.21420152E+05   0.00000000E+00   6.66151734E+07   0.34574404      
  2                5.91534807E-05   4.86653879E-05   34.50364778      3.99847697E-08   1.02160031E+16   2.21420152E+05   0.00000000E+00   6.60009226E+07   0.34574404      
  3                6.99826855E-05   9.43664019E-05   37.63921217      7.10749057E-08   1.81594509E+16   2.21420152E+05   0.00000000E+00   6.57298283E+07   0.34574404      
  4                8.27943887E-05   1.48381688E-04   40.07691451      1.04960393E-07   2.68171035E+16   2.21420152E+05   0.00000000E+00   6.55320650E+07   0.31479378      
  5                9.79515255E-05   2.12216150E-04   41.87310579      1.43675487E-07   3.67087077E+16   2.21420152E+05   0.00000000E+00   6.53676841E+07   0.31480573      
  6                1.15883473E-04   2.87649338E-04   43.69868145      1.86609808E-07   4.76783135E+16   2.21420152E+05   0.00000000E+00   6.52220028E+07   0.31481628      
  7                1.37098216E-04   3.76770719E-04   45.20716007      2.36270412E-07   6.03664668E+16   2.21420152E+05   0.00000000E+00   6.50877850E+07   0.31482595      
  8                1.62196734E-04   4.82053972E-04   46.87038786      2.91565772E-07   7.44942853E+16   2.21420152E+05   0.00000000E+00   6.49609362E+07   0.31483505      
  9                1.91890027E-04   6.06405942E-04   48.28605264      3.56025550E-07   9.09635884E+16   2.21420152E+05   0.00000000E+00   6.48388845E+07   0.31484376      
  10               2.27019260E-04   7.53237458E-04   49.93996723      4.27585606E-07   1.09246994E+17   2.21420152E+05   0.00000000E+00   6.47198790E+07   0.31485221      
  11               2.68579588E-04   9.26586878E-04   51.34368727      5.11609396E-07   1.30714851E+17   2.21420152E+05   0.00000000E+00   6.46026752E+07   0.31486049      
  12               3.17748350E-04   1.13119059E-03   53.01644679      6.04873540E-07   1.54543593E+17   2.21420152E+05   0.00000000E+00   6.44863666E+07   0.31486866      
  13               3.75918418E-04   1.37258483E-03   54.47431790      7.14310141E-07   1.82504356E+17   2.21420152E+05   0.00000000E+00   6.43702348E+07   0.31487678      
  14               4.44737657E-04   1.65728915E-03   56.24882262      8.35264977E-07   2.13407997E+17   2.21420152E+05   0.00000000E+00   6.42536777E+07   0.31488489      
  15               5.26155608E-04   1.99298880E-03   57.80722643      9.77377072E-07   2.49717263E+17   2.21420152E+05   0.00000000E+00   6.41361859E+07   0.31489302      
  16               6.22478712E-04   2.38862763E-03   59.73559602      1.13358652E-06   2.89628364E+17   2.21420152E+05   0.00000000E+00   6.40173246E+07   0.31490121      
  17               7.36435649E-04   2.85459023E-03   61.48760020      1.31612050E-06   3.36265314E+17   2.21420152E+05   0.00000000E+00   6.38966889E+07   0.31490949      
  18               8.71254639E-04   3.40311265E-03   63.65284857      1.51564644E-06   3.87243665E+17   2.21420152E+05   0.00000000E+00   6.37738750E+07   0.31491788      
  19               1.03075489E-03   4.04853795E-03   65.63682040      1.74859850E-06   4.46762301E+17   2.21420152E+05   0.00000000E+00   6.36485026E+07   0.3149264       
  20               1.21945479E-03   4.80741221E-03   68.10233325      2.00119215E-06   5.11299314E+17   2.21420152E+05   0.00000000E+00   6.35202162E+07   0.31493508      
  21               1.44269991E-03   5.69875146E-03   70.44850718      2.29322856E-06   5.85913846E+17   2.21420152E+05   0.00000000E+00   6.33886408E+07   0.31494394      
  22               1.70681442E-03   6.74328069E-03   73.37991282      2.60515439E-06   6.65610073E+17   2.21420152E+05   0.00000000E+00   6.32535019E+07   0.31495301      
  23               2.01928028E-03   7.96060655E-03   76.28388534      2.95837195E-06   7.55856226E+17   2.21420152E+05   0.00000000E+00   6.31148379E+07   0.31496231      
  24               2.38894914E-03   9.37224160E-03   79.95331323      3.32312311E-06   8.49049186E+17   2.21420162E+05   0.00000000E+00   6.29724665E+07   0.31497187      
  25               2.82629313E-03   1.10013664E-02   84.22992476      3.70270946E-06   9.46032496E+17   2.21414264E+05   5.88837014E+00   6.28256005E+07   0.31498172      
  26               3.34370152E-03   1.28799497E-02   88.37434875      4.13168650E-06   1.05563500E+18   2.21401715E+05   1.84372005E+01   6.26737182E+07   0.31499186      
  27               3.95583167E-03   1.50495561E-02   92.96717034      4.58916316E-06   1.17251908E+18   2.21382517E+05   3.76350099E+01   6.25161566E+07   0.31500231      
  28               4.68002425E-03   1.75588616E-02   97.43611772      5.10876357E-06   1.30527561E+18   2.21355026E+05   6.51264346E+01   6.23522755E+07   0.31501307      
  29               5.53679448E-03   2.04646748E-02   102.41839822     5.66455994E-06   1.44728049E+18   2.21317667E+05   1.02485040E+02   6.21814602E+07   0.31502417      
  30               6.55041330E-03   2.38327824E-02   107.27954953     6.29791332E-06   1.60910227E+18   2.21271609E+05   1.48542952E+02   6.20031384E+07   0.31503569      
  31               7.74959494E-03   2.77394176E-02   112.71764472     6.97658361E-06   1.78250712E+18   2.21221126E+05   1.99025490E+02   6.18167653E+07   0.31504769      
  32               9.16831029E-03   3.22734947E-02   118.03199490     7.75134799E-06   1.98048742E+18   2.21171677E+05   2.48474893E+02   6.16217903E+07   0.31506027      
  33               1.08467493E-02   3.75384476E-02   123.98932235     8.58203511E-06   2.19289512E+18   2.21127958E+05   2.92194369E+02   6.14176585E+07   0.31594536      
  34               1.28324595E-02   4.36543984E-02   129.85126418     9.53062486E-06   2.43504878E+18   2.21095190E+05   3.24962291E+02   6.12038090E+07   0.32040892      
  35               1.51816929E-02   5.07592500E-02   136.57474487     1.05362167E-05   2.69197262E+18   2.21071340E+05   3.48811852E+02   6.09796006E+07   0.32193187      
  36               1.79609996E-02   5.90124247E-02   143.08434366     1.16920654E-05   2.98728861E+18   2.21061051E+05   3.59101221E+02   6.07444570E+07   0.32456781      
  37               2.12491128E-02   6.86003778E-02   150.60091449     1.29133460E-05   3.29932227E+18   2.21059516E+05   3.60635823E+02   6.04977049E+07   0.32555763      
  38               2.51391797E-02   7.97403319E-02   157.81701255     1.43239931E-05   3.65973855E+18   2.21062999E+05   3.57153532E+02   6.02386857E+07   0.32547378      
  39               2.97413996E-02   9.26844894E-02   166.09660593     1.58192591E-05   4.04177509E+18   2.21058549E+05   3.61603156E+02   5.99667610E+07   0.32517507      
  40               3.51861462E-02   1.07722761E-01   174.03287876     1.75475208E-05   4.48334349E+18   2.21020482E+05   3.99670493E+02   5.96813328E+07   0.32481943      
  41               4.16276604E-02   1.25183896E-01   183.13155743     1.93786741E-05   4.95120735E+18   2.20873793E+05   5.46358540E+02   5.93818978E+07   0.32458855      
  42               4.92484201E-02   1.45449220E-01   191.84875009     2.14925360E-05   5.49133910E+18   2.20498618E+05   9.21534316E+02   5.90678847E+07   0.32316262      
  43               5.82643093E-02   1.68937580E-01   201.75850603     2.37366705E-05   6.06485267E+18   2.19994649E+05   1.42550361E+03   5.87390339E+07   0.32219552      
  44               6.89307339E-02   1.96132193E-01   211.24775686     2.63175635E-05   6.72485024E+18   2.19234124E+05   2.18602871E+03   5.83949612E+07   0.3193446       
  45               8.15498567E-02   2.27587982E-01   221.90265381     2.90577530E-05   7.42869742E+18   2.17727403E+05   3.69274977E+03   5.80352560E+07   0.3181282       
  46               9.64791575E-02   2.63969287E-01   232.18394837     3.22301223E-05   8.23468607E+18   2.14841734E+05   6.57841898E+03   5.76593180E+07   0.31525462      
  47               1.14141560E-01   3.06077297E-01   243.62966646     3.56158973E-05   9.09969396E+18   2.10218587E+05   1.12015656E+04   5.72663006E+07   0.31406077      
  48               1.35037411E-01   3.54841499E-01   254.79049346     3.94815439E-05   1.00873485E+19   2.03902520E+05   1.75176342E+04   5.68550731E+07   0.31135586      
  49               1.59758657E-01   4.11350141E-01   267.11754986     4.36568253E-05   1.11541137E+19   1.96285811E+05   2.51343436E+04   5.64246538E+07   0.31030321      
  50               1.89005613E-01   4.76807688E-01   279.25317293     4.84047607E-05   1.23671883E+19   1.87790075E+05   3.36300798E+04   5.59743666E+07   0.30805142      
  51               2.23606798E-01   5.52548166E-01   292.53787173     5.35464877E-05   1.36808753E+19   1.78829578E+05   4.25905768E+04   5.55039111E+07   0.30719152      
  52               2.64542408E-01   6.40115459E-01   305.69815697     5.93619885E-05   1.51667083E+19   1.69672294E+05   5.17478609E+04   5.50127520E+07   0.30534109      
  53               3.12972084E-01   7.41264477E-01   319.99621063     6.56706474E-05   1.67785410E+19   1.60850796E+05   6.05693580E+04   5.45004550E+07   0.30462651      
  54               3.70267763E-01   8.57969600E-01   334.23023256     7.27728050E-05   1.85931087E+19   1.52859367E+05   6.85607868E+04   5.39666045E+07   0.30324891      
  55               4.38052539E-01   9.92536399E-01   349.61411440     8.04823111E-05   2.05628508E+19   1.46690078E+05   7.47300767E+04   5.34105682E+07   0.30278114      
  56               5.18246648E-01   1.14766066E+00   365.00586198     8.91367113E-05   2.27740095E+19   1.42382993E+05   7.90371625E+04   5.28314046E+07   0.30185975      
  57               6.13121862E-01   1.32635790E+00   381.59058350     9.85385434E-05   2.51761270E+19   1.39683822E+05   8.17363338E+04   5.22284474E+07   0.30151997      
  58               7.25365844E-01   1.53189495E+00   398.21290347     1.09057795E-04   2.78637455E+19   1.37718643E+05   8.37015129E+04   5.16014602E+07   0.3008926       
  59               8.58158289E-01   1.76778982E+00   416.04488133     1.20457366E-04   3.07762914E+19   1.36028561E+05   8.53915954E+04   5.09506213E+07   0.30071028      
  60               1.01526100E+00   2.03815068E+00   433.91611096     1.33160944E-04   3.40217268E+19   1.33653848E+05   8.77663077E+04   5.02755652E+07   0.30038796      
  61               1.20112443E+00   2.34768910E+00   453.05520979     1.46904738E-04   3.75331741E+19   1.29431544E+05   9.19886117E+04   4.95757100E+07   0.30027843      
  62               1.42101382E+00   2.70138944E+00   472.22096097     1.62176604E-04   4.14350414E+19   1.21238452E+05   1.00181702E+05   4.88510679E+07   0.30000629      
  63               1.68115827E+00   3.10450304E+00   492.67154724     1.78642137E-04   4.56415565E+19   1.06828381E+05   1.14591771E+05   4.81021360E+07   0.29990252      
  64               1.98892727E+00   3.56260424E+00   513.08319948     1.96846487E-04   5.02927781E+19   9.27603367E+04   1.28659815E+05   4.73296232E+07   0.29970345      
  65               2.35303941E+00   4.08303642E+00   534.83481961     2.16444460E-04   5.52954529E+19   8.61552060E+04   1.35264947E+05   4.65322962E+07   0.29962897      
  66               2.78380943E+00   4.67446533E+00   556.58750636     2.38112213E-04   6.08309122E+19   8.10649941E+04   1.40355158E+05   4.57084645E+07   0.29942469      
  67               3.29344035E+00   5.34560805E+00   579.77117707     2.61410876E-04   6.67830626E+19   7.65131878E+04   1.44906965E+05   4.48577924E+07   0.29932854      
  68               3.89636920E+00   6.10519944E+00   602.90107658     2.87102468E-04   7.33465407E+19   7.21523767E+04   1.49267778E+05   4.39809940E+07   0.29910926      
  69               4.60967600E+00   6.96182207E+00   627.44008847     3.14581897E-04   8.03667666E+19   6.82730424E+04   1.53212483E+05   4.30796217E+07   0.29901917      
  70               5.45356761E+00   7.92598540E+00   651.83996676     3.44742853E-04   8.80720535E+19   6.48458453E+04   1.56775558E+05   4.21537813E+07   0.29869371      
  71               6.45195012E+00   9.01226264E+00   677.73383023     3.77014059E-04   9.63164605E+19   6.21026664E+04   1.59374709E+05   4.12009538E+07   0.29852953      
  72               7.63310614E+00   1.02350407E+01   703.53979649     4.12461678E-04   1.05372369E+20   5.96103897E+04   1.61880687E+05   4.02203873E+07   0.29802893      
  73               9.03049593E+00   1.16085289E+01   730.84541043     4.50333374E-04   1.15047584E+20   5.75046740E+04   1.64003707E+05   3.92126065E+07   0.29780225      
  74               1.06837053E+01   1.31469970E+01   758.00286371     4.91742713E-04   1.25626586E+20   5.55080911E+04   1.65961586E+05   3.81787686E+07   0.29711531      
  75               1.26395671E+01   1.48665737E+01   786.58520395     5.35854707E-04   1.36896062E+20   5.40222939E+04   1.67476258E+05   3.71194439E+07   0.29683007      
  76               1.49534878E+01   1.67939618E+01   815.13928385     5.84122264E-04   1.49226920E+20   5.30276761E+04   1.68427560E+05   3.60300274E+07   0.29592276      
  77               1.76910170E+01   1.89587634E+01   845.26910620     6.35912873E-04   1.62457906E+20   5.28991186E+04   1.68571232E+05   3.49068003E+07   0.29557606      
  78               2.09297047E+01   2.13876102E+01   875.52799421     6.92590093E-04   1.76936757E+20   5.34402116E+04   1.68143064E+05   3.37494536E+07   0.29444344      
  79               2.47612977E+01   2.41033002E+01   907.18449350     7.53298303E-04   1.92445044E+20   5.48840653E+04   1.66760165E+05   3.25605162E+07   0.29405869      
  80               2.92943389E+01   2.71236985E+01   938.88629089     8.19071154E-04   2.09248210E+20   5.67730023E+04   1.64707044E+05   3.13445544E+07   0.2926884       
  81               3.46572422E+01   3.04676289E+01   971.58375659     8.89086322E-04   2.27135099E+20   5.90577572E+04   1.62465874E+05   3.01054027E+07   0.29189317      
  82               4.10019301E+01   3.41725025E+01   1004.37997155    9.64638314E-04   2.46436243E+20   6.13765453E+04   1.60063291E+05   2.88403190E+07   0.2904352       
  83               4.85081376E+01   3.82803083E+01   1038.18099703    1.04541660E-03   2.67071897E+20   6.34748909E+04   1.57983488E+05   2.75467694E+07   0.28962731      
  84               5.73885036E+01   4.28276517E+01   1072.24811395    1.13245079E-03   2.89304248E+20   6.47722362E+04   1.56654925E+05   2.62251582E+07   0.28805986      
  85               6.78945948E+01   4.78456820E+01   1107.07407338    1.22536989E-03   3.13034287E+20   6.59550369E+04   1.55483846E+05   2.48780860E+07   0.28686326      
  86               8.03240320E+01   5.33659730E+01   1142.09510869    1.32483795E-03   3.38444921E+20   6.76779861E+04   1.53744442E+05   2.35080026E+07   0.28528169      
  87               9.50289215E+01   5.94290662E+01   1177.70826209    1.43074188E-03   3.65499699E+20   6.97823993E+04   1.51993121E+05   2.21153838E+07   0.2840652       
  88               1.12425830E+02   6.60879392E+01   1213.61223675    1.54398124E-03   3.94428331E+20   7.17014331E+04   1.50107371E+05   2.06986146E+07   0.28248013      
  89               1.33007583E+02   7.34230294E+01   1250.19812094    1.66514937E-03   4.25382185E+20   7.35857680E+04   1.48110370E+05   1.92519832E+07   0.28124813      
  90               1.57357229E+02   8.15024612E+01   1287.32197216    1.79508046E-03   4.58573951E+20   7.50523196E+04   1.46579216E+05   1.77741945E+07   0.2796188       
  91               1.86164557E+02   9.03822453E+01   1324.99634142    1.93406219E-03   4.94076601E+20   7.60101062E+04   1.45570132E+05   1.62671524E+07   0.2780192       
  92               2.20245630E+02   1.00106960E+02   1363.05227346    2.08236300E-03   5.31958313E+20   7.63439491E+04   1.45213909E+05   1.47347825E+07   0.27645055      
  93               2.60565913E+02   1.10718443E+02   1401.45825273    2.23999996E-03   5.72223439E+20   7.61198012E+04   1.45423582E+05   1.31810575E+07   0.27506784      
  94               3.08267614E+02   1.22285805E+02   1440.18788294    2.40751385E-03   6.15010787E+20   7.52892954E+04   1.46258701E+05   1.16058917E+07   0.27345167      
  95               3.64702046E+02   1.34903452E+02   1479.25542589    2.58579720E-03   6.60550052E+20   7.40511033E+04   1.47512460E+05   1.00067124E+07   0.27206403      
  96               4.31467909E+02   1.48684113E+02   1518.84785271    2.77565786E-03   7.09048815E+20   7.23649921E+04   1.49228500E+05   8.38007610E+06   0.27055625      
  97               5.10456573E+02   1.63699255E+02   1558.74939370    2.97772370E-03   7.60669924E+20   7.02951615E+04   1.51351581E+05   6.72847637E+06   0.26920321      
  98               6.03905660E+02   1.79985688E+02   1599.00927692    3.19154884E-03   8.15291340E+20   6.77984099E+04   1.53921486E+05   5.05783134E+06   0.26772474      
  99               7.14462436E+02   1.97556331E+02   1639.20959568    3.41717344E-03   8.72935799E+20   6.49924314E+04   1.56846382E+05   3.37533538E+06   0.26638602      
  100              8.45258798E+02   2.16410516E+02   1679.47145831    3.65364388E-03   9.33322148E+20   6.19163576E+04   1.60071474E+05   1.68795229E+06   0.26490357      
  101              1.00000000E+03   2.36561520E+02   1719.34895838    3.90075093E-03   9.96565644E+20   6.02012860E+04   1.61363181E+05   0.00000000E+00   0.26357701      
