# ATMO pressure-temperature profile
# Effective temperature = 1400.0K
# log(g) = 5.5cm/s^2
# M/H = 0.0
# Optical depth grid in band 17 (1.20-1.33microns)
# All parameters in cgs units
#
# Model Level      Optical Depth    Pressure         Temperature      Density          Number Density   Rad Flux         Conv Flux        Radial Extension Adiabatic Gradient
#                                   [Ba]             [K]              [g/cm^3]         [/cm^3]          [ergs/s/cm^2/sr] [ergs/s/cm^2/sr] [cm]             [K/Ba]          
  1                1.00000000E-07   1.00000000E-05   423.81347093     6.68596995E-10   1.70903550E+14   2.17814628E+08   0.00000000E+00   2.22350873E+06   0.29752286      
  2                1.25892541E-07   2.64225069E-05   445.94251288     1.67893648E-09   4.29161726E+14   2.17814628E+08   0.00000000E+00   2.17449247E+06   0.29744209      
  3                1.58489319E-07   4.64780795E-05   461.45854097     2.85400422E-09   7.29526926E+14   2.17814628E+08   0.00000000E+00   2.14551966E+06   0.29743699      
  4                1.99526231E-07   7.13511282E-05   464.63630033     4.35137831E-09   1.11227851E+15   2.17814628E+08   0.00000000E+00   2.12319996E+06   0.29749789      
  5                2.51188643E-07   1.02287863E-04   476.74154340     6.07967334E-09   1.55405702E+15   2.17814628E+08   0.00000000E+00   2.10417951E+06   0.29747857      
  6                3.16227766E-07   1.40775681E-04   479.45296210     8.31995116E-09   2.12670607E+15   2.17814628E+08   0.00000000E+00   2.08706664E+06   0.29755729      
  7                3.98107171E-07   1.88685294E-04   490.91802621     1.08910116E-08   2.78390822E+15   2.17814628E+08   0.00000000E+00   2.07115085E+06   0.29753385      
  8                5.01187234E-07   2.48304002E-04   493.83714510     1.42475149E-08   3.64188145E+15   2.17814628E+08   0.00000000E+00   2.05601598E+06   0.29911247      
  9                6.30957344E-07   3.22506337E-04   505.11768910     1.80919272E-08   4.62457167E+15   2.17814628E+08   0.00000000E+00   2.04140075E+06   0.2991439       
  10               7.94328235E-07   4.14812475E-04   508.44780682     2.31176986E-08   5.90923511E+15   2.17814628E+08   0.00000000E+00   2.02712773E+06   0.29904698      
  11               1.00000000E-06   5.29663079E-04   519.68429995     2.88801385E-08   7.38220233E+15   2.17814628E+08   0.00000000E+00   2.01307174E+06   0.29907437      
  12               1.25892541E-06   6.72535379E-04   523.35225033     3.64133148E-08   9.30779649E+15   2.17814628E+08   0.00000000E+00   1.99913959E+06   0.2989741       
  13               1.58489319E-06   8.50304454E-04   534.57584916     4.50717382E-08   1.15210208E+16   2.17814628E+08   0.00000000E+00   1.98526328E+06   0.29899752      
  14               1.99526231E-06   1.07144447E-03   538.53933430     5.63756339E-08   1.44104678E+16   2.17814628E+08   0.00000000E+00   1.97139031E+06   0.29889363      
  15               2.51188643E-06   1.34654911E-03   549.87075607     6.93906210E-08   1.77372960E+16   2.17814628E+08   0.00000000E+00   1.95748112E+06   0.29891345      
  16               3.16227766E-06   1.68868149E-03   554.15759675     8.63482747E-08   2.20719291E+16   2.17814628E+08   0.00000000E+00   1.94350402E+06   0.29880055      
  17               3.98107171E-06   2.11412284E-03   565.74136199     1.05889159E-07   2.70668755E+16   2.17814628E+08   0.00000000E+00   1.92943425E+06   0.29881791      
  18               5.01187234E-06   2.64297925E-03   570.31148472     1.31316973E-07   3.35666094E+16   2.17814628E+08   0.00000000E+00   1.91525179E+06   0.29869397      
  19               6.30957344E-06   3.30029198E-03   582.09355062     1.60656690E-07   4.10662850E+16   2.17814628E+08   0.00000000E+00   1.90094104E+06   0.29871109      
  20               7.94328235E-06   4.11704567E-03   586.80779617     1.98805806E-07   5.08177753E+16   2.17814628E+08   0.00000000E+00   1.88648907E+06   0.298572        
  21               1.00000000E-05   5.13181292E-03   598.66560977     2.42899019E-07   6.20886682E+16   2.17814628E+08   0.00000000E+00   1.87188617E+06   0.29859004      
  22               1.25892541E-05   6.39230956E-03   603.37625917     3.00198730E-07   7.67353396E+16   2.17814628E+08   0.00000000E+00   1.85712488E+06   0.29843765      
  23               1.58489319E-05   7.95786924E-03   615.30529388     3.66475944E-07   9.36767870E+16   2.17814628E+08   0.00000000E+00   1.84219891E+06   0.29845783      
  24               1.99526231E-05   9.90181993E-03   620.02921779     4.52524622E-07   1.15672123E+17   2.17814628E+08   0.00000000E+00   1.82710362E+06   0.29828849      
  25               2.51188643E-05   1.23157449E-02   631.99762548     5.52184976E-07   1.41146813E+17   2.17814628E+08   0.00000000E+00   1.81183287E+06   0.2983127       
  26               3.16227766E-05   1.53133921E-02   636.76810205     6.81442899E-07   1.74187082E+17   2.17814628E+08   0.00000000E+00   1.79637949E+06   0.29812771      
  27               3.98107171E-05   1.90358858E-02   648.94071957     8.31203983E-07   2.12468183E+17   2.17814628E+08   0.00000000E+00   1.78073846E+06   0.29815632      
  28               5.01187234E-05   2.36574099E-02   653.82450206     1.02528731E-06   2.62078770E+17   2.17814628E+08   0.00000000E+00   1.76490745E+06   0.29796783      
  29               6.30957344E-05   2.93932266E-02   666.37804442     1.24987381E-06   3.19486435E+17   2.17814628E+08   0.00000000E+00   1.74888461E+06   0.2980389       
  30               7.94328235E-05   3.65082518E-02   671.75372983     1.53999938E-06   3.93646859E+17   2.17814627E+08   0.00000000E+00   1.73266714E+06   0.29778917      
  31               1.00000000E-04   4.53272355E-02   685.09939833     1.87476145E-06   4.79216194E+17   2.17814627E+08   0.00000000E+00   1.71625424E+06   0.29780643      
  32               1.25892541E-04   5.62463215E-02   691.32109346     2.30544477E-06   5.89305041E+17   2.17814627E+08   0.00000000E+00   1.69964553E+06   0.29754504      
  33               1.58489319E-04   6.97501785E-02   705.97164261     2.79961603E-06   7.15622367E+17   2.17814627E+08   0.00000000E+00   1.68283694E+06   0.29757751      
  34               1.99526231E-04   8.64242327E-02   713.56664111     3.43195303E-06   8.77256982E+17   2.17814627E+08   0.00000000E+00   1.66582628E+06   0.29729225      
  35               2.51188643E-04   1.06974384E-01   729.89759327     4.15299231E-06   1.06155794E+18   2.17814627E+08   0.00000000E+00   1.64861297E+06   0.2973202       
  36               3.16227766E-04   1.32251683E-01   739.32657744     5.06883529E-06   1.29565903E+18   2.17814627E+08   0.00000000E+00   1.63119105E+06   0.29692539      
  37               3.98107171E-04   1.63276743E-01   757.76342625     6.10567757E-06   1.56068957E+18   2.17814627E+08   0.00000000E+00   1.61355540E+06   0.29687417      
  38               5.01187234E-04   2.01263319E-01   769.40952031     7.41229455E-06   1.89466710E+18   2.17814626E+08   0.00000000E+00   1.59569927E+06   0.29642013      
  39               6.30957344E-04   2.47701480E-01   790.28957509     8.88153306E-06   2.27022127E+18   2.17814626E+08   0.00000000E+00   1.57760027E+06   0.29637653      
  40               7.94328235E-04   3.04367868E-01   804.73943431     1.07173914E-05   2.73948772E+18   2.17814626E+08   0.00000000E+00   1.55923332E+06   0.29586748      
  41               1.00000000E-03   3.73357268E-01   828.61353033     1.27678605E-05   3.26361130E+18   2.17814626E+08   0.00000000E+00   1.54058332E+06   0.29578168      
  42               1.25892541E-03   4.57079776E-01   846.35616587     1.53032760E-05   3.91169228E+18   2.17814625E+08   0.00000000E+00   1.52164284E+06   0.29511507      
  43               1.58489319E-03   5.58419426E-01   873.76694457     1.81096729E-05   4.62903800E+18   2.17814625E+08   0.00000000E+00   1.50239279E+06   0.29489103      
  44               1.99526231E-03   6.80590405E-01   895.57642526     2.15342241E-05   5.50438761E+18   2.17814624E+08   0.00000000E+00   1.48282921E+06   0.29400316      
  45               2.51188643E-03   8.27156167E-01   927.18728824     2.52794474E-05   6.46168649E+18   2.17814624E+08   0.00000000E+00   1.46296441E+06   0.29366774      
  46               3.16227766E-03   1.00216481E+00   953.68719041     2.97771879E-05   7.61130351E+18   2.17814622E+08   0.00000000E+00   1.44279310E+06   0.29259772      
  47               3.98107171E-03   1.21069041E+00   990.21360788     3.46469220E-05   8.85584594E+18   2.17814623E+08   0.00000000E+00   1.42226323E+06   0.29213849      
  48               5.01187234E-03   1.45814347E+00   1022.04588074    4.04285989E-05   1.03336966E+19   2.17814620E+08   0.00000000E+00   1.40135505E+06   0.29086056      
  49               6.30957344E-03   1.75045049E+00   1063.58884504    4.66370993E-05   1.19207038E+19   2.17814621E+08   0.00000000E+00   1.38006733E+06   0.29022952      
  50               7.94328235E-03   2.09430044E+00   1100.49377543    5.39265870E-05   1.37840625E+19   2.17814618E+08   0.00000000E+00   1.35838521E+06   0.28867605      
  51               1.00000000E-02   2.49761216E+00   1146.54772390    6.17273246E-05   1.57782453E+19   2.17814619E+08   0.00000000E+00   1.33627968E+06   0.28779867      
  52               1.25892541E-02   2.96949826E+00   1187.67900995    7.08469945E-05   1.81096407E+19   2.17814617E+08   0.00000000E+00   1.31371455E+06   0.28587009      
  53               1.58489319E-02   3.52047064E+00   1237.32032536    8.06205562E-05   2.06084068E+19   2.17814614E+08   0.00000000E+00   1.29066054E+06   0.28467684      
  54               1.99526231E-02   4.16290026E+00   1281.66332609    9.20324476E-05   2.35259889E+19   2.17814616E+08   0.00000000E+00   1.26707574E+06   0.28244148      
  55               2.51188643E-02   4.91189830E+00   1334.06223124    1.04323776E-04   2.66685324E+19   2.17814609E+08   0.00000000E+00   1.24290339E+06   0.28105882      
  56               3.16227766E-02   5.78353575E+00   1380.80058436    1.18677363E-04   3.03380946E+19   2.17814611E+08   0.00000000E+00   1.21813143E+06   0.27867946      
  57               3.98107171E-02   6.79973835E+00   1435.41491831    1.34219362E-04   3.43115696E+19   2.17814605E+08   0.00000000E+00   1.19266962E+06   0.27719426      
  58               5.01187234E-02   7.99388935E+00   1484.53252457    1.52567270E-04   3.90026625E+19   2.17814601E+08   0.00000000E+00   1.16628066E+06   0.27460265      
  59               6.30957344E-02   9.41624011E+00   1541.83362037    1.73029254E-04   4.42349818E+19   2.17814600E+08   0.00000000E+00   1.13859723E+06   0.27296803      
  60               7.94328235E-02   1.10971487E+01   1593.67537859    1.97292376E-04   5.04356222E+19   2.17814588E+08   0.00000000E+00   1.10982743E+06   0.27035582      
  61               1.00000000E-01   1.30269874E+01   1652.80817105    2.23396615E-04   5.70883356E+19   2.17814589E+08   0.00000000E+00   1.08075663E+06   0.26876628      
  62               1.25892541E-01   1.51547079E+01   1705.67866180    2.51842866E-04   6.43540959E+19   2.17814603E+08   0.00000000E+00   1.05238945E+06   0.2661814       
  63               1.58489319E-01   1.73869740E+01   1764.12159761    2.79431557E-04   7.13873610E+19   2.17803392E+08   0.00000000E+00   1.02577888E+06   0.26454372      
  64               1.99526231E-01   1.94884783E+01   1816.59423486    3.04387635E-04   7.77044405E+19   2.13979164E+08   3.83705116E+06   1.00299075E+06   0.26198287      
  65               2.51188643E-01   2.12405456E+01   1859.11356799    3.24425446E-04   8.27533506E+19   2.07177590E+08   1.06340647E+07   9.85358967E+05   0.26051631      
  66               3.16227766E-01   2.32222468E+01   1901.47386343    3.46779276E-04   8.84585296E+19   1.98568879E+08   1.92381442E+07   9.66675619E+05   0.25851415      
  67               3.98107171E-01   2.49090111E+01   1937.28307093    3.65184304E-04   9.31299227E+19   1.88749621E+08   2.90528765E+07   9.51686021E+05   0.25751514      
  68               5.01187234E-01   2.62413225E+01   1962.27551940    3.79809599E-04   9.68615852E+19   1.79419171E+08   3.83840343E+07   9.40373305E+05   0.25579228      
  69               6.30957344E-01   2.78101155E+01   1992.65518487    3.96368565E-04   1.01087272E+20   1.69462894E+08   4.83421745E+07   9.27587344E+05   0.25505214      
  70               7.94328235E-01   2.96417951E+01   2024.21887597    4.15858397E-04   1.06065189E+20   1.57052172E+08   6.07542947E+07   9.13320513E+05   0.25377226      
  71               1.00000000E+00   3.09944907E+01   2048.23892433    4.30123078E-04   1.09604839E+20   1.44701318E+08   7.31133008E+07   9.03204956E+05   0.25369518      
  72               1.25892541E+00   3.19644377E+01   2063.33384359    4.40330829E-04   1.12207893E+20   1.34825023E+08   8.30002220E+07   8.96157016E+05   0.25231372      
  73               1.58489319E+00   3.31375231E+01   2083.08497405    4.52152505E-04   1.15222925E+20   1.26154203E+08   9.16779318E+07   8.87843251E+05   0.25224014      
  74               1.99526231E+00   3.45471591E+01   2104.17464331    4.66649404E-04   1.18920410E+20   1.17814230E+08   1.00022875E+08   8.78138837E+05   0.25054566      
  75               2.51188643E+00   3.62354407E+01   2130.25688093    4.83443331E-04   1.23204738E+20   1.09965447E+08   1.07877337E+08   8.66898561E+05   0.25019845      
  76               3.16227766E+00   3.82443911E+01   2158.38989333    5.03573571E-04   1.28340489E+20   1.02061158E+08   1.15786450E+08   8.54023026E+05   0.24816343      
  77               3.98107171E+00   4.06200714E+01   2191.50879471    5.26741286E-04   1.34252785E+20   9.44138023E+07   1.23437852E+08   8.39436284E+05   0.24750042      
  78               5.01187234E+00   4.34119015E+01   2227.16916780    5.53892092E-04   1.41182687E+20   8.65665539E+07   1.31287506E+08   8.23091533E+05   0.24497736      
  79               6.30957344E+00   4.66744558E+01   2267.38608475    5.84903397E-04   1.49100680E+20   7.90570763E+07   1.38798061E+08   8.04965453E+05   0.24393632      
  80               7.94328235E+00   5.04666235E+01   2310.50142948    6.20553590E-04   1.58206327E+20   7.13541652E+07   1.46500094E+08   7.85060698E+05   0.24090567      
  81               1.00000000E+01   5.48539016E+01   2357.33071720    6.61076467E-04   1.68543826E+20   6.40972777E+07   1.53754749E+08   7.63398908E+05   0.23916967      
  82               1.25892541E+01   5.99096215E+01   2407.26170344    7.06909054E-04   1.80259893E+20   5.70651555E+07   1.60783064E+08   7.40011770E+05   0.23597464      
  83               1.58489319E+01   6.57182571E+01   2460.02896318    7.58656286E-04   1.93495851E+20   5.07468713E+07   1.67096445E+08   7.14929208E+05   0.23351897      
  84               1.99526231E+01   7.23723745E+01   2515.88292608    8.16713793E-04   2.08357066E+20   4.48474813E+07   1.72990157E+08   6.88196958E+05   0.23023024      
  85               2.51188643E+01   7.99817564E+01   2573.83518363    8.81990817E-04   2.25079553E+20   3.94509041E+07   1.78381053E+08   6.59844849E+05   0.22700954      
  86               3.16227766E+01   8.86766924E+01   2634.64263490    9.54948498E-04   2.43788722E+20   3.45957716E+07   1.83231136E+08   6.29884425E+05   0.22375185      
  87               3.98107171E+01   9.86099245E+01   2697.28671592    1.03680071E-03   2.64800836E+20   3.01304343E+07   1.87692473E+08   5.98315701E+05   0.22011359      
  88               5.01187234E+01   1.09961320E+02   2762.40715740    1.12830969E-03   2.88322206E+20   2.61297651E+07   1.91690632E+08   5.65126851E+05   0.21640221      
  89               6.30957344E+01   1.22941015E+02   2829.13657958    1.23099923E-03   3.14752160E+20   2.25627170E+07   1.95257028E+08   5.30298994E+05   0.21267221      
  90               7.94328235E+01   1.37791403E+02   2898.18674539    1.34588036E-03   3.44367053E+20   1.95034384E+07   1.98317907E+08   4.93814212E+05   0.20903743      
  91               1.00000000E+02   1.54786258E+02   2968.69547414    1.47479435E-03   3.77652696E+20   1.68533754E+07   2.00972520E+08   4.55667672E+05   0.2055344       
  92               1.25892541E+02   1.74234717E+02   3041.39912734    1.61893679E-03   4.14941734E+20   1.45141795E+07   2.03318919E+08   4.15865024E+05   0.2018435       
  93               1.58489319E+02   1.96451606E+02   3115.02548450    1.78042151E-03   4.56793398E+20   1.24144106E+07   2.05429019E+08   3.74482712E+05   0.19830888      
  94               1.99526231E+02   2.21755336E+02   3190.39606565    1.96004401E-03   5.03448809E+20   1.05566430E+07   2.07302471E+08   3.31647710E+05   0.19493053      
  95               2.51188643E+02   2.50494457E+02   3266.14501403    2.16005568E-03   5.55505670E+20   8.92795946E+06   2.08954183E+08   2.87478777E+05   0.19176779      
  96               3.16227766E+02   2.83051942E+02   3343.26517183    2.38128588E-03   6.13226838E+20   7.56640118E+06   2.10348853E+08   2.42082321E+05   0.18888471      
  97               3.98107171E+02   3.19840387E+02   3420.44886408    2.62629205E-03   6.77292146E+20   6.41014534E+06   2.11552014E+08   1.95561907E+05   0.18632542      
  98               5.01187234E+02   3.61303348E+02   3498.82888284    2.89580012E-03   7.47954401E+20   5.41343009E+06   2.12614738E+08   1.48015867E+05   0.18396185      
  99               6.30957344E+02   4.07922486E+02   3576.99139926    3.19282515E-03   8.26010540E+20   4.53643121E+06   2.13583607E+08   9.95314565E+04   0.18178545      
  100              7.94328235E+02   4.60229116E+02   3656.19184073    3.51812091E-03   9.11739888E+20   3.78255083E+06   2.14464123E+08   5.01772859E+04   0.17969564      
  101              1.00000000E+03   5.18817965E+02   3734.95221504    3.87547085E-03   1.00613393E+21   3.41603744E+06   2.14934446E+08   0.00000000E+00   0.17785962      
