# ATMO pressure-temperature profile
# Effective temperature = 300.0K
# log(g) = 4.0cm/s^2
# M/H = 0.0
# Optical depth grid in band 17 (1.20-1.33microns)
# All parameters in cgs units
#
# Model Level      Optical Depth    Pressure         Temperature      Density          Number Density   Rad Flux         Conv Flux        Radial Extension Adiabatic Gradient
#                                   [Ba]             [K]              [g/cm^3]         [/cm^3]          [ergs/s/cm^2/sr] [ergs/s/cm^2/sr] [cm]             [K/Ba]          
  1                5.00000000E-05   1.00000000E-05   33.51177208      8.45943718E-09   2.16136665E+15   4.59188917E+05   0.00000000E+00   2.50484948E+07   0.34574459      
  2                5.91534807E-05   1.32830466E-04   41.86730477      8.99417961E-08   2.29799210E+16   4.59188917E+05   0.00000000E+00   2.46031928E+07   0.31479377      
  3                6.99826855E-05   2.77722127E-04   46.72557757      1.68497968E-07   4.30508414E+16   4.59188917E+05   0.00000000E+00   2.44854959E+07   0.3148191       
  4                8.27943887E-05   4.48687316E-04   50.08910134      2.53944854E-07   6.48823233E+16   4.59188917E+05   0.00000000E+00   2.44028463E+07   0.31483672      
  5                9.79515255E-05   6.50400145E-04   52.80701500      3.49162724E-07   8.92102692E+16   4.59188917E+05   0.00000000E+00   2.43351055E+07   0.31485103      
  6                1.15883473E-04   8.88308618E-04   55.34726831      4.54994920E-07   1.16250151E+17   4.59188917E+05   0.00000000E+00   2.42754168E+07   0.31486353      
  7                1.37098216E-04   1.16885769E-03   57.63627687      5.74916246E-07   1.46889772E+17   4.59188917E+05   0.00000000E+00   2.42205634E+07   0.31487493      
  8                1.62196734E-04   1.49951665E-03   59.97323585      7.08814631E-07   1.81100500E+17   4.59188917E+05   0.00000000E+00   2.41687656E+07   0.31488563      
  9                1.91890027E-04   1.88912950E-03   62.14894009      8.61721377E-07   2.20167820E+17   4.59188917E+05   0.00000000E+00   2.41189135E+07   0.31489587      
  10               2.27019260E-04   2.34801432E-03   64.45246214      1.03276162E-06   2.63868209E+17   4.59188917E+05   0.00000000E+00   2.40702705E+07   0.31490581      
  11               2.68579588E-04   2.88807682E-03   66.68964322      1.22769139E-06   3.13672313E+17   4.59188917E+05   0.00000000E+00   2.40223082E+07   0.31491558      
  12               3.17748350E-04   3.52334493E-03   69.12499377      1.44497030E-06   3.69186572E+17   4.59188917E+05   0.00000000E+00   2.39746121E+07   0.31492526      
  13               3.75918418E-04   4.27020780E-03   71.52150182      1.69258796E-06   4.32452312E+17   4.59188917E+05   0.00000000E+00   2.39268553E+07   0.31493493      
  14               4.44737657E-04   5.14476952E-03   74.20717184      1.96543600E-06   5.02164356E+17   4.59188917E+05   0.00000000E+00   2.38789056E+07   0.31494464      
  15               5.26155608E-04   6.16346184E-03   76.93663419      2.27106933E-06   5.80252965E+17   4.59188917E+05   0.00000000E+00   2.38306888E+07   0.31495443      
  16               6.22478712E-04   7.34587857E-03   79.98830642      2.60349116E-06   6.65185974E+17   4.59188917E+05   0.00000000E+00   2.37820618E+07   0.31496432      
  17               7.36435649E-04   8.71528626E-03   83.10988762      2.97281459E-06   7.59547259E+17   4.59188917E+05   0.00000000E+00   2.37328385E+07   0.31497433      
  18               8.71254639E-04   1.02993840E-02   86.64707580      3.36973853E-06   8.60960408E+17   4.59188917E+05   0.00000000E+00   2.36827890E+07   0.31498449      
  19               1.03075489E-03   1.21315564E-02   90.43184874      3.80306698E-06   9.71674826E+17   4.59188917E+05   0.00000000E+00   2.36316089E+07   0.31499484      
  20               1.21945479E-03   1.42507813E-02   94.77651272      4.26262191E-06   1.08909005E+18   4.59188529E+05   0.00000000E+00   2.35789743E+07   0.31500545      
  21               1.44269991E-03   1.67020717E-02   99.71616039      4.74835941E-06   1.21319507E+18   4.59183434E+05   5.48934615E+00   2.35244883E+07   0.31501637      
  22               1.70681442E-03   1.95401214E-02   104.68534408     5.29151272E-06   1.35197049E+18   4.59172457E+05   1.64651967E+01   2.34678698E+07   0.31502767      
  23               2.01928028E-03   2.28293532E-02   110.03279680     5.88177987E-06   1.50278653E+18   4.59156562E+05   3.23592939E+01   2.34089108E+07   0.31503943      
  24               2.38894914E-03   2.66443029E-02   115.42888803     6.54367892E-06   1.67192076E+18   4.59136865E+05   5.20566195E+01   2.33474181E+07   0.31651373      
  25               2.82629313E-03   3.10711355E-02   121.30866676     7.26040177E-06   1.85520171E+18   4.59114346E+05   7.45749094E+01   2.32831935E+07   0.31973388      
  26               3.34370152E-03   3.62101116E-02   127.32428878     8.06227927E-06   2.05989197E+18   4.59090034E+05   9.88876642E+01   2.32160247E+07   0.3223283       
  27               3.95583167E-03   4.21777378E-02   133.86691950     8.93200619E-06   2.28210621E+18   4.59067709E+05   1.21212677E+02   2.31457016E+07   0.32418826      
  28               4.68002425E-03   4.91083842E-02   140.54317732     9.90570098E-06   2.53088095E+18   4.59053925E+05   1.34997121E+02   2.30720204E+07   0.32579119      
  29               5.53679448E-03   5.71574608E-02   147.79997981     1.09632138E-05   2.80107277E+18   4.59055794E+05   1.33129087E+02   2.29947818E+07   0.32566837      
  30               6.55041330E-03   6.65068352E-02   155.13285782     1.21535126E-05   3.10519107E+18   4.59078336E+05   1.10591068E+02   2.29137859E+07   0.32512255      
  31               7.74959494E-03   7.73680552E-02   163.08888447     1.34485853E-05   3.43607914E+18   4.59118003E+05   7.09255104E+01   2.28288308E+07   0.32484873      
  32               9.16831029E-03   8.99859423E-02   171.14301377     1.49057754E-05   3.80838927E+18   4.59163429E+05   2.55100913E+01   2.27397117E+07   0.32443014      
  33               1.08467493E-02   1.04641252E-01   179.87489127     1.64919068E-05   4.21364771E+18   4.59188554E+05   0.00000000E+00   2.26462395E+07   0.32339927      
  34               1.28324595E-02   1.21655836E-01   188.40545999     1.83052205E-05   4.67697775E+18   4.59188910E+05   0.00000000E+00   2.25483134E+07   0.32190851      
  35               1.51816929E-02   1.41392585E-01   197.74745730     2.02695728E-05   5.17894817E+18   4.59188913E+05   0.00000000E+00   2.24458507E+07   0.31989591      
  36               1.79609996E-02   1.64256423E-01   207.06172871     2.24867924E-05   5.74577168E+18   4.59188915E+05   0.00000000E+00   2.23387572E+07   0.3179866       
  37               2.12491128E-02   1.90729040E-01   216.35685928     2.49746463E-05   6.38516309E+18   4.59188917E+05   0.00000000E+00   2.22270494E+07   0.31594069      
  38               2.51391797E-02   2.21388203E-01   225.45527761     2.78378740E-05   7.11246116E+18   4.59188919E+05   0.00000000E+00   2.21107728E+07   0.31423025      
  39               2.97413996E-02   2.56931032E-01   234.71439927     3.10324991E-05   7.92871244E+18   4.59188920E+05   0.00000000E+00   2.19898451E+07   0.31241801      
  40               3.51861462E-02   2.98151172E-01   244.13826113     3.46212751E-05   8.84558406E+18   4.59188921E+05   0.00000000E+00   2.18640889E+07   0.31090456      
  41               4.16276604E-02   3.45962314E-01   254.31473182     3.85655614E-05   9.85333196E+18   4.59189285E+05   0.00000000E+00   2.17332437E+07   0.30935003      
  42               4.92484201E-02   4.01400709E-01   266.21704237     4.27449337E-05   1.09211437E+19   4.57845156E+05   1.34374642E+03   2.15967010E+07   0.30802618      
  43               5.82643093E-02   4.65616193E-01   278.68058311     4.73656773E-05   1.21017229E+19   4.53581828E+05   5.60708038E+03   2.14539873E+07   0.3066018       
  44               6.89307339E-02   5.39919144E-01   291.54869451     5.25000857E-05   1.34135417E+19   4.46479624E+05   1.27092917E+04   2.13049846E+07   0.30536635      
  45               8.15498567E-02   6.25826492E-01   305.01681193     5.81664492E-05   1.48612728E+19   4.36666383E+05   2.25225385E+04   2.11495263E+07   0.30421357      
  46               9.64791575E-02   7.25060721E-01   318.90732353     6.44543559E-05   1.64678054E+19   4.24412022E+05   3.47769024E+04   2.09874576E+07   0.30328978      
  47               1.14141560E-01   8.39562588E-01   333.44444636     7.13792494E-05   1.82370853E+19   4.10066562E+05   4.91223655E+04   2.08186467E+07   0.30251105      
  48               1.35037411E-01   9.71577722E-01   348.42942765     7.90505902E-05   2.01970788E+19   3.94616577E+05   6.45723523E+04   2.06429008E+07   0.30191376      
  49               1.59758657E-01   1.12375482E+00   364.12591550     8.74907972E-05   2.23535148E+19   3.79560541E+05   7.96283892E+04   2.04599158E+07   0.30135973      
  50               1.89005613E-01   1.29906442E+00   380.30544676     9.68368341E-05   2.47413836E+19   3.66072409E+05   9.31165221E+04   2.02694556E+07   0.30093914      
  51               2.23606798E-01   1.50073020E+00   397.24563070     1.07099091E-04   2.73633543E+19   3.54775326E+05   1.04413606E+05   2.00714310E+07   0.30061061      
  52               2.64542408E-01   1.73221597E+00   414.66796869     1.18426105E-04   3.02571062E+19   3.45981447E+05   1.13207486E+05   1.98658850E+07   0.30040598      
  53               3.12972084E-01   1.99750657E+00   432.87792529     1.30818360E-04   3.34232453E+19   3.39694302E+05   1.19494630E+05   1.96527456E+07   0.30021005      
  54               3.70267763E-01   2.30125401E+00   451.58068330     1.44469152E-04   3.69109346E+19   3.34534058E+05   1.24654875E+05   1.94317973E+07   0.300036        
  55               4.38052539E-01   2.64839877E+00   471.10594024     1.59371500E-04   4.07183937E+19   3.27079766E+05   1.32110228E+05   1.92030174E+07   0.29986279      
  56               5.18246648E-01   3.04413979E+00   491.09879021     1.75729469E-04   4.48974388E+19   3.13446670E+05   1.45743129E+05   1.89665429E+07   0.2997248       
  57               6.13121862E-01   3.49398870E+00   511.90227443     1.93500413E-04   4.94379298E+19   2.96050610E+05   1.63139146E+05   1.87225914E+07   0.29958936      
  58               7.25365844E-01   4.00493558E+00   533.16223664     2.12970022E-04   5.44079037E+19   2.82069651E+05   1.77120248E+05   1.84708905E+07   0.29945765      
  59               8.58158289E-01   4.58558879E+00   555.32247496     2.34116746E-04   5.98102608E+19   2.68413958E+05   1.90776018E+05   1.82108498E+07   0.29929962      
  60               1.01526100E+00   5.24462764E+00   577.98055330     2.57266971E-04   6.57244972E+19   2.54582596E+05   2.04614151E+05   1.79423136E+07   0.29915168      
  61               1.20112443E+00   5.99076407E+00   601.55180233     2.82352573E-04   7.21331709E+19   2.40652343E+05   2.18538477E+05   1.76654727E+07   0.2989788       
  62               1.42101382E+00   6.83256036E+00   625.54230521     3.09677247E-04   7.91138702E+19   2.27329242E+05   2.31865823E+05   1.73807930E+07   0.29878875      
  63               1.68115827E+00   7.77992214E+00   650.40457034     3.39136150E-04   8.66398130E+19   2.15525431E+05   2.43669742E+05   1.70884624E+07   0.29851826      
  64               1.98892727E+00   8.84719019E+00   675.70490430     3.71219339E-04   9.48361974E+19   2.05502731E+05   2.53692020E+05   1.67876671E+07   0.29821273      
  65               2.35303941E+00   1.00487730E+01   701.98265445     4.05853015E-04   1.03684179E+20   1.96752029E+05   2.62443747E+05   1.64781005E+07   0.29781473      
  66               2.78380943E+00   1.13988704E+01   728.67453159     4.43516844E-04   1.13306302E+20   1.88902224E+05   2.70292689E+05   1.61598819E+07   0.29739279      
  67               3.29344035E+00   1.29117300E+01   756.31729241     4.84018577E-04   1.23653452E+20   1.81932378E+05   2.77263856E+05   1.58333598E+07   0.29686704      
  68               3.89636920E+00   1.46030362E+01   784.27978096     5.27902224E-04   1.34864604E+20   1.76096294E+05   2.83097917E+05   1.54987686E+07   0.29631827      
  69               4.60967600E+00   1.64977519E+01   813.28790094     5.75125059E-04   1.46928585E+20   1.72127614E+05   2.87067389E+05   1.51549048E+07   0.29563884      
  70               5.45356761E+00   1.86256605E+01   842.77335947     6.26589236E-04   1.60076185E+20   1.70391504E+05   2.88801558E+05   1.48004340E+07   0.29494204      
  71               6.45195012E+00   2.10137190E+01   873.44654321     6.82103150E-04   1.74257882E+20   1.71104410E+05   2.88086210E+05   1.44351516E+07   0.29411457      
  72               7.63310614E+00   2.36850945E+01   904.49392850     7.42429067E-04   1.89668542E+20   1.74343841E+05   2.84845546E+05   1.40597615E+07   0.29328612      
  73               9.03049593E+00   2.66581394E+01   936.57103801     8.07001283E-04   2.06165006E+20   1.79596100E+05   2.79649673E+05   1.36756680E+07   0.29229935      
  74               1.06837053E+01   2.99509149E+01   968.72659020     8.76584513E-04   2.23941566E+20   1.86324733E+05   2.72904557E+05   1.32841713E+07   0.29106657      
  75               1.26395671E+01   3.35976659E+01   1001.81358212    9.50839831E-04   2.42911475E+20   1.93821492E+05   2.65388712E+05   1.28847276E+07   0.29000548      
  76               1.49534878E+01   3.76409713E+01   1035.10523942    1.03100968E-03   2.63391742E+20   2.00762190E+05   2.58441279E+05   1.24763596E+07   0.28870526      
  77               1.76910170E+01   4.21182119E+01   1069.36628305    1.11669151E-03   2.85278655E+20   2.05803935E+05   2.53392242E+05   1.20590939E+07   0.28756774      
  78               2.09297047E+01   4.70609743E+01   1103.77010783    1.20887900E-03   3.08821925E+20   2.09879253E+05   2.49315471E+05   1.16336791E+07   0.28619612      
  79               2.47612977E+01   5.25010684E+01   1138.97703245    1.30693256E-03   3.33871243E+20   2.15647628E+05   2.43543046E+05   1.12008779E+07   0.28498521      
  80               2.92943389E+01   5.84786063E+01   1174.25668490    1.41199609E-03   3.60711354E+20   2.22286154E+05   2.36903650E+05   1.07608512E+07   0.28355925      
  81               3.46572422E+01   6.50406992E+01   1210.29386341    1.52367922E-03   3.89242461E+20   2.28541517E+05   2.30647536E+05   1.03134688E+07   0.28229807      
  82               4.10019301E+01   7.22671747E+01   1246.57579025    1.64369625E-03   4.19902275E+20   2.34372802E+05   2.24831520E+05   9.85683398E+06   0.28082068      
  83               4.85081376E+01   8.02279364E+01   1283.76331180    1.77190523E-03   4.52654145E+20   2.39320381E+05   2.19874200E+05   9.39036403E+06   0.2795025       
  84               5.73885036E+01   8.89804207E+01   1321.21256707    1.90951564E-03   4.87806517E+20   2.42620014E+05   2.16573329E+05   8.91453643E+06   0.27799488      
  85               6.78945948E+01   9.85705402E+01   1359.38882127    2.05592669E-03   5.25205520E+20   2.44009928E+05   2.15183914E+05   8.43052144E+06   0.27665315      
  86               8.03240320E+01   1.09038652E+02   1397.64640446    2.21202937E-03   5.65078786E+20   2.43284399E+05   2.15927361E+05   7.93964816E+06   0.27509116      
  87               9.50289215E+01   1.20452941E+02   1436.46803546    2.37756768E-03   6.07361534E+20   2.40947130E+05   2.18242573E+05   7.44192558E+06   0.27369403      
  88               1.12425830E+02   1.32897805E+02   1475.42743382    2.55395968E-03   6.52417786E+20   2.36934391E+05   2.22258217E+05   6.93689570E+06   0.27214066      
  89               1.33007583E+02   1.46489070E+02   1515.04179440    2.74154474E-03   7.00335996E+20   2.31743259E+05   2.27455660E+05   6.42325939E+06   0.27077776      
  90               1.57357229E+02   1.61302635E+02   1554.87928284    2.94143486E-03   7.51399022E+20   2.25072131E+05   2.34135786E+05   5.90160475E+06   0.26925315      
  91               1.86164557E+02   1.77379300E+02   1595.14050009    3.15293796E-03   8.05433770E+20   2.17327996E+05   2.41898256E+05   5.37369556E+06   0.26792366      
  92               2.20245630E+02   1.94733343E+02   1635.35684084    3.37631677E-03   8.62489122E+20   2.08314194E+05   2.50934407E+05   4.84180389E+06   0.26640537      
  93               2.60565913E+02   2.13366086E+02   1675.60111138    3.61042072E-03   9.22317799E+20   1.98413218E+05   2.60879455E+05   4.30812877E+06   0.26508515      
  94               3.08267614E+02   2.33248155E+02   1715.49459514    3.85700096E-03   9.84815106E+20   1.87803658E+05   2.71535550E+05   3.77526660E+06   0.26357039      
  95               3.64702046E+02   2.54427793E+02   1755.16416912    4.11209614E-03   1.04995974E+21   1.77617404E+05   2.81808812E+05   3.24344888E+06   0.26227445      
  96               4.31467909E+02   2.77048997E+02   1794.69776783    4.37909596E-03   1.11812691E+21   1.67427454E+05   2.92082665E+05   2.71036719E+06   0.26077026      
  97               5.10456573E+02   3.01191049E+02   1834.11407742    4.65835717E-03   1.18943731E+21   1.58273866E+05   3.01390071E+05   2.17584416E+06   0.25950351      
  98               6.03905660E+02   3.27221797E+02   1873.91421121    4.95351314E-03   1.26478982E+21   1.48736515E+05   3.11063532E+05   1.63394966E+06   0.25798962      
  99               7.14462436E+02   3.54946752E+02   1913.49117366    5.26237181E-03   1.34357707E+21   1.37511987E+05   3.22683204E+05   1.09091696E+06   0.25672893      
  100              8.45258798E+02   3.84230289E+02   1952.79381196    5.58246214E-03   1.42515154E+21   1.27358170E+05   3.33128850E+05   5.50632228E+05   0.25519857      
  101              1.00000000E+03   4.15892634E+02   1992.45594730    5.92307226E-03   1.51188354E+21   1.22890279E+05   3.36334015E+05   0.00000000E+00   0.25392352      
