# ATMO pressure-temperature profile
# Effective temperature = 250.0K
# log(g) = 4.5cm/s^2
# M/H = 0.0
# Optical depth grid in band 17 (1.20-1.33microns)
# All parameters in cgs units
#
# Model Level      Optical Depth    Pressure         Temperature      Density          Number Density   Rad Flux         Conv Flux        Radial Extension Adiabatic Gradient
#                                   [Ba]             [K]              [g/cm^3]         [/cm^3]          [ergs/s/cm^2/sr] [ergs/s/cm^2/sr] [cm]             [K/Ba]          
  1                5.00000000E-05   1.00000000E-05   27.62713895      1.02623706E-08   2.62174186E+15   2.21419061E+05   0.00000000E+00   6.67572007E+06   0.34581668      
  2                5.91534807E-05   2.38728283E-04   34.94347039      1.93696351E-07   4.94838725E+16   2.21419061E+05   0.00000000E+00   6.51348852E+06   0.31479384      
  3                6.99826855E-05   5.07760754E-04   38.79426254      3.71086560E-07   9.48019933E+16   2.21419061E+05   0.00000000E+00   6.48175587E+06   0.31482179      
  4                8.27943887E-05   8.24560661E-04   41.73066332      5.60210079E-07   1.43117639E+17   2.21419061E+05   0.00000000E+00   6.45978375E+06   0.31484104      
  5                9.79515255E-05   1.19760149E-03   43.65021075      7.77874578E-07   1.98724688E+17   2.21419061E+05   0.00000000E+00   6.44191369E+06   0.31485655      
  6                1.15883473E-04   1.63667718E-03   45.82639309      1.01258373E-06   2.58686157E+17   2.21419061E+05   0.00000000E+00   6.42626892E+06   0.31487003      
  7                1.37098216E-04   2.15338505E-03   47.32602894      1.29004607E-06   3.29569845E+17   2.21419061E+05   0.00000000E+00   6.41197251E+06   0.31488229      
  8                1.62196734E-04   2.76108830E-03   49.29959848      1.58789034E-06   4.05660529E+17   2.21419061E+05   0.00000000E+00   6.39854552E+06   0.31489375      
  9                1.91890027E-04   3.47533536E-03   50.69186527      1.94375731E-06   4.96574355E+17   2.21419061E+05   0.00000000E+00   6.38568918E+06   0.31490471      
  10               2.27019260E-04   4.31449955E-03   52.63035555      2.32422258E-06   5.93772341E+17   2.21419061E+05   0.00000000E+00   6.37320422E+06   0.31491534      
  11               2.68579588E-04   5.29954590E-03   54.02681670      2.78107608E-06   7.10485335E+17   2.21419061E+05   0.00000000E+00   6.36095210E+06   0.31492577      
  12               3.17748350E-04   6.45450910E-03   56.05923201      3.26437215E-06   8.33953649E+17   2.21419061E+05   0.00000000E+00   6.34883045E+06   0.31493612      
  13               3.75918418E-04   7.80782696E-03   57.53959467      3.84721956E-06   9.82854478E+17   2.21419061E+05   0.00000000E+00   6.33675435E+06   0.31494645      
  14               4.44737657E-04   9.39216169E-03   59.70890840      4.45974492E-06   1.13933718E+18   2.21419061E+05   0.00000000E+00   6.32465900E+06   0.31495685      
  15               5.26155608E-04   1.12447337E-02   61.34833160      5.19672828E-06   1.32761533E+18   2.21419061E+05   0.00000000E+00   6.31249000E+06   0.31496738      
  16               6.22478712E-04   1.34080916E-02   63.75868800      5.96226375E-06   1.52318774E+18   2.21419061E+05   0.00000000E+00   6.30019983E+06   0.31497808      
  17               7.36435649E-04   1.59317851E-02   65.62452617      6.88306465E-06   1.75842601E+18   2.21419061E+05   0.00000000E+00   6.28774207E+06   0.31498903      
  18               8.71254639E-04   1.88733263E-02   68.32656297      7.83145508E-06   2.00071263E+18   2.21419061E+05   0.00000000E+00   6.27507247E+06   0.31500027      
  19               1.03075489E-03   2.22994450E-02   70.53258580      8.96371078E-06   2.28997155E+18   2.21419061E+05   0.00000000E+00   6.26214132E+06   0.31501187      
  20               1.21945479E-03   2.62842954E-02   73.73734986      1.01063050E-05   2.58187168E+18   2.21419061E+05   0.00000000E+00   6.24890181E+06   0.31502389      
  21               1.44269991E-03   3.09061473E-02   76.53212787      1.14494511E-05   2.92500707E+18   2.21419061E+05   0.00000000E+00   6.23531469E+06   0.31503639      
  22               1.70681442E-03   3.62584141E-02   80.53615432      1.27644323E-05   3.26094712E+18   2.21418098E+05   0.00000000E+00   6.22131415E+06   0.31504946      
  23               2.01928028E-03   4.24538940E-02   84.36177614      1.42677471E-05   3.64500104E+18   2.21411131E+05   7.93806596E+00   6.20679649E+06   0.31506316      
  24               2.38894914E-03   4.96323560E-02   88.91021805      1.58269344E-05   4.04332876E+18   2.21396188E+05   2.28790662E+01   6.19169029E+06   0.31507755      
  25               2.82629313E-03   5.79566353E-02   93.05499443      1.76582257E-05   4.51117128E+18   2.21373303E+05   4.57635517E+01   6.17594413E+06   0.31509272      
  26               3.34370152E-03   6.76170916E-02   98.00900953      1.95602352E-05   4.99708027E+18   2.21341640E+05   7.74256765E+01   6.15950658E+06   0.31510879      
  27               3.95583167E-03   7.88366750E-02   102.52886938     2.18004618E-05   5.56939436E+18   2.21301778E+05   1.17287573E+02   6.14232525E+06   0.31512593      
  28               4.68002425E-03   9.18761942E-02   107.95032354     2.41302893E-05   6.16459981E+18   2.21257208E+05   1.61857486E+02   6.12434699E+06   0.31514431      
  29               5.53679448E-03   1.07040204E-01   112.90241664     2.68798493E-05   6.86703927E+18   2.21214323E+05   2.04743042E+02   6.10551834E+06   0.31516417      
  30               6.55041330E-03   1.24677465E-01   118.85296319     2.97412920E-05   7.59807873E+18   2.21180820E+05   2.38246182E+02   6.08579239E+06   0.31518572      
  31               7.74959494E-03   1.45197203E-01   124.29035574     3.31205857E-05   8.46148639E+18   2.21164865E+05   2.54201141E+02   6.06511752E+06   0.31768193      
  32               9.16831029E-03   1.69078805E-01   130.93017532     3.66091303E-05   9.35352390E+18   2.21170203E+05   2.48863647E+02   6.04342950E+06   0.32066935      
  33               1.08467493E-02   1.96888504E-01   137.04079312     4.07337253E-05   1.04062999E+19   2.21200773E+05   2.18295211E+02   6.02065628E+06   0.32314901      
  34               1.28324595E-02   2.29284324E-01   144.47330288     4.49956803E-05   1.14950960E+19   2.21258712E+05   1.60358226E+02   5.99672717E+06   0.32488597      
  35               1.51816929E-02   2.67019709E-01   151.30028741     5.00365811E-05   1.27829004E+19   2.21341943E+05   7.71349680E+01   5.97157824E+06   0.32614643      
  36               1.79609996E-02   3.10981893E-01   159.57196521     5.52538532E-05   1.41157627E+19   2.21418388E+05   6.43424306E+02   5.94513868E+06   0.32546994      
  37               2.12491128E-02   3.62216823E-01   167.08606846     6.14628119E-05   1.57019726E+19   2.21424233E+05   0.00000000E+00   5.91733652E+06   0.32509728      
  38               2.51391797E-02   4.21978922E-01   175.47217390     6.81814915E-05   1.74184033E+19   2.21414751E+05   0.00000000E+00   5.88814300E+06   0.32484484      
  39               2.97413996E-02   4.91711670E-01   184.40343292     7.56006090E-05   1.93137833E+19   2.21188644E+05   2.30536956E+02   5.85742868E+06   0.32416727      
  40               3.51861462E-02   5.73090133E-01   193.77624124     8.38504449E-05   2.14214194E+19   2.20632972E+05   7.86151687E+02   5.82510699E+06   0.32302327      
  41               4.16276604E-02   6.67758723E-01   203.56435893     9.30032249E-05   2.37598485E+19   2.19774676E+05   1.64441420E+03   5.79120663E+06   0.32114443      
  42               4.92484201E-02   7.77631742E-01   213.73152861     1.03151788E-04   2.63530707E+19   2.18155653E+05   3.26341469E+03   5.75573316E+06   0.31901987      
  43               5.82643093E-02   9.04959723E-01   224.29288626     1.14382467E-04   2.92239954E+19   2.15085675E+05   6.33337812E+03   5.71866460E+06   0.31685194      
  44               6.89307339E-02   1.05255493E+00   235.24772482     1.26772129E-04   3.24074738E+19   2.10322313E+05   1.10967404E+04   5.67990488E+06   0.314859        
  45               8.15498567E-02   1.22398806E+00   246.66565798     1.40687316E-04   3.59413455E+19   2.04308738E+05   1.71103278E+04   5.63931148E+06   0.31277673      
  46               9.64791575E-02   1.42342192E+00   258.53960520     1.56095946E-04   3.98779117E+19   1.97686834E+05   2.37322466E+04   5.59675403E+06   0.3109178       
  47               1.14141560E-01   1.65535426E+00   270.94079594     1.73222254E-04   4.42529664E+19   1.90834946E+05   3.05841408E+04   5.55215108E+06   0.30912969      
  48               1.35037411E-01   1.92467967E+00   283.81206533     1.92271422E-04   4.91194441E+19   1.83908729E+05   3.75103541E+04   5.50548319E+06   0.30760277      
  49               1.59758657E-01   2.23699399E+00   297.23566670     2.13378681E-04   5.45117011E+19   1.77228393E+05   4.41906867E+04   5.45672372E+06   0.30615411      
  50               1.89005613E-01   2.59868738E+00   311.13732301     2.36804012E-04   6.04961541E+19   1.71397905E+05   5.00211715E+04   5.40584097E+06   0.30492744      
  51               2.23606798E-01   3.01677046E+00   325.61486998     2.62678885E-04   6.71063900E+19   1.66841710E+05   5.45773674E+04   5.35283126E+06   0.30380853      
  52               2.64542408E-01   3.49887050E+00   340.56210904     2.91285366E-04   7.44144680E+19   1.63955025E+05   5.74640576E+04   5.29771683E+06   0.30293421      
  53               3.12972084E-01   4.05405839E+00   356.11088072     3.22769049E-04   8.24575821E+19   1.63156678E+05   5.82624148E+04   5.24045903E+06   0.30219073      
  54               3.70267763E-01   4.69340301E+00   372.17213554     3.57545324E-04   9.13418562E+19   1.64455596E+05   5.69635067E+04   5.18094443E+06   0.30160196      
  55               4.38052539E-01   5.42845584E+00   388.88779837     3.95766837E-04   1.01106210E+20   1.67352368E+05   5.40667460E+04   5.11915226E+06   0.3010913       
  56               5.18246648E-01   6.27081443E+00   406.09914301     4.37803551E-04   1.11845294E+20   1.71085521E+05   5.03335921E+04   5.05515849E+06   0.30073607      
  57               6.13121862E-01   7.23161579E+00   423.91986275     4.83658670E-04   1.23559863E+20   1.74718510E+05   4.67005993E+04   4.98913105E+06   0.30047769      
  58               7.25365844E-01   8.32417848E+00   442.17696379     5.33743578E-04   1.36355013E+20   1.77158844E+05   4.42602552E+04   4.92113079E+06   0.30027112      
  59               8.58158289E-01   9.56436439E+00   461.04461673     5.88166587E-04   1.50258482E+20   1.77094634E+05   4.43244490E+04   4.85113527E+06   0.30006906      
  60               1.01526100E+00   1.09678055E+01   480.32802528     6.47402833E-04   1.65389393E+20   1.73074990E+05   4.83440709E+04   4.77921381E+06   0.29989187      
  61               1.20112443E+00   1.25501544E+01   500.18206426     7.11401076E-04   1.81738438E+20   1.63272029E+05   5.81470086E+04   4.70548148E+06   0.29975681      
  62               1.42101382E+00   1.43276873E+01   520.38724305     7.80629896E-04   1.99423022E+20   1.49425289E+05   7.19937337E+04   4.63005252E+06   0.29961572      
  63               1.68115827E+00   1.63224890E+01   541.15974324     8.55178236E-04   2.18467451E+20   1.38506743E+05   8.29122746E+04   4.55284692E+06   0.29947923      
  64               1.98892727E+00   1.85651435E+01   562.37336189     9.35982970E-04   2.39110920E+20   1.31347791E+05   9.00712227E+04   4.47357852E+06   0.2993152       
  65               2.35303941E+00   2.10841471E+01   584.25209721     1.02325310E-03   2.61385563E+20   1.25028504E+05   9.63905046E+04   4.39218114E+06   0.29914128      
  66               2.78380943E+00   2.39052364E+01   606.55321068     1.11751005E-03   2.85463099E+20   1.18927152E+05   1.02491857E+05   4.30875549E+06   0.29893586      
  67               3.29344035E+00   2.70507230E+01   629.43660315     1.21858035E-03   3.11281079E+20   1.13164510E+05   1.08254513E+05   4.22351714E+06   0.29872919      
  68               3.89636920E+00   3.05422747E+01   652.61373117     1.32700465E-03   3.38977609E+20   1.08103986E+05   1.13315048E+05   4.13669007E+06   0.29847843      
  69               4.60967600E+00   3.44234631E+01   676.38730921     1.44306656E-03   3.68625139E+20   1.03662916E+05   1.17756121E+05   4.04799789E+06   0.2981984       
  70               5.45356761E+00   3.87447016E+01   700.58911543     1.56810874E-03   4.00566637E+20   9.93496391E+04   1.22069401E+05   3.95715792E+06   0.2978162       
  71               6.45195012E+00   4.35523258E+01   725.46993256     1.70223356E-03   4.34828272E+20   9.48723672E+04   1.26546670E+05   3.86410439E+06   0.29739686      
  72               7.63310614E+00   4.88900137E+01   750.76292561     1.84647965E-03   4.71675350E+20   9.00240499E+04   1.31394989E+05   3.76889685E+06   0.29689312      
  73               9.03049593E+00   5.48021283E+01   776.68556387     2.00068790E-03   5.11067227E+20   8.49835783E+04   1.36435498E+05   3.67162640E+06   0.29638875      
  74               1.06837053E+01   6.13414377E+01   802.98446070     2.16607777E-03   5.53315262E+20   8.02152795E+04   1.41203822E+05   3.57229074E+06   0.29568524      
  75               1.26395671E+01   6.86002617E+01   830.00926505     2.34352763E-03   5.98644052E+20   7.64595709E+04   1.44959512E+05   3.47040949E+06   0.29503342      
  76               1.49534878E+01   7.66858482E+01   857.65766017     2.53529864E-03   6.47630203E+20   7.38930807E+04   1.47525780E+05   3.36551273E+06   0.29421909      
  77               1.76910170E+01   8.56852275E+01   886.13254275     2.74179850E-03   7.00378987E+20   7.25864468E+04   1.48832498E+05   3.25757325E+06   0.29335646      
  78               2.09297047E+01   9.56611806E+01   915.12879243     2.96403739E-03   7.57145519E+20   7.23861912E+04   1.49033203E+05   3.14691212E+06   0.29232146      
  79               2.47612977E+01   1.06650910E+02   944.68358401     3.20118579E-03   8.17718903E+20   7.30743734E+04   1.48344903E+05   3.03409104E+06   0.29132758      
  80               2.92943389E+01   1.18687324E+02   974.47449285     3.45355594E-03   8.82185065E+20   7.41168116E+04   1.47303238E+05   2.91961663E+06   0.29016618      
  81               3.46572422E+01   1.31830969E+02   1004.60887315    3.72094385E-03   9.50487207E+20   7.51964111E+04   1.46223771E+05   2.80367055E+06   0.2890877       
  82               4.10019301E+01   1.46237930E+02   1035.08956207    4.00603799E-03   1.02331171E+21   7.60535372E+04   1.45366839E+05   2.68566884E+06   0.2878434       
  83               4.85081376E+01   1.62049175E+02   1066.09582377    4.31006994E-03   1.10097237E+21   7.63942421E+04   1.45026244E+05   2.56534091E+06   0.28668637      
  84               5.73885036E+01   1.79383773E+02   1097.52303693    4.63452236E-03   1.18384637E+21   7.61508172E+04   1.45269765E+05   2.44269043E+06   0.28534472      
  85               6.78945948E+01   1.98342690E+02   1129.38177432    4.97982770E-03   1.27204145E+21   7.54277296E+04   1.45992746E+05   2.31789344E+06   0.2841056       
  86               8.03240320E+01   2.19004621E+02   1161.54788432    5.34645036E-03   1.36565815E+21   7.47348558E+04   1.46685669E+05   2.19126485E+06   0.28269419      
  87               9.50289215E+01   2.41457623E+02   1193.96020693    5.73456022E-03   1.46479520E+21   7.50498811E+04   1.46370656E+05   2.06303427E+06   0.28142338      
  88               1.12425830E+02   2.65870328E+02   1226.69795289    6.14583593E-03   1.56984968E+21   7.60648109E+04   1.45355732E+05   1.93299475E+06   0.27998301      
  89               1.33007583E+02   2.92548106E+02   1259.87722030    6.58441963E-03   1.68187961E+21   7.73036139E+04   1.44116885E+05   1.80037737E+06   0.27868306      
  90               1.57357229E+02   3.21768548E+02   1293.69871385    7.05275186E-03   1.80150837E+21   7.84921751E+04   1.42928637E+05   1.66478078E+06   0.2772077       
  91               1.86164557E+02   3.53764644E+02   1328.01387558    7.55370005E-03   1.92946832E+21   7.95258688E+04   1.41894831E+05   1.52615696E+06   0.27582848      
  92               2.20245630E+02   3.88729360E+02   1362.94930555    8.08751998E-03   2.06582477E+21   8.01918323E+04   1.41228893E+05   1.38469408E+06   0.27432129      
  93               2.60565913E+02   4.26842184E+02   1398.21615090    8.65646545E-03   2.21115333E+21   8.05889626E+04   1.40831687E+05   1.24065074E+06   0.27287854      
  94               3.08267614E+02   4.68358553E+02   1434.04925754    9.26108501E-03   2.36559409E+21   8.07141455E+04   1.40706718E+05   1.09402231E+06   0.27135913      
  95               3.64702046E+02   5.13468637E+02   1470.11043819    9.90401607E-03   2.52982104E+21   7.97797973E+04   1.41641143E+05   9.45073485E+05   0.26991179      
  96               4.31467909E+02   5.61465040E+02   1505.97608782    1.05718737E-02   2.70041482E+21   7.80696845E+04   1.43351225E+05   7.96744127E+05   0.26842584      
  97               5.10456573E+02   6.13241548E+02   1541.87914151    1.12779022E-02   2.88076000E+21   7.67204746E+04   1.44700402E+05   6.46795436E+05   0.26703693      
  98               6.03905660E+02   6.69707238E+02   1578.56704490    1.20301021E-02   3.07289556E+21   7.56095215E+04   1.45811196E+05   4.93497617E+05   0.26558823      
  99               7.14462436E+02   7.31835889E+02   1616.00524501    1.28415627E-02   3.28017321E+21   7.46695338E+04   1.46750974E+05   3.35427996E+05   0.26419885      
  100              8.45258798E+02   8.00715861E+02   1654.86713507    1.37203201E-02   3.50462165E+21   7.28217231E+04   1.48598695E+05   1.71330364E+05   0.26270573      
  101              1.00000000E+03   8.77608196E+02   1694.98877178    1.46802478E-02   3.75024538E+21   7.12178709E+04   1.50201260E+05   0.00000000E+00   0.26125336      
