# ATMO pressure-temperature profile
# Effective temperature = 400.0K
# log(g) = 3.5cm/s^2
# M/H = 0.0
# Optical depth grid in band 17 (1.20-1.33microns)
# All parameters in cgs units
#
# Model Level      Optical Depth    Pressure         Temperature      Density          Number Density   Rad Flux         Conv Flux        Radial Extension Adiabatic Gradient
#                                   [Ba]             [K]              [g/cm^3]         [/cm^3]          [ergs/s/cm^2/sr] [ergs/s/cm^2/sr] [cm]             [K/Ba]          
  1                5.00000000E-05   1.00000000E-05   51.30432214      5.52183455E-09   1.41179580E+15   1.45139626E+06   0.00000000E+00   9.17243237E+07   0.34574469      
  2                5.91534807E-05   9.07793591E-05   64.17759234      4.00720016E-08   1.02454145E+16   1.45139626E+06   0.00000000E+00   9.00070553E+07   0.34574466      
  3                6.99826855E-05   1.86195628E-04   73.85304816      7.14230509E-08   1.82610983E+16   1.45139626E+06   0.00000000E+00   8.94430506E+07   0.31479474      
  4                8.27943887E-05   2.96320670E-04   79.71492879      1.05307579E-07   2.69245296E+16   1.45139626E+06   0.00000000E+00   8.90415030E+07   0.31481058      
  5                9.79515255E-05   4.21122941E-04   86.07206409      1.38606637E-07   3.54382708E+16   1.45139626E+06   0.00000000E+00   8.87148394E+07   0.31482354      
  6                1.15883473E-04   5.63283529E-04   90.45813386      1.76407389E-07   4.51029832E+16   1.45139626E+06   0.00000000E+00   8.84273454E+07   0.31483479      
  7                1.37098216E-04   7.26308988E-04   96.23817368      2.13801816E-07   5.46638084E+16   1.45139626E+06   0.00000000E+00   8.81618902E+07   0.31484492      
  8                1.62196734E-04   9.13992517E-04   100.24709429     2.58289422E-07   6.60384219E+16   1.45139626E+06   0.00000000E+00   8.79093286E+07   0.31485429      
  9                1.91890027E-04   1.13065948E-03   105.98552390     3.02216895E-07   7.72700364E+16   1.45139626E+06   0.00000000E+00   8.76640950E+07   0.31486314      
  10               2.27019260E-04   1.38123859E-03   110.04703381     3.55533915E-07   9.09109515E+16   1.45139626E+06   0.00000000E+00   8.74223570E+07   0.31487166      
  11               2.68579588E-04   1.67155093E-03   116.03164102     4.08113170E-07   1.04344369E+17   1.45139626E+06   0.00000000E+00   8.71813472E+07   0.31487995      
  12               3.17748350E-04   2.00830694E-03   120.19943898     4.73331521E-07   1.21018980E+17   1.45139626E+06   0.00000000E+00   8.69390534E+07   0.31488809      
  13               3.75918418E-04   2.39916519E-03   126.52976016     5.37161956E-07   1.37338818E+17   1.45139626E+06   0.00000000E+00   8.66939305E+07   0.31707094      
  14               4.44737657E-04   2.85286721E-03   131.03427881     6.16785865E-07   1.57696652E+17   1.45139626E+06   0.00000000E+00   8.64446714E+07   0.32019398      
  15               5.26155608E-04   3.37972888E-03   137.83527649     6.94639152E-07   1.77601783E+17   1.45139626E+06   0.00000000E+00   8.61901351E+07   0.32196497      
  16               6.22478712E-04   3.99177888E-03   142.67698426     7.92593176E-07   2.02646167E+17   1.45139626E+06   0.00000000E+00   8.59292904E+07   0.32393471      
  17               7.36435649E-04   4.70298648E-03   149.99913955     8.88224456E-07   2.27096689E+17   1.45139626E+06   0.00000000E+00   8.56612440E+07   0.32492047      
  18               8.71254639E-04   5.52939356E-03   155.35081981     1.00832754E-06   2.57804084E+17   1.45139626E+06   0.00000000E+00   8.53851024E+07   0.32576611      
  19               1.03075489E-03   6.48985451E-03   163.32138324     1.12571754E-06   2.87817868E+17   1.45139626E+06   0.00000000E+00   8.51000241E+07   0.32598535      
  20               1.21945479E-03   7.60662178E-03   169.14392869     1.27400681E-06   3.25732617E+17   1.45139626E+06   0.00000000E+00   8.48051327E+07   0.32580424      
  21               1.44269991E-03   8.90551865E-03   177.59818473     1.42054569E-06   3.63200581E+17   1.45139626E+06   0.00000000E+00   8.44998085E+07   0.32536649      
  22               1.70681442E-03   1.04156910E-02   183.91388703     1.60420367E-06   4.10203540E+17   1.45139626E+06   0.00000000E+00   8.41834576E+07   0.32437933      
  23               2.01928028E-03   1.21706273E-02   192.97104703     1.78672878E-06   4.56821619E+17   1.45139626E+06   0.00000000E+00   8.38556626E+07   0.32344826      
  24               2.38894914E-03   1.42073184E-02   200.23967799     2.00872482E-06   5.13910883E+17   1.45139626E+06   0.00000000E+00   8.35156965E+07   0.3219342       
  25               2.82629313E-03   1.65714997E-02   209.72554568     2.23845706E-06   5.72316570E+17   1.45139626E+06   0.00000000E+00   8.31631258E+07   0.32101363      
  26               3.34370152E-03   1.93153454E-02   217.13886201     2.52002885E-06   6.44303902E+17   1.45139626E+06   0.00000000E+00   8.27977982E+07   0.31905406      
  27               3.95583167E-03   2.24987529E-02   226.49375497     2.81412125E-06   7.19495452E+17   1.45139626E+06   0.00000000E+00   8.24197753E+07   0.31762316      
  28               4.68002425E-03   2.61924844E-02   233.72916256     3.17471232E-06   8.11688943E+17   1.45139626E+06   0.00000000E+00   8.20289869E+07   0.31566626      
  29               5.53679448E-03   3.04798934E-02   242.77286739     3.55675449E-06   9.09366887E+17   1.45139626E+06   0.00000000E+00   8.16255126E+07   0.31426585      
  30               6.55041330E-03   3.54577118E-02   249.78361872     4.02149310E-06   1.02818815E+18   1.45139626E+06   0.00000000E+00   8.12092970E+07   0.31251547      
  31               7.74959494E-03   4.12383923E-02   258.71329833     4.51568424E-06   1.15453955E+18   1.45139626E+06   0.00000000E+00   8.07803303E+07   0.31129512      
  32               9.16831029E-03   4.79497894E-02   265.90457687     5.10859512E-06   1.30613098E+18   1.45139626E+06   0.00000000E+00   8.03384543E+07   0.30978102      
  33               1.08467493E-02   5.57392447E-02   275.21236964     5.73764564E-06   1.46696235E+18   1.45139626E+06   0.00000000E+00   7.98834773E+07   0.30872601      
  34               1.28324595E-02   6.47750803E-02   282.92949887     6.48590110E-06   1.65827124E+18   1.45139626E+06   0.00000000E+00   7.94150779E+07   0.30749492      
  35               1.51816929E-02   7.52516910E-02   292.88122132     7.27889290E-06   1.86101801E+18   1.45139626E+06   0.00000000E+00   7.89329048E+07   0.30663987      
  36               1.79609996E-02   8.73911505E-02   301.43710114     8.21318008E-06   2.09989022E+18   1.45139626E+06   0.00000000E+00   7.84364142E+07   0.30562005      
  37               2.12491128E-02   1.01447222E-01   312.43703578     9.19852609E-06   2.35181681E+18   1.45139626E+06   0.00000000E+00   7.79250278E+07   0.30489296      
  38               2.51391797E-02   1.17708875E-01   322.14010046     1.03515412E-05   2.64661190E+18   1.45139626E+06   0.00000000E+00   7.73980370E+07   0.30405909      
  39               2.97413996E-02   1.36508022E-01   334.38753276     1.15650815E-05   2.95688162E+18   1.45139626E+06   0.00000000E+00   7.68547100E+07   0.30344787      
  40               3.51861462E-02   1.58212300E-01   345.77408652     1.29624889E-05   3.31416129E+18   1.45139626E+06   0.00000000E+00   7.62941440E+07   0.30274051      
  41               4.16276604E-02   1.83229160E-01   360.50277978     1.43988102E-05   3.68138987E+18   1.45139626E+06   0.00000000E+00   7.57150816E+07   0.302211        
  42               4.92484201E-02   2.11970715E-01   376.55180033     1.59474634E-05   4.07734045E+18   1.44420085E+06   7.19541096E+03   7.51152890E+07   0.30168142      
  43               5.82643093E-02   2.44942263E-01   393.49704892     1.76346371E-05   4.50866623E+18   1.42774700E+06   2.36492625E+04   7.44935447E+07   0.30129207      
  44               6.89307339E-02   2.82720577E-01   410.68713201     1.95025159E-05   4.98622835E+18   1.40197504E+06   4.94212221E+04   7.38493547E+07   0.30085881      
  45               8.15498567E-02   3.25934913E-01   428.81364215     2.15331022E-05   5.50539051E+18   1.36556832E+06   8.58279360E+04   7.31825030E+07   0.30056695      
  46               9.64791575E-02   3.75317283E-01   447.19169701     2.37765658E-05   6.07897940E+18   1.31753501E+06   1.33861250E+05   7.24923521E+07   0.30024342      
  47               1.14141560E-01   4.31688612E-01   466.56359984     2.62122387E-05   6.70170920E+18   1.25755901E+06   1.93837250E+05   7.17782970E+07   0.30005368      
  48               1.35037411E-01   4.95972717E-01   486.20422376     2.88991329E-05   7.38864667E+18   1.18843878E+06   2.62957481E+05   7.10396960E+07   0.29989871      
  49               1.59758657E-01   5.69190465E-01   506.90385517     3.18135704E-05   8.13313277E+18   1.11635462E+06   3.35041640E+05   7.02760769E+07   0.29979003      
  50               1.89005613E-01   6.52501353E-01   527.87566274     3.50211390E-05   8.95314496E+18   1.04841811E+06   4.02978147E+05   6.94867981E+07   0.29962332      
  51               2.23606798E-01   7.47261642E-01   549.97941220     3.84951878E-05   9.84129153E+18   9.85451466E+05   4.65944792E+05   6.86706706E+07   0.29949136      
  52               2.64542408E-01   8.54956940E-01   572.37627580     4.23196776E-05   1.08190333E+19   9.28202467E+05   5.23193791E+05   6.78269040E+07   0.29935612      
  53               3.12972084E-01   9.77269420E-01   595.98411570     4.64578081E-05   1.18769647E+19   8.76874292E+05   5.74521966E+05   6.69545952E+07   0.29926503      
  54               3.70267763E-01   1.11603917E+00   619.89465162     5.10081848E-05   1.30402942E+19   8.31279128E+05   6.20117130E+05   6.60531371E+07   0.2990769       
  55               4.38052539E-01   1.27327353E+00   645.06214806     5.59239188E-05   1.42970354E+19   7.91932243E+05   6.59464014E+05   6.51221820E+07   0.29886888      
  56               5.18246648E-01   1.45136084E+00   670.53013126     6.13244502E-05   1.56777214E+19   7.58765072E+05   6.92631186E+05   6.41605314E+07   0.2985758       
  57               6.13121862E-01   1.65278514E+00   697.31537110     6.71526047E-05   1.71677350E+19   7.31391914E+05   7.20004343E+05   6.31679558E+07   0.29836001      
  58               7.25365844E-01   1.88022277E+00   724.37700967     7.35393229E-05   1.88005472E+19   7.09433970E+05   7.41962288E+05   6.21444952E+07   0.29802278      
  59               8.58158289E-01   2.13678204E+00   752.78744755     8.04196718E-05   2.05595543E+19   6.93529164E+05   7.57867094E+05   6.10895091E+07   0.2976781       
  60               1.01526100E+00   2.42582799E+00   781.45401941     8.79489997E-05   2.24844575E+19   6.84065561E+05   7.67330696E+05   6.00026571E+07   0.2970848       
  61               1.20112443E+00   2.75159516E+00   811.52133197     9.60640798E-05   2.45589863E+19   6.82601332E+05   7.68794925E+05   5.88818992E+07   0.29658432      
  62               1.42101382E+00   3.11843829E+00   841.88814917     1.04944937E-04   2.68292540E+19   6.88974390E+05   7.62421868E+05   5.77265329E+07   0.29586578      
  63               1.68115827E+00   3.53069948E+00   873.64605702     1.14499509E-04   2.92719107E+19   7.04178944E+05   7.47217314E+05   5.65372370E+07   0.29529221      
  64               1.98892727E+00   3.99332295E+00   905.66647253     1.24923565E-04   3.19368430E+19   7.28149367E+05   7.23246891E+05   5.53140195E+07   0.29437574      
  65               2.35303941E+00   4.51158031E+00   939.02548027     1.36122461E-04   3.47998326E+19   7.61162300E+05   6.90233957E+05   5.40572418E+07   0.29351921      
  66               2.78380943E+00   5.09155943E+00   972.61198676     1.48317023E-04   3.79172681E+19   8.01666451E+05   6.49729808E+05   5.27664621E+07   0.29230704      
  67               3.29344035E+00   5.73991910E+00   1007.50266338    1.61414846E-04   4.12653381E+19   8.49060767E+05   6.02335490E+05   5.14413605E+07   0.29135162      
  68               3.89636920E+00   6.46332084E+00   1042.61808170    1.75640390E-04   4.49010299E+19   9.02275138E+05   5.49121119E+05   5.00827455E+07   0.28997211      
  69               4.60967600E+00   7.26875557E+00   1078.90756966    1.90883739E-04   4.87979597E+19   9.61676513E+05   4.89719745E+05   4.86917244E+07   0.2888283       
  70               5.45356761E+00   8.16556558E+00   1115.45043742    2.07409246E-04   5.30226992E+19   1.02502646E+06   4.26369801E+05   4.72664385E+07   0.287369        
  71               6.45195012E+00   9.16439024E+00   1153.20407857    2.25158478E-04   5.75603259E+19   1.08949841E+06   3.61897850E+05   4.58048298E+07   0.28606785      
  72               7.63310614E+00   1.02772107E+01   1191.31165814    2.44421503E-04   6.24849906E+19   1.15221161E+06   2.99205126E+05   4.43047606E+07   0.28451563      
  73               9.03049593E+00   1.15162067E+01   1230.64236284    2.65134331E-04   6.77802912E+19   1.20856931E+06   2.42843128E+05   4.27656590E+07   0.28302479      
  74               1.06837053E+01   1.28934186E+01   1270.28554500    2.87577822E-04   7.35178109E+19   1.25592297E+06   1.95480346E+05   4.11884466E+07   0.28148978      
  75               1.26395671E+01   1.44207464E+01   1311.07441602    3.11640328E-04   7.96684259E+19   1.29147559E+06   1.59926095E+05   3.95750994E+07   0.27997297      
  76               1.49534878E+01   1.61132348E+01   1352.09396952    3.37663060E-04   8.63180659E+19   1.31829907E+06   1.33104656E+05   3.79252004E+07   0.27839862      
  77               1.76910170E+01   1.79905510E+01   1394.34238475    3.65605806E-04   9.34546413E+19   1.33824028E+06   1.13156968E+05   3.62355775E+07   0.27691815      
  78               2.09297047E+01   2.00806079E+01   1437.07238593    3.95987514E-04   1.01210146E+20   1.35414707E+06   9.72491938E+04   3.44985264E+07   0.27530817      
  79               2.47612977E+01   2.24198826E+01   1481.44606175    4.28916502E-04   1.09615843E+20   1.36706051E+06   8.43357525E+04   3.27035550E+07   0.27375609      
  80               2.92943389E+01   2.50523451E+01   1526.78830966    4.65058323E-04   1.18848964E+20   1.37515136E+06   7.62448987E+04   3.08396369E+07   0.27209968      
  81               3.46572422E+01   2.80187674E+01   1574.08933258    5.04483536E-04   1.28927479E+20   1.37192796E+06   7.94683049E+04   2.89029396E+07   0.27050543      
  82               4.10019301E+01   3.13369171E+01   1622.08683093    5.47517125E-04   1.39929090E+20   1.35086773E+06   1.00532628E+05   2.69063908E+07   0.26881019      
  83               4.85081376E+01   3.50037799E+01   1671.14515068    5.93661236E-04   1.51714333E+20   1.30569928E+06   1.45707869E+05   2.48724590E+07   0.26722392      
  84               5.73885036E+01   3.89708654E+01   1719.39589442    6.42601155E-04   1.64168566E+20   1.23568331E+06   2.15740797E+05   2.28412574E+07   0.26548734      
  85               6.78945948E+01   4.31984632E+01   1767.12531699    6.93080535E-04   1.77062580E+20   1.14837255E+06   3.03086817E+05   2.08380056E+07   0.26396143      
  86               8.03240320E+01   4.76041331E+01   1812.65590400    7.44653906E-04   1.90219542E+20   1.03967636E+06   4.11863947E+05   1.88986913E+07   0.26232459      
  87               9.50289215E+01   5.20335777E+01   1855.52681077    7.95388340E-04   2.03115139E+20   9.14491802E+05   5.37226452E+05   1.70785994E+07   0.26098415      
  88               1.12425830E+02   5.62888463E+01   1893.69142587    8.43488460E-04   2.15297494E+20   8.15414005E+05   6.36666887E+05   1.54357102E+07   0.25961993      
  89               1.33007583E+02   6.08224607E+01   1932.25469176    8.93950834E-04   2.27995070E+20   7.28709397E+05   7.23043241E+05   1.37846447E+07   0.25867175      
  90               1.57357229E+02   6.51010021E+01   1966.29338135    9.40338512E-04   2.39808844E+20   6.23587545E+05   8.28347381E+05   1.23089294E+07   0.25743718      
  91               1.86164557E+02   6.89687255E+01   1995.80186205    9.81447776E-04   2.50299866E+20   5.60226596E+05   8.93917784E+05   1.10357776E+07   0.25636422      
  92               2.20245630E+02   7.32569730E+01   2026.70199784    1.02655362E-03   2.61809206E+20   5.33202425E+05   9.18517217E+05   9.68477651E+06   0.25525792      
  93               2.60565913E+02   7.80309501E+01   2059.69547705    1.07590415E-03   2.74403546E+20   4.77219832E+05   9.74661927E+05   8.24828562E+06   0.25461108      
  94               3.08267614E+02   8.21130300E+01   2086.45598500    1.11796213E-03   2.85055018E+20   3.94953364E+05   1.05644304E+06   7.07122940E+06   0.25362515      
  95               3.64702046E+02   8.53984094E+01   2107.36999848    1.15112777E-03   2.93518060E+20   3.49408545E+05   1.10265357E+06   6.15540880E+06   0.25283267      
  96               4.31467909E+02   8.90995494E+01   2129.98012881    1.18823855E-03   3.02988256E+20   3.33957879E+05   1.11815245E+06   5.15466671E+06   0.25159701      
  97               5.10456573E+02   9.32532232E+01   2154.54391247    1.22941891E-03   3.13497687E+20   3.18448675E+05   1.13294783E+06   4.06791359E+06   0.25066385      
  98               6.03905660E+02   9.79218868E+01   2180.99088485    1.27528885E-03   3.25200917E+20   3.03043279E+05   1.14835520E+06   2.88884654E+06   0.2495776       
  99               7.14462436E+02   1.03214440E+02   2209.81489561    1.32661308E-03   3.38306548E+20   2.67283743E+05   1.18411620E+06   1.60211226E+06   0.24904855      
  100              8.45258798E+02   1.07215395E+02   2230.80053386    1.36625949E-03   3.48114609E+20   2.15672507E+05   1.23572432E+06   6.62222249E+05   0.24804622      
  101              1.00000000E+03   1.10105268E+02   2245.52541791    1.39385259E-03   3.55153387E+20   1.92929849E+05   1.25885296E+06   0.00000000E+00   0.24735916      
