# ATMO pressure-temperature profile
# Effective temperature = 1500.0K
# log(g) = 4.5cm/s^2
# M/H = 0.0
# Optical depth grid in band 17 (1.20-1.33microns)
# All parameters in cgs units
#
# Model Level      Optical Depth    Pressure         Temperature      Density          Number Density   Rad Flux         Conv Flux        Radial Extension Adiabatic Gradient
#                                   [Ba]             [K]              [g/cm^3]         [/cm^3]          [ergs/s/cm^2/sr] [ergs/s/cm^2/sr] [cm]             [K/Ba]          
  1                5.00000000E-06   1.00000000E-05   432.51475440     6.55345201E-10   1.67465331E+14   2.87037302E+08   0.00000000E+00   2.15137560E+07   0.29783892      
  2                6.05313423E-06   1.17481383E-04   500.42976007     6.65421796E-09   1.70040260E+15   2.87037302E+08   0.00000000E+00   1.98861484E+07   0.29793534      
  3                7.32808679E-06   2.38439783E-04   527.75616334     1.28060932E-08   3.27243662E+15   2.87037302E+08   0.00000000E+00   1.94717871E+07   0.29786165      
  4                8.87157859E-06   3.79922427E-04   548.20881379     1.96435643E-08   5.01966526E+15   2.87037301E+08   0.00000000E+00   1.91896991E+07   0.29804227      
  5                1.07401712E-05   5.46986850E-04   563.29061603     2.75242734E-08   7.03347923E+15   2.87037301E+08   0.00000000E+00   1.89624951E+07   0.29791864      
  6                1.30023396E-05   7.45157634E-04   577.44919000     3.65768213E-08   9.34674121E+15   2.87037301E+08   0.00000000E+00   1.87649898E+07   0.29774902      
  7                1.57409813E-05   9.80790853E-04   588.97482101     4.72010212E-08   1.20616166E+16   2.87037301E+08   0.00000000E+00   1.85856578E+07   0.29764364      
  8                1.90564546E-05   1.26135425E-03   601.00453212     5.94882387E-08   1.52014554E+16   2.87037301E+08   0.00000000E+00   1.84182253E+07   0.29748071      
  9                2.30702555E-05   1.59567097E-03   611.16779722     7.40039637E-08   1.89107486E+16   2.87037301E+08   0.00000000E+00   1.82588889E+07   0.29738013      
  10               2.79294706E-05   1.99425004E-03   622.23061258     9.08448671E-08   2.32142189E+16   2.87037301E+08   0.00000000E+00   1.81051666E+07   0.29721461      
  11               3.38121669E-05   2.46977729E-03   631.53786384     1.10848723E-07   2.83259340E+16   2.87037300E+08   0.00000000E+00   1.79553155E+07   0.29711535      
  12               4.09339169E-05   3.03757284E-03   641.85854480     1.34140625E-07   3.42778215E+16   2.87037300E+08   0.00000000E+00   1.78080685E+07   0.29694503      
  13               4.95556987E-05   3.71589710E-03   650.66069369     1.61875858E-07   4.13651827E+16   2.87037300E+08   0.00000000E+00   1.76625004E+07   0.29684361      
  14               5.99934592E-05   4.52654121E-03   660.64335270     1.94210473E-07   4.96278258E+16   2.87037299E+08   0.00000000E+00   1.75179222E+07   0.2966639       
  15               7.26296922E-05   5.49546179E-03   669.21300315     2.32763656E-07   5.94792743E+16   2.87037299E+08   0.00000000E+00   1.73738120E+07   0.29655872      
  16               8.79274551E-05   6.65355233E-03   679.15655006     2.77689234E-07   7.09593328E+16   2.87037298E+08   0.00000000E+00   1.72297646E+07   0.29637009      
  17               1.06447338E-04   8.03754162E-03   687.82760196     3.31222474E-07   8.46387956E+16   2.87037298E+08   0.00000000E+00   1.70854556E+07   0.29625921      
  18               1.28868005E-04   9.69109518E-03   697.93389319     3.93581575E-07   1.00573696E+17   2.87037297E+08   0.00000000E+00   1.69406315E+07   0.29605629      
  19               1.56011066E-04   1.16660241E-02   706.78388554     4.67856137E-07   1.19553438E+17   2.87037296E+08   0.00000000E+00   1.67950929E+07   0.29593555      
  20               1.88871184E-04   1.40236522E-02   717.28487520     5.54175995E-07   1.41610449E+17   2.87037294E+08   0.00000000E+00   1.66486746E+07   0.29571503      
  21               2.28652526E-04   1.68363504E-02   726.69462603     6.56710907E-07   1.67811550E+17   2.87037293E+08   0.00000000E+00   1.65012357E+07   0.29558071      
  22               2.76812886E-04   2.01891857E-02   737.90866874     7.75522482E-07   1.98171880E+17   2.87037291E+08   0.00000000E+00   1.63526668E+07   0.2953368       
  23               3.35117111E-04   2.41818279E-02   748.11468468     9.16218558E-07   2.34124459E+17   2.87037288E+08   0.00000000E+00   1.62028834E+07   0.29518617      
  24               4.05701771E-04   2.89310956E-02   760.36657672     1.07849943E-06   2.75592695E+17   2.87037284E+08   0.00000000E+00   1.60517998E+07   0.29485804      
  25               4.91153455E-04   3.45767071E-02   771.68794025     1.27004723E-06   3.24539646E+17   2.87037280E+08   0.00000000E+00   1.58992572E+07   0.29470768      
  26               5.94603558E-04   4.12836933E-02   785.11068998     1.49047750E-06   3.80867129E+17   2.87037275E+08   0.00000000E+00   1.57451033E+07   0.29439919      
  27               7.19843029E-04   4.92441213E-02   797.72414687     1.74976340E-06   4.47123497E+17   2.87037268E+08   0.00000000E+00   1.55892255E+07   0.29419608      
  28               8.71461295E-04   5.86813738E-02   812.79317105     2.04643295E-06   5.22933021E+17   2.87037259E+08   0.00000000E+00   1.54315163E+07   0.29388582      
  29               1.05501444E-03   6.98543781E-02   827.16902286     2.39373621E-06   6.11681306E+17   2.87037248E+08   0.00000000E+00   1.52718795E+07   0.29366374      
  30               1.27722880E-03   8.30596878E-02   844.13126232     2.78905422E-06   7.12698999E+17   2.87037234E+08   0.00000000E+00   1.51102643E+07   0.29324156      
  31               1.54624747E-03   9.86323993E-02   860.60244905     3.24857860E-06   8.30123789E+17   2.87037217E+08   0.00000000E+00   1.49466621E+07   0.29284479      
  32               1.87192870E-03   1.16950258E-01   880.04132543     3.76681789E-06   9.62551463E+17   2.87037195E+08   0.00000000E+00   1.47810696E+07   0.29228829      
  33               2.26620714E-03   1.38434936E-01   899.23853144     4.36363350E-06   1.11505589E+18   2.87037169E+08   0.00000000E+00   1.46134913E+07   0.29189175      
  34               2.74353120E-03   1.63544026E-01   921.63556523     5.02991257E-06   1.28529051E+18   2.87037138E+08   0.00000000E+00   1.44440079E+07   0.29132972      
  35               3.32139252E-03   1.92793421E-01   943.95902971     5.78921051E-06   1.47932945E+18   2.87037103E+08   0.00000000E+00   1.42726015E+07   0.29080389      
  36               4.02096694E-03   2.26808276E-01   969.70122328     6.62972742E-06   1.69413024E+18   2.87037063E+08   0.00000000E+00   1.40989769E+07   0.29001873      
  37               4.86789053E-03   2.66279128E-01   995.67764872     7.58028210E-06   1.93706506E+18   2.87037021E+08   0.00000000E+00   1.39229066E+07   0.28935193      
  38               5.89319895E-03   3.11939965E-01   1025.20535891    8.62419860E-06   2.20387009E+18   2.87036973E+08   0.00000000E+00   1.37443229E+07   0.28852365      
  39               7.13446485E-03   3.64541760E-01   1055.17455862    9.79199967E-06   2.50235438E+18   2.87036927E+08   0.00000000E+00   1.35633116E+07   0.28779625      
  40               8.63717467E-03   4.24841806E-01   1088.83785125    1.10586628E-05   2.82611530E+18   2.87036884E+08   0.00000000E+00   1.33800672E+07   0.28678902      
  41               1.04563955E-02   4.93626650E-01   1122.98656787    1.24581178E-05   3.18383004E+18   2.87036855E+08   0.00000000E+00   1.31947501E+07   0.2858251       
  42               1.26587931E-02   5.71801071E-01   1160.68090440    1.39621370E-05   3.56827210E+18   2.87036838E+08   0.00000000E+00   1.30073100E+07   0.28456046      
  43               1.53250748E-02   6.60549858E-01   1198.72314259    1.56170387E-05   3.99128329E+18   2.87036842E+08   0.00000000E+00   1.28172515E+07   0.28330685      
  44               1.85529469E-02   7.61082672E-01   1240.14191274    1.73926780E-05   4.44514865E+18   2.87036860E+08   0.00000000E+00   1.26243545E+07   0.2817367       
  45               2.24606956E-02   8.74586392E-01   1281.71046846    1.93381048E-05   4.94240834E+18   2.87036899E+08   0.00000000E+00   1.24286413E+07   0.28023899      
  46               2.71915211E-02   1.00234596E+00   1326.35361401    2.14168710E-05   5.47373993E+18   2.87036955E+08   0.00000000E+00   1.22301193E+07   0.27865576      
  47               3.29187854E-02   1.14563688E+00   1370.90783097    2.36828648E-05   6.05291492E+18   2.87037031E+08   0.00000000E+00   1.20289213E+07   0.27732976      
  48               3.98523653E-02   1.30588993E+00   1418.32976436    2.60931372E-05   6.66891523E+18   2.87037123E+08   0.00000000E+00   1.18250636E+07   0.27563479      
  49               4.82463432E-02   1.48501963E+00   1465.77452123    2.87122156E-05   7.33822234E+18   2.87035907E+08   0.00000000E+00   1.16181100E+07   0.27396729      
  50               5.84083183E-02   1.68420018E+00   1517.01186204    3.14659733E-05   8.04137977E+18   2.86747724E+08   4.39330204E+05   1.14085537E+07   0.27208431      
  51               7.07106781E-02   1.90262238E+00   1568.01163711    3.44001282E-05   8.78879143E+18   2.85424840E+08   1.56078436E+06   1.11986034E+07   0.27037402      
  52               8.56042452E-02   2.13729634E+00   1617.95128371    3.74538358E-05   9.56808754E+18   2.82990531E+08   3.96734190E+06   1.09918549E+07   0.2684848       
  53               1.03634797E-01   2.37722861E+00   1664.62961680    4.04988084E-05   1.03437775E+19   2.79358493E+08   7.59569909E+06   1.07970372E+07   0.26652734      
  54               1.25463068E-01   2.61408424E+00   1707.16593672    4.34474515E-05   1.10909738E+19   2.74600800E+08   1.24172388E+07   1.06184704E+07   0.26486469      
  55               1.51888958E-01   2.83677418E+00   1744.40907449    4.61688197E-05   1.17788331E+19   2.69020904E+08   1.80781401E+07   1.04612320E+07   0.2634199       
  56               1.83880850E-01   3.02662607E+00   1774.35659898    4.84429770E-05   1.23550271E+19   2.63346499E+08   2.37399099E+07   1.03342782E+07   0.2620251       
  57               2.22611093E-01   3.17851143E+00   1797.18713970    5.02279907E-05   1.28102119E+19   2.58259360E+08   2.87717272E+07   1.02369076E+07   0.2607543       
  58               2.69498965E-01   3.35190244E+00   1822.22492625    5.22399948E-05   1.33234049E+19   2.52524819E+08   3.45391676E+07   1.01298661E+07   0.25956835      
  59               3.26262682E-01   3.54899372E+00   1849.36727255    5.44970508E-05   1.38997792E+19   2.45636404E+08   4.13582106E+07   1.00130562E+07   0.25875959      
  60               3.94982361E-01   3.69914230E+00   1869.30729026    5.62470757E-05   1.43332996E+19   2.39279838E+08   4.74291510E+07   9.92728534E+06   0.25816866      
  61               4.78176250E-01   3.80826295E+00   1883.34427898    5.74739664E-05   1.46461356E+19   2.34044102E+08   5.24104340E+07   9.86659473E+06   0.25748885      
  62               5.78893005E-01   3.93552529E+00   1899.36523465    5.88926099E-05   1.50079047E+19   2.28683534E+08   5.77695214E+07   9.79742214E+06   0.25670762      
  63               7.00823412E-01   4.08337332E+00   1917.37474812    6.05298409E-05   1.54254529E+19   2.22910013E+08   6.35912328E+07   9.71911516E+06   0.25583203      
  64               8.48435636E-01   4.25408358E+00   1937.57122000    6.24014112E-05   1.59028215E+19   2.16496956E+08   7.00594550E+07   9.63127809E+06   0.25482434      
  65               1.02713896E+00   4.45001835E+00   1959.85628657    6.45311962E-05   1.64461185E+19   2.09295562E+08   7.73292386E+07   9.53363767E+06   0.25368417      
  66               1.24348200E+00   4.67309771E+00   1984.30880190    6.69284724E-05   1.70577381E+19   2.01321600E+08   8.53841914E+07   9.42629574E+06   0.25236137      
  67               1.50539269E+00   4.92641345E+00   2010.81689220    6.96228893E-05   1.77453337E+19   1.92921272E+08   9.38591624E+07   9.30894628E+06   0.25087998      
  68               1.82246880E+00   5.21486751E+00   2039.68307098    7.26519948E-05   1.85185265E+19   1.84163940E+08   1.02681703E+08   9.18069039E+06   0.24921236      
  69               2.20632965E+00   5.54205304E+00   2070.70995954    7.60476022E-05   1.93855106E+19   1.74811490E+08   1.12097064E+08   9.04149394E+06   0.24736917      
  70               2.67104190E+00   5.91184052E+00   2103.97921756    7.98316206E-05   2.03520004E+19   1.64797590E+08   1.22168905E+08   8.89141397E+06   0.24529048      
  71               3.23363503E+00   6.32842496E+00   2139.22508491    8.40395128E-05   2.14271787E+19   1.54144757E+08   1.32872588E+08   8.73058111E+06   0.24304024      
  72               3.91472538E+00   6.79637704E+00   2176.51246794    8.86952652E-05   2.26173722E+19   1.42944979E+08   1.44114831E+08   8.55918120E+06   0.2405917       
  73               4.73927163E+00   7.32071815E+00   2215.53394686    9.38397036E-05   2.39332192E+19   1.31367724E+08   1.55725643E+08   8.37743228E+06   0.23791437      
  74               5.73748947E+00   7.90703188E+00   2256.33373081    9.95024064E-05   2.53825934E+19   1.19622682E+08   1.67494528E+08   8.18555581E+06   0.23492027      
  75               6.94595877E+00   8.56149656E+00   2298.55403855    1.05733521E-04   2.69786869E+19   1.07889077E+08   1.79241757E+08   7.98378182E+06   0.23173709      
  76               8.40896415E+00   9.29051036E+00   2342.25222426    1.12575080E-04   2.87297437E+19   9.64204066E+07   1.90714707E+08   7.77247011E+06   0.2283393       
  77               1.01801177E+01   1.01016449E+01   2387.05174069    1.20066035E-04   3.06518086E+19   8.56491499E+07   2.01481665E+08   7.55184011E+06   0.22482008      
  78               1.23243238E+01   1.10036651E+01   2433.10060976    1.28261175E-04   3.27569258E+19   7.57605931E+07   2.11358119E+08   7.32198091E+06   0.22113616      
  79               1.49201573E+01   1.20057801E+01   2479.98600160    1.37233580E-04   3.50644471E+19   6.66995504E+07   2.20401795E+08   7.08312089E+06   0.21737426      
  80               1.80627429E+01   1.31184428E+01   2527.88881887    1.47032742E-04   3.75880812E+19   5.85079919E+07   2.28572099E+08   6.83541833E+06   0.21349302      
  81               2.18672415E+01   1.43531390E+01   2576.37682496    1.57748981E-04   4.03518402E+19   5.12699187E+07   2.35786284E+08   6.57904409E+06   0.20955249      
  82               2.64730696E+01   1.57226601E+01   2625.67054400    1.69441057E-04   4.33722182E+19   4.49692495E+07   2.42062668E+08   6.31414455E+06   0.2056135       
  83               3.20490087E+01   1.72411995E+01   2675.36231324    1.82216068E-04   4.66778357E+19   3.94597080E+07   2.47547943E+08   6.04085134E+06   0.20167323      
  84               3.87993903E+01   1.89243447E+01   2725.68656310    1.96144677E-04   5.02887425E+19   3.46213080E+07   2.52362120E+08   5.75930760E+06   0.19771142      
  85               4.69715834E+01   2.07891339E+01   2776.20992857    2.11353170E-04   5.42387825E+19   3.03458040E+07   2.56614226E+08   5.46967776E+06   0.19387561      
  86               5.68650599E+01   2.28540621E+01   2827.25093526    2.27916186E-04   5.85497287E+19   2.65840297E+07   2.60354252E+08   5.17215540E+06   0.19023521      
  87               6.88423680E+01   2.51390701E+01   2878.39773858    2.45973404E-04   6.32592800E+19   2.32394385E+07   2.63679900E+08   4.86697059E+06   0.18674118      
  88               8.33424188E+01   2.76656210E+01   2929.95617667    2.65607340E-04   6.83919739E+19   2.02829975E+07   2.66621506E+08   4.55438344E+06   0.1833805       
  89               1.00896570E+02   3.04567315E+01   2981.49496615    2.86975147E-04   7.39903452E+19   1.76840073E+07   2.69211190E+08   4.23468377E+06   0.18024427      
  90               1.22148096E+02   3.35367724E+01   3033.38416060    3.10156359E-04   8.00791930E+19   1.54153067E+07   2.71476850E+08   3.90820751E+06   0.17719948      
  91               1.47875764E+02   3.69295388E+01   3085.07147155    3.35316001E-04   8.67030738E+19   1.34109797E+07   2.73488292E+08   3.57551416E+06   0.1743162       
  92               1.79022369E+02   4.06591018E+01   3136.95101983    3.62505871E-04   9.38806055E+19   1.16515233E+07   2.75271179E+08   3.23723044E+06   0.17164093      
  93               2.16729286E+02   4.47513116E+01   3188.50122028    3.91900160E-04   1.01658810E+20   1.00984303E+07   2.76866352E+08   2.89389361E+06   0.16922579      
  94               2.62378292E+02   4.92340505E+01   3240.20632505    4.23549064E-04   1.10057271E+20   8.73582038E+06   2.78290950E+08   2.54594772E+06   0.16693314      
  95               3.17642204E+02   5.41377521E+01   3291.48515679    4.57669126E-04   1.19133570E+20   7.53809916E+06   2.79570061E+08   2.19373580E+06   0.16484873      
  96               3.84546179E+02   5.94957231E+01   3342.93055618    4.94311102E-04   1.28909295E+20   6.50441816E+06   2.80702615E+08   1.83750445E+06   0.16297061      
  97               4.65541927E+02   6.53441311E+01   3393.97289090    5.33729441E-04   1.39451779E+20   5.61518013E+06   2.81703845E+08   1.47743650E+06   0.16129578      
  98               5.63597555E+02   7.17222615E+01   3445.24506442    5.75978225E-04   1.50785540E+20   4.85880857E+06   2.82579209E+08   1.11365767E+06   0.15974771      
  99               6.82306330E+02   7.86737006E+01   3496.13604816    6.21369356E-04   1.62992302E+20   4.20615844E+06   2.83349439E+08   7.46202661E+05   0.15837059      
  100              8.26018359E+02   8.62468881E+01   3547.35376345    6.69967337E-04   1.76102196E+20   3.64667836E+06   2.84015840E+08   3.75022753E+05   0.1571297       
  101              1.00000000E+03   9.44957137E+01   3598.26898744    7.22154102E-04   1.90214808E+20   3.37441293E+06   2.84360996E+08   0.00000000E+00   0.15601437      
