# ATMO pressure-temperature profile
# Effective temperature = 700.0K
# log(g) = 5.5cm/s^2
# M/H = 0.0
# Optical depth grid in band 17 (1.20-1.33microns)
# All parameters in cgs units
#
# Model Level      Optical Depth    Pressure         Temperature      Density          Number Density   Rad Flux         Conv Flux        Radial Extension Adiabatic Gradient
#                                   [Ba]             [K]              [g/cm^3]         [/cm^3]          [ergs/s/cm^2/sr] [ergs/s/cm^2/sr] [cm]             [K/Ba]          
  1                8.00000000E-07   1.00000000E-05   115.48339432     2.45460369E-09   6.27200360E+14   1.36132619E+07   0.00000000E+00   1.35637639E+06   0.34096067      
  2                9.86413681E-07   8.60547948E-05   138.79641850     1.75750854E-08   4.49078903E+15   1.36132619E+07   0.00000000E+00   1.31975902E+06   0.32661036      
  3                1.21626494E-06   1.75406499E-04   152.28603706     3.26501303E-08   8.34279236E+15   1.36132619E+07   0.00000000E+00   1.30796365E+06   0.32685603      
  4                1.49967547E-06   2.82599392E-04   162.81818193     4.91976378E-08   1.25717044E+16   1.36132619E+07   0.00000000E+00   1.29950597E+06   0.32270503      
  5                1.84912550E-06   4.12154783E-04   171.59693910     6.80849478E-08   1.73970915E+16   1.36132619E+07   0.00000000E+00   1.29242720E+06   0.32332865      
  6                2.28000336E-06   5.69419551E-04   178.53834171     9.03948628E-08   2.31007839E+16   1.36132619E+07   0.00000000E+00   1.28608800E+06   0.32015641      
  7                2.81128314E-06   7.60731205E-04   185.18836537     1.16376662E-07   2.97538639E+16   1.36132619E+07   0.00000000E+00   1.28018957E+06   0.32114118      
  8                3.46636019E-06   9.93685918E-04   191.06152014     1.47427961E-07   3.76705313E+16   1.36132619E+07   0.00000000E+00   1.27456553E+06   0.31804045      
  9                4.27408139E-06   1.27756337E-03   197.07866308     1.83758228E-07   4.69535770E+16   1.36132619E+07   0.00000000E+00   1.26911150E+06   0.31902624      
  10               5.27001545E-06   1.62374122E-03   202.63359074     2.27148214E-07   5.80405092E+16   1.36132619E+07   0.00000000E+00   1.26375327E+06   0.31604589      
  11               6.49801917E-06   2.04597860E-03   208.58697040     2.78046775E-07   7.10460195E+16   1.36132619E+07   0.00000000E+00   1.25844023E+06   0.3168881       
  12               8.01216876E-06   2.56097205E-03   214.12296113     3.39035793E-07   8.66298252E+16   1.36132619E+07   0.00000000E+00   1.25313603E+06   0.31409255      
  13               9.87914110E-06   3.18900538E-03   220.09139925     4.10729722E-07   1.04948931E+17   1.36132619E+07   0.00000000E+00   1.24781394E+06   0.31482322      
  14               1.21811499E-05   3.95479310E-03   225.67091191     4.96766311E-07   1.26932848E+17   1.36132619E+07   0.00000000E+00   1.24245284E+06   0.31228064      
  15               1.50195662E-05   4.88836354E-03   231.64176543     5.98205748E-07   1.52852473E+17   1.36132619E+07   0.00000000E+00   1.23703725E+06   0.31292858      
  16               1.85193820E-05   6.02610329E-03   237.27642158     7.19922818E-07   1.83953403E+17   1.36132619E+07   0.00000000E+00   1.23155480E+06   0.31061347      
  17               2.28347147E-05   7.41233794E-03   243.45165022     8.63070833E-07   2.20530330E+17   1.36132619E+07   0.00000000E+00   1.22599357E+06   0.31117035      
  18               2.81555937E-05   9.10086745E-03   249.30732882     1.03478874E-06   2.64407386E+17   1.36132619E+07   0.00000000E+00   1.22034343E+06   0.30905196      
  19               3.47163285E-05   1.11567271E-02   255.73292714     1.23667082E-06   3.15991937E+17   1.36132619E+07   0.00000000E+00   1.21459643E+06   0.30950021      
  20               4.28058268E-05   1.36583976E-02   261.94038325     1.47809124E-06   3.77679255E+17   1.36132619E+07   0.00000000E+00   1.20874513E+06   0.30757974      
  21               5.27803164E-05   1.67011681E-02   268.79582197     1.76127952E-06   4.50039023E+17   1.36132619E+07   0.00000000E+00   1.20278159E+06   0.30790178      
  22               6.50790328E-05   2.04000700E-02   275.42248166     2.09959835E-06   5.36485650E+17   1.36132619E+07   0.00000000E+00   1.19669897E+06   0.30618809      
  23               8.02435604E-05   2.48940033E-02   282.64239290     2.49667144E-06   6.37945063E+17   1.36132619E+07   0.00000000E+00   1.19049203E+06   0.30645923      
  24               9.89416822E-05   3.03517462E-02   289.55857805     2.97133213E-06   7.59229522E+17   1.36132619E+07   0.00000000E+00   1.18415542E+06   0.30503029      
  25               1.21996786E-04   3.69785836E-02   296.98692064     3.52953019E-06   9.01859300E+17   1.36132619E+07   0.00000000E+00   1.17768441E+06   0.30514767      
  26               1.50424124E-04   4.50218725E-02   304.15222181     4.19600998E-06   1.07215704E+18   1.36132619E+07   0.00000000E+00   1.17107509E+06   0.30389575      
  27               1.85475517E-04   5.47792846E-02   311.92543799     4.97816761E-06   1.27201257E+18   1.36132619E+07   0.00000000E+00   1.16432387E+06   0.30396725      
  28               2.28694484E-04   6.66096009E-02   319.58584228     5.90817369E-06   1.50964607E+18   1.36132619E+07   0.00000000E+00   1.15742569E+06   0.30298728      
  29               2.81984210E-04   8.09450043E-02   327.96157116     6.99634225E-06   1.78769297E+18   1.36132619E+07   0.00000000E+00   1.15037474E+06   0.30302105      
  30               3.47691354E-04   9.83051346E-02   336.30234221     8.28610189E-06   2.11725004E+18   1.36132619E+07   0.00000000E+00   1.14316462E+06   0.30222651      
  31               4.28709385E-04   1.19314782E-01   345.42256984     9.79146104E-06   2.50189674E+18   1.36132619E+07   0.00000000E+00   1.13578864E+06   0.30223403      
  32               5.28606003E-04   1.44729353E-01   354.53373043     1.15718563E-05   2.95682008E+18   1.36132619E+07   0.00000000E+00   1.12823845E+06   0.30159834      
  33               6.51780242E-04   1.75458696E-01   364.48997819     1.36456198E-05   3.48670453E+18   1.36132619E+07   0.00000000E+00   1.12050533E+06   0.30154986      
  34               8.03656185E-04   2.12586425E-01   374.57823727     1.60878206E-05   4.11072881E+18   1.36132619E+07   0.00000000E+00   1.11258117E+06   0.30101424      
  35               9.90921819E-04   2.57404510E-01   385.69312450     1.89181421E-05   4.83392708E+18   1.36132619E+07   0.00000000E+00   1.10445725E+06   0.30099844      
  36               1.22182355E-03   3.11439548E-01   397.12576544     2.22305355E-05   5.68030343E+18   1.36132619E+07   0.00000000E+00   1.09612502E+06   0.30067033      
  37               1.50652933E-03   3.76488630E-01   409.65170815     2.60520151E-05   6.65676054E+18   1.36132619E+07   0.00000000E+00   1.08757739E+06   0.30062421      
  38               1.85757643E-03   4.54662973E-01   422.58532345     3.04985527E-05   7.79293435E+18   1.36132619E+07   0.00000000E+00   1.07880730E+06   0.30029019      
  39               2.29042351E-03   5.48498465E-01   436.76404291     3.55989191E-05   9.09608224E+18   1.36132619E+07   0.00000000E+00   1.06980175E+06   0.30022323      
  40               2.82413135E-03   6.60975533E-01   451.57754734     4.14917081E-05   1.06017823E+19   1.36132619E+07   0.00000000E+00   1.06054700E+06   0.30003965      
  41               3.48220225E-03   7.95527423E-01   467.91638183     4.81942387E-05   1.23143855E+19   1.36132619E+07   0.00000000E+00   1.05103193E+06   0.30000293      
  42               4.29361493E-03   9.56089124E-01   485.45079204     5.58295813E-05   1.42652374E+19   1.36132619E+07   0.00000000E+00   1.04124350E+06   0.29980641      
  43               5.29410063E-03   1.14731993E+00   504.77976949     6.44306326E-05   1.64629795E+19   1.36132619E+07   0.00000000E+00   1.03116074E+06   0.29973348      
  44               6.52771662E-03   1.37474065E+00   523.89565645     7.43909530E-05   1.90064854E+19   1.36132619E+07   0.00000000E+00   1.02077274E+06   0.29960253      
  45               8.04878622E-03   1.64462395E+00   545.97505858     8.53960729E-05   2.18182366E+19   1.36132619E+07   0.00000000E+00   1.01006502E+06   0.29954019      
  46               9.92429106E-03   1.96409299E+00   568.17536956     9.79994525E-05   2.50383371E+19   1.36132619E+07   0.00000000E+00   9.99021738E+05   0.29934217      
  47               1.22368206E-02   2.34176636E+00   593.34030491     1.11888013E-04   2.85868006E+19   1.36132619E+07   0.00000000E+00   9.87616280E+05   0.29921874      
  48               1.50882091E-02   2.78682701E+00   618.62697444     1.27709966E-04   3.26292429E+19   1.36132619E+07   0.00000000E+00   9.75842524E+05   0.2990028       
  49               1.86040198E-02   3.30909272E+00   646.73402776     1.45052930E-04   3.70603114E+19   1.36132619E+07   0.00000000E+00   9.63708192E+05   0.29885208      
  50               2.29390746E-02   3.92020522E+00   674.84952897     1.64681459E-04   4.20753457E+19   1.36132619E+07   0.00000000E+00   9.51204578E+05   0.29848855      
  51               2.82842712E-02   4.63504302E+00   705.53929082     1.86240802E-04   4.75837215E+19   1.36132619E+07   0.00000000E+00   9.38296911E+05   0.29821442      
  52               3.48749902E-02   5.46927810E+00   736.07626623     2.10643889E-04   5.38186788E+19   1.36132619E+07   0.00000000E+00   9.24977758E+05   0.29774646      
  53               4.30014593E-02   6.43908210E+00   769.06425638     2.37357194E-04   6.06439073E+19   1.36132619E+07   0.00000000E+00   9.11262362E+05   0.29737635      
  54               5.30215347E-02   7.56347364E+00   801.99825619     2.67355171E-04   6.83083372E+19   1.36132619E+07   0.00000000E+00   8.97147646E+05   0.29668512      
  55               6.53764590E-02   8.86949682E+00   837.72272780     3.00152144E-04   7.66874901E+19   1.36132619E+07   0.00000000E+00   8.82568353E+05   0.29612463      
  56               8.06102920E-02   1.03856671E+01   873.88617683     3.36918219E-04   8.60806163E+19   1.36132619E+07   0.00000000E+00   8.67491328E+05   0.29517966      
  57               9.93938685E-02   1.21381614E+01   913.11636422     3.76852320E-04   9.62836666E+19   1.36132619E+07   0.00000000E+00   8.51938521E+05   0.29439023      
  58               1.22554340E-01   1.41498427E+01   952.72729660     4.21043699E-04   1.07574378E+20   1.36132619E+07   0.00000000E+00   8.35968332E+05   0.29311556      
  59               1.51111597E-01   1.64509964E+01   995.03053383     4.68706082E-04   1.19751686E+20   1.36132619E+07   0.00000000E+00   8.19587653E+05   0.29206033      
  60               1.86323183E-01   1.90856201E+01   1037.21039584    5.21659605E-04   1.33280082E+20   1.36132619E+07   0.00000000E+00   8.02738616E+05   0.29049005      
  61               2.29739671E-01   2.20954845E+01   1081.26517087    5.79336862E-04   1.48012078E+20   1.36132619E+07   0.00000000E+00   7.85424953E+05   0.28919304      
  62               2.83272943E-01   2.55215051E+01   1124.10570279    6.43662658E-04   1.64446627E+20   1.36132619E+07   0.00000000E+00   7.67683252E+05   0.28738796      
  63               3.49280383E-01   2.94109180E+01   1167.83750622    7.13977763E-04   1.82411410E+20   1.36132619E+07   0.00000000E+00   7.49540105E+05   0.28599431      
  64               4.30668686E-01   3.38295569E+01   1209.81245487    7.92750272E-04   2.02536871E+20   1.36132619E+07   0.00000000E+00   7.30967278E+05   0.2841539       
  65               5.31021855E-01   3.88673553E+01   1252.40586677    8.79829228E-04   2.24784177E+20   1.36132619E+07   0.00000000E+00   7.11891887E+05   0.28280749      
  66               6.54759028E-01   4.46052499E+01   1293.07062630    9.77967589E-04   2.49855878E+20   1.36132619E+07   0.00000000E+00   6.92330878E+05   0.28100095      
  67               8.07329079E-01   5.11131134E+01   1334.56690557    1.08582056E-03   2.77407261E+20   1.36132619E+07   0.00000000E+00   6.72359987E+05   0.27970828      
  68               9.95450561E-01   5.84492085E+01   1374.52064347    1.20559614E-03   3.08001766E+20   1.36132619E+07   0.00000000E+00   6.52083840E+05   0.27795045      
  69               1.22740757E+00   6.66970931E+01   1416.10364070    1.33535456E-03   3.41143976E+20   1.36132619E+07   0.00000000E+00   6.31527583E+05   0.27669726      
  70               1.51341452E+00   7.60241507E+01   1457.12390610    1.47926962E-03   3.77903517E+20   1.36132619E+07   0.00000000E+00   6.10541884E+05   0.27488103      
  71               1.86606598E+00   8.65704526E+01   1500.97929902    1.63527459E-03   4.17754200E+20   1.36132619E+07   0.00000000E+00   5.89099049E+05   0.27355029      
  72               2.30089127E+00   9.84312723E+01   1545.29916307    1.80598374E-03   4.61366831E+20   1.36132619E+07   0.00000000E+00   5.67273579E+05   0.27167577      
  73               2.83703828E+00   1.11645619E+02   1593.35183586    1.98663689E-03   5.07523132E+20   1.36132619E+07   0.00000000E+00   5.45212272E+05   0.27027201      
  74               3.49811672E+00   1.26184531E+02   1642.55694183    2.17802507E-03   5.56431262E+20   1.36132661E+07   0.00000000E+00   5.23109663E+05   0.26833557      
  75               4.31323774E+00   1.41994761E+02   1696.76159407    2.37377273E-03   6.06146126E+20   1.31110646E+07   5.02197028E+05   5.01118453E+05   0.2667955       
  76               5.31829590E+00   1.59134453E+02   1747.43993098    2.58312235E-03   6.59610863E+20   1.22613383E+07   1.35192333E+06   4.79230046E+05   0.2648198       
  77               6.55754979E+00   1.77720290E+02   1800.65881155    2.79950144E-03   7.14877160E+20   1.13390970E+07   2.27416475E+06   4.57373969E+05   0.26335592      
  78               8.08557104E+00   1.97760598E+02   1850.36177136    3.03151012E-03   7.74121197E+20   1.03118145E+07   3.30144729E+06   4.35620070E+05   0.26141589      
  79               9.96964736E+00   2.19051570E+02   1901.82466126    3.26736079E-03   8.34260604E+20   9.19732579E+06   4.41593589E+06   4.14226939E+05   0.26001843      
  80               1.22927457E+01   2.41096164E+02   1948.19044727    3.51140844E-03   8.96364669E+20   8.23602699E+06   5.37723466E+06   3.93645754E+05   0.25814265      
  81               1.51571657E+01   2.65359370E+02   1998.34612333    3.76976777E-03   9.61810589E+20   7.38072494E+06   6.23262409E+06   3.72556324E+05   0.25690712      
  82               1.86890445E+01   2.90254674E+02   2043.31496099    4.03635849E-03   1.02889190E+21   6.33872979E+06   7.27475356E+06   3.52373235E+05   0.25501959      
  83               2.30439114E+01   3.15084577E+02   2087.82143771    4.28806989E-03   1.09309934E+21   5.68485384E+06   7.92865319E+06   3.33499827E+05   0.2538418       
  84               2.84135369E+01   3.43318746E+02   2132.28406610    4.57467554E-03   1.16621412E+21   4.97812558E+06   8.63554499E+06   3.13341030E+05   0.25205717      
  85               3.50343769E+01   3.69161329E+02   2172.86207638    4.82835342E-03   1.23058008E+21   3.99863136E+06   9.61524214E+06   2.95951913E+05   0.25090925      
  86               4.31979859E+01   3.90648721E+02   2202.51213458    5.04043657E-03   1.28467696E+21   3.40816976E+06   1.02055287E+07   2.82178214E+05   0.24914395      
  87               5.32638553E+01   4.15693400E+02   2238.08863417    5.27814465E-03   1.34530788E+21   3.23324538E+06   1.03806338E+07   2.66823520E+05   0.24844462      
  88               6.56752445E+01   4.44864444E+02   2274.78769466    5.55722864E-03   1.41648723E+21   3.00579607E+06   1.06084999E+07   2.49790854E+05   0.24672427      
  89               8.09786996E+01   4.78706821E+02   2317.39806245    5.86951777E-03   1.49621779E+21   2.57584294E+06   1.10374188E+07   2.31052516E+05   0.24610919      
  90               9.98481215E+01   5.05652047E+02   2347.63453655    6.12602807E-03   1.56008090E+21   1.96300230E+06   1.16502595E+07   2.16840186E+05   0.2432581       
  91               1.23114441E+02   5.25723576E+02   2370.81847484    6.30662145E-03   1.60614589E+21   1.66433069E+06   1.19489310E+07   2.06628604E+05   0.24307187      
  92               1.51802212E+02   5.49560232E+02   2395.63605990    6.52404511E-03   1.66157633E+21   1.56522651E+06   1.20497736E+07   1.94877228E+05   0.24127365      
  93               1.87174723E+02   5.77955830E+02   2425.62489248    6.77600059E-03   1.72582536E+21   1.48593959E+06   1.21376070E+07   1.81371868E+05   0.24021614      
  94               2.30789634E+02   6.11656642E+02   2458.04078323    7.07617748E-03   1.80237208E+21   1.38579831E+06   1.22288842E+07   1.65981298E+05   0.23827359      
  95               2.84567566E+02   6.51501145E+02   2495.85171808    7.42245967E-03   1.89069834E+21   1.29580732E+06   1.23273801E+07   1.48595457E+05   0.23688207      
  96               3.50876675E+02   6.98422958E+02   2536.50704648    7.82890963E-03   1.99438167E+21   1.19386714E+06   1.24380256E+07   1.29130615E+05   0.23425176      
  97               4.32636941E+02   7.53475068E+02   2582.33551032    8.29534500E-03   2.11340173E+21   1.10644207E+06   1.25308900E+07   1.07527967E+05   0.23255304      
  98               5.33448747E+02   8.17802186E+02   2631.31535326    8.83500093E-03   2.25113327E+21   1.01468459E+06   1.26226341E+07   8.37664270E+04   0.22918843      
  99               6.57751428E+02   8.92644720E+02   2684.62230223    9.45083289E-03   2.40835934E+21   9.38625687E+05   1.27055346E+07   5.78657322E+04   0.22725565      
  100              8.11018759E+02   9.79263465E+02   2741.29623119    1.01520071E-02   2.58743484E+21   8.62346449E+05   1.27827689E+07   2.99015323E+04   0.22323061      
  101              1.00000000E+03   1.07894230E+03   2800.65404759    1.09463828E-02   2.79038800E+21   8.25456226E+05   1.27918146E+07   0.00000000E+00   0.2209924       
