# ATMO pressure-temperature profile
# Effective temperature = 1100.0K
# log(g) = 5.5cm/s^2
# M/H = 0.0
# Optical depth grid in band 17 (1.20-1.33microns)
# All parameters in cgs units
#
# Model Level      Optical Depth    Pressure         Temperature      Density          Number Density   Rad Flux         Conv Flux        Radial Extension Adiabatic Gradient
#                                   [Ba]             [K]              [g/cm^3]         [/cm^3]          [ergs/s/cm^2/sr] [ergs/s/cm^2/sr] [cm]             [K/Ba]          
  1                8.00000000E-07   1.00000000E-05   314.43224989     9.01034337E-10   2.30355590E+14   8.30127795E+07   0.00000000E+00   1.89079826E+06   0.30211573      
  2                9.86413681E-07   9.52734496E-05   342.94734569     7.87073349E-09   2.01219601E+15   8.30127795E+07   0.00000000E+00   1.78953876E+06   0.29974813      
  3                1.21626494E-06   1.96098873E-04   360.17124960     1.54254067E-08   3.94359125E+15   8.30127795E+07   0.00000000E+00   1.76060238E+06   0.30119873      
  4                1.49967547E-06   3.17876477E-04   366.38675256     2.45804471E-08   6.28411998E+15   8.30127795E+07   0.00000000E+00   1.74082566E+06   0.30080909      
  5                1.84912550E-06   4.65705038E-04   378.36910069     3.48711269E-08   8.91499519E+15   8.30127795E+07   0.00000000E+00   1.72485840E+06   0.30074672      
  6                2.28000336E-06   6.45389427E-04   383.06864970     4.77330786E-08   1.22031254E+16   8.30127795E+07   0.00000000E+00   1.71093106E+06   0.30049788      
  7                2.81128314E-06   8.64074550E-04   393.73585797     6.21756210E-08   1.58954228E+16   8.30127795E+07   0.00000000E+00   1.69823703E+06   0.30045915      
  8                3.46636019E-06   1.13029729E-03   398.01403351     8.04578672E-08   2.05693298E+16   8.30127795E+07   0.00000000E+00   1.68633419E+06   0.30027147      
  9                4.27408139E-06   1.45459265E-03   408.02056831     1.01002763E-07   2.58217203E+16   8.30127795E+07   0.00000000E+00   1.67495818E+06   0.30024048      
  10               5.27001545E-06   1.84965834E-03   412.06341619     1.27174979E-07   3.25127194E+16   8.30127795E+07   0.00000000E+00   1.66393513E+06   0.30009515      
  11               6.49801917E-06   2.33112760E-03   421.64608982     1.56636020E-07   4.00445861E+16   8.30127795E+07   0.00000000E+00   1.65314760E+06   0.30007024      
  12               8.01216876E-06   2.91803439E-03   425.43011742     1.94331784E-07   4.96807352E+16   8.30127795E+07   0.00000000E+00   1.64250979E+06   0.29995276      
  13               9.87914110E-06   3.63375281E-03   434.79282926     2.36785236E-07   6.05339268E+16   8.30127795E+07   0.00000000E+00   1.63195880E+06   0.29993354      
  14               1.21811499E-05   4.50658230E-03   438.55611127     2.91141428E-07   7.44299931E+16   8.30127795E+07   0.00000000E+00   1.62144644E+06   0.29983845      
  15               1.50195662E-05   5.57100446E-03   448.03012125     3.52296644E-07   9.00641870E+16   8.30127795E+07   0.00000000E+00   1.61093632E+06   0.29982458      
  16               1.85193820E-05   6.86819137E-03   452.45787436     4.30079758E-07   1.09948694E+17   8.30127795E+07   0.00000000E+00   1.60039793E+06   0.29975713      
  17               2.28347147E-05   8.44882332E-03   462.16228745     5.17946829E-07   1.32412067E+17   8.30127795E+07   0.00000000E+00   1.58980750E+06   0.29972808      
  18               2.81555937E-05   1.03755754E-02   466.04275189     6.30808070E-07   1.61254660E+17   8.30127795E+07   0.00000000E+00   1.57914796E+06   0.29967055      
  19               3.47163285E-05   1.27237131E-02   475.94517930     7.57473776E-07   1.93634517E+17   8.30127795E+07   0.00000000E+00   1.56840581E+06   0.29964372      
  20               4.28058268E-05   1.55842543E-02   480.08736464     9.19764532E-07   2.35121091E+17   8.30127795E+07   0.00000000E+00   1.55756839E+06   0.29959061      
  21               5.27803164E-05   1.90677322E-02   490.32691884     1.10185408E-06   2.81669061E+17   8.30127795E+07   0.00000000E+00   1.54662599E+06   0.29963689      
  22               6.50790328E-05   2.33076706E-02   494.67764893     1.33501949E-06   3.41273387E+17   8.30127795E+07   0.00000000E+00   1.53557111E+06   0.29959635      
  23               8.02435604E-05   2.84658620E-02   505.25776349     1.59632842E-06   4.08072364E+17   8.30127795E+07   0.00000000E+00   1.52439753E+06   0.29948954      
  24               9.89416822E-05   3.47373238E-02   510.01834144     1.92984178E-06   4.93328722E+17   8.30127795E+07   0.00000000E+00   1.51309835E+06   0.29938524      
  25               1.21996786E-04   4.23580134E-02   521.26368750     2.30244425E-06   5.88577899E+17   8.30127795E+07   0.00000000E+00   1.50166592E+06   0.29938647      
  26               1.50424124E-04   5.16112717E-02   526.69958838     2.77646887E-06   7.09753301E+17   8.30127795E+07   0.00000000E+00   1.49009271E+06   0.29938667      
  27               1.85475517E-04   6.28384066E-02   538.95898635     3.30354717E-06   8.44491506E+17   8.30127795E+07   0.00000000E+00   1.47836988E+06   0.29936731      
  28               2.28694484E-04   7.64464863E-02   545.45707622     3.97107582E-06   1.01513263E+18   8.30127795E+07   0.00000000E+00   1.46648890E+06   0.29930273      
  29               2.81984210E-04   9.29211413E-02   558.91992403     4.71059736E-06   1.20417826E+18   8.30127795E+07   0.00000000E+00   1.45444341E+06   0.29925987      
  30               3.47691354E-04   1.12838687E-01   566.53030644     5.64346763E-06   1.44264912E+18   8.30127795E+07   0.00000000E+00   1.44222753E+06   0.29918599      
  31               4.28709385E-04   1.36891402E-01   581.28341505     6.67266313E-06   1.70574489E+18   8.30127795E+07   0.00000000E+00   1.42983268E+06   0.29912085      
  32               5.28606003E-04   1.65891853E-01   590.27756435     7.96305695E-06   2.03561022E+18   8.30127795E+07   0.00000000E+00   1.41725167E+06   0.29902225      
  33               6.51780242E-04   2.00798445E-01   606.53985368     9.38019424E-06   2.39787667E+18   8.30127795E+07   0.00000000E+00   1.40447959E+06   0.29895111      
  34               8.03656185E-04   2.42728603E-01   617.22651368     1.11426179E-05   2.84840817E+18   8.30127795E+07   0.00000000E+00   1.39150998E+06   0.29884563      
  35               9.90921819E-04   2.93020110E-01   635.32478611     1.30680940E-05   3.34062301E+18   8.30127795E+07   0.00000000E+00   1.37833060E+06   0.29871491      
  36               1.22182355E-03   3.53262834E-01   647.98363160     1.54470131E-05   3.94875104E+18   8.30127795E+07   0.00000000E+00   1.36492223E+06   0.29853534      
  37               1.50652933E-03   4.25323842E-01   668.20880526     1.80350735E-05   4.61034445E+18   8.30127795E+07   0.00000000E+00   1.35126951E+06   0.29840203      
  38               1.85757643E-03   5.11376322E-01   683.25320277     2.12065126E-05   5.42106705E+18   8.30127795E+07   0.00000000E+00   1.33735494E+06   0.29822563      
  39               2.29042351E-03   6.13960830E-01   705.96841405     2.46414140E-05   6.29913961E+18   8.30127795E+07   0.00000000E+00   1.32316389E+06   0.29800727      
  40               2.82413135E-03   7.35905922E-01   723.83332280     2.88067211E-05   7.36392853E+18   8.30127795E+07   0.00000000E+00   1.30869003E+06   0.29768574      
  41               3.48220225E-03   8.80410532E-01   749.41517081     3.32869213E-05   8.50919719E+18   8.30127795E+07   0.00000000E+00   1.29393302E+06   0.29732914      
  42               4.29361493E-03   1.05116181E+00   770.59547493     3.86503821E-05   9.88027329E+18   8.30127795E+07   0.00000000E+00   1.27887908E+06   0.29690287      
  43               5.29410063E-03   1.25271706E+00   799.65685581     4.43876589E-05   1.13468461E+19   8.30127794E+07   0.00000000E+00   1.26349093E+06   0.29648275      
  44               6.52771662E-03   1.49006662E+00   824.72416389     5.11932018E-05   1.30864788E+19   8.30127795E+07   0.00000000E+00   1.24774560E+06   0.29595744      
  45               8.04878622E-03   1.76865758E+00   857.61137488     5.84343746E-05   1.49375395E+19   8.30127794E+07   0.00000000E+00   1.23163816E+06   0.29533566      
  46               9.92429106E-03   2.09463625E+00   886.74575754     6.69305893E-05   1.71094219E+19   8.30127794E+07   0.00000000E+00   1.21515491E+06   0.29456082      
  47               1.22368206E-02   2.47482381E+00   923.53701925     7.59286163E-05   1.94095656E+19   8.30127794E+07   0.00000000E+00   1.19829005E+06   0.29374329      
  48               1.50882091E-02   2.91627330E+00   956.58871877     8.63813163E-05   2.20815119E+19   8.30127793E+07   0.00000000E+00   1.18105277E+06   0.29284014      
  49               1.86040198E-02   3.42755484E+00   996.86615007     9.74248600E-05   2.49042463E+19   8.30127794E+07   0.00000000E+00   1.16342831E+06   0.29183842      
  50               2.29390746E-02   4.01839586E+00   1033.08851879    1.10216351E-04   2.81735142E+19   8.30127793E+07   0.00000000E+00   1.14539758E+06   0.29068367      
  51               2.82842712E-02   4.70104527E+00   1075.89251033    1.23809829E-04   3.16483731E+19   8.30127794E+07   0.00000000E+00   1.12691778E+06   0.28942727      
  52               3.48749902E-02   5.48848021E+00   1114.16648599    1.39582228E-04   3.56802469E+19   8.30127792E+07   0.00000000E+00   1.10797594E+06   0.28806714      
  53               4.30014593E-02   6.39493650E+00   1158.55903045    1.56402564E-04   3.99801030E+19   8.30127793E+07   0.00000000E+00   1.08857558E+06   0.286639        
  54               5.30215347E-02   7.43711917E+00   1198.13182500    1.75882871E-04   4.49599662E+19   8.30127792E+07   0.00000000E+00   1.06870501E+06   0.28514659      
  55               6.53764590E-02   8.63689053E+00   1243.85184421    1.96747427E-04   5.02938174E+19   8.30127792E+07   0.00000000E+00   1.04830961E+06   0.28360711      
  56               8.06102920E-02   1.00184130E+01   1284.73640929    2.20955236E-04   5.64820876E+19   8.30127792E+07   0.00000000E+00   1.02735636E+06   0.28202848      
  57               9.93938685E-02   1.16063062E+01   1331.82093502    2.46928337E-04   6.31210225E+19   8.30127792E+07   0.00000000E+00   1.00585906E+06   0.28039776      
  58               1.22554340E-01   1.34258181E+01   1373.85941627    2.76908924E-04   7.07822400E+19   8.30127791E+07   0.00000000E+00   9.83855085E+05   0.27876473      
  59               1.51111597E-01   1.55098851E+01   1422.03292673    3.09078244E-04   7.89995771E+19   8.30127794E+07   0.00000000E+00   9.61327748E+05   0.27709639      
  60               1.86323183E-01   1.79166720E+01   1464.94291249    3.46608199E-04   8.85854677E+19   8.30127788E+07   0.00000000E+00   9.38074378E+05   0.2753775       
  61               2.29739671E-01   2.07199477E+01   1514.04145305    3.87854891E-04   9.91235227E+19   8.30127796E+07   0.00000000E+00   9.13896657E+05   0.27356299      
  62               2.83272943E-01   2.39849556E+01   1557.70305419    4.36377654E-04   1.11527017E+20   8.30127789E+07   0.00000000E+00   8.88799675E+05   0.27173587      
  63               3.49280383E-01   2.77520183E+01   1607.88658106    4.89181880E-04   1.25015828E+20   8.30127791E+07   0.00000000E+00   8.63015785E+05   0.26979726      
  64               4.30668686E-01   3.20220497E+01   1652.80073462    5.49091814E-04   1.40331274E+20   8.30127794E+07   0.00000000E+00   8.36961657E+05   0.26782458      
  65               5.31021855E-01   3.67726230E+01   1704.85232985    6.11520352E-04   1.56229730E+20   8.30127789E+07   0.00000000E+00   8.11035067E+05   0.26558628      
  66               6.54759028E-01   4.19605258E+01   1752.57220677    6.78800688E-04   1.73416670E+20   8.30099636E+07   0.00000000E+00   7.85571524E+05   0.26396189      
  67               8.07329079E-01   4.74729760E+01   1808.99872762    7.44105675E-04   1.90078955E+20   8.26481505E+07   3.64711809E+05   7.61043391E+05   0.26175857      
  68               9.95450561E-01   5.30957134E+01   1863.94254913    8.08094643E-04   2.06325439E+20   7.76270235E+07   5.38608686E+06   7.38112608E+05   0.26035304      
  69               1.22740757E+00   5.85477384E+01   1910.50017186    8.70313554E-04   2.21967240E+20   7.06473745E+07   1.23654464E+07   7.17552622E+05   0.25834169      
  70               1.51341452E+00   6.37258156E+01   1953.92459748    9.26296613E-04   2.36229125E+20   6.32107788E+07   1.98020337E+07   6.99315240E+05   0.25732772      
  71               1.86606598E+00   6.84283081E+01   1988.72601387    9.77210775E-04   2.49222178E+20   5.65723872E+07   2.64404194E+07   6.83685216E+05   0.25554069      
  72               2.30089127E+00   7.37700022E+01   2028.38916445    1.03284770E-03   2.63423402E+20   4.98077331E+07   3.32050689E+07   6.66871364E+05   0.2547832       
  73               2.83703828E+00   7.83118342E+01   2058.27454456    1.08084599E-03   2.75581420E+20   4.26369953E+07   4.03758028E+07   6.53277262E+05   0.25313618      
  74               3.49811672E+00   8.19455096E+01   2083.07995478    1.11749780E-03   2.84934515E+20   3.74015580E+07   4.56200580E+07   6.42821849E+05   0.25256906      
  75               4.31323774E+00   8.61701781E+01   2108.59198085    1.16085836E-03   2.95999025E+20   3.39698062E+07   4.90546764E+07   6.31092336E+05   0.25122789      
  76               5.31829590E+00   9.10528456E+01   2138.96856902    1.20917038E-03   3.08329415E+20   3.11989649E+07   5.18138276E+07   6.18059941E+05   0.25105628      
  77               6.55754979E+00   9.67007732E+01   2170.52038749    1.26543034E-03   3.22694763E+20   2.72401466E+07   5.57726452E+07   6.03621295E+05   0.24978482      
  78               8.08557104E+00   1.01206536E+02   2196.20793235    1.30996982E-03   3.33780488E+20   2.26569069E+07   6.03558821E+07   5.92553435E+05   0.24967226      
  79               9.96964736E+00   1.04707371E+02   2214.06061249    1.34432222E-03   3.42541809E+20   1.99435669E+07   6.31121326E+07   5.84211067E+05   0.24832217      
  80               1.22927457E+01   1.08856206E+02   2236.30812385    1.38363895E-03   3.52571653E+20   1.88980707E+07   6.41556938E+07   5.74591327E+05   0.2479611       
  81               1.51571657E+01   1.13748658E+02   2260.00063752    1.43061606E-03   3.64555422E+20   1.78503858E+07   6.52996176E+07   5.63594841E+05   0.24635589      
  82               1.86890445E+01   1.19490031E+02   2288.25227224    1.48419980E-03   3.78227943E+20   1.69520168E+07   6.62919241E+07   5.51135120E+05   0.24576082      
  83               2.30439114E+01   1.26194553E+02   2318.41480115    1.54699680E-03   3.94253273E+20   1.58449783E+07   6.73332674E+07   5.37143200E+05   0.24379734      
  84               2.84135369E+01   1.33987217E+02   2353.03576517    1.61840849E-03   4.12439904E+20   1.48317587E+07   6.81810282E+07   5.21568789E+05   0.24255446      
  85               3.50343769E+01   1.43005626E+02   2389.81929649    1.70061694E-03   4.33424943E+20   1.37187440E+07   6.92940427E+07   5.04378495E+05   0.24061622      
  86               4.31979859E+01   1.53402626E+02   2430.91398439    1.79323810E-03   4.57076655E+20   1.26854016E+07   7.03273850E+07   4.85551254E+05   0.23896776      
  87               5.32638553E+01   1.65346950E+02   2474.17556828    1.89884472E-03   4.84051436E+20   1.15901801E+07   7.14226066E+07   4.65082147E+05   0.23684866      
  88               6.56752445E+01   1.79027882E+02   2521.50282957    2.01707456E-03   5.14265103E+20   1.05557458E+07   7.24570412E+07   4.42976088E+05   0.23484651      
  89               8.09786996E+01   1.94667197E+02   2570.87240775    2.15079705E-03   5.48451329E+20   9.51480018E+06   7.34979871E+07   4.19231833E+05   0.23249205      
  90               9.98481215E+01   2.12524144E+02   2624.08213949    2.30000167E-03   5.86619763E+20   8.54887918E+06   7.44639087E+07   3.93842851E+05   0.23019896      
  91               1.23114441E+02   2.32900560E+02   2679.21822129    2.46805769E-03   6.29634162E+20   7.60496674E+06   7.54078214E+07   3.66797774E+05   0.22754821      
  92               1.51802212E+02   2.56152165E+02   2737.97473162    2.65543406E-03   6.77632824E+20   6.76190963E+06   7.62508790E+07   3.38076073E+05   0.2249971       
  93               1.87174723E+02   2.82697129E+02   2798.60731445    2.86616362E-03   7.31653194E+20   5.99202890E+06   7.70207606E+07   3.07648532E+05   0.22212323      
  94               2.30789634E+02   3.13026711E+02   2862.68025823    3.10139626E-03   7.92016802E+20   5.31572419E+06   7.76970658E+07   2.75479289E+05   0.21933335      
  95               2.84567566E+02   3.47715326E+02   2928.60451633    3.36600001E-03   8.59981176E+20   4.69079541E+06   7.83219950E+07   2.41528083E+05   0.21651383      
  96               3.50876675E+02   3.87438795E+02   2997.96718828    3.66180333E-03   9.36056513E+20   4.12191217E+06   7.88908794E+07   2.05747514E+05   0.21355984      
  97               4.32636941E+02   4.32976371E+02   3069.02472770    3.99503537E-03   1.02185588E+21   3.58607645E+06   7.94267171E+07   1.68097325E+05   0.21045177      
  98               5.33448747E+02   4.85104640E+02   3143.21367168    4.36733073E-03   1.11785987E+21   3.08847460E+06   7.99243199E+07   1.28632448E+05   0.20739393      
  99               6.57751428E+02   5.44729762E+02   3218.70514241    4.78541616E-03   1.22581731E+21   2.62995457E+06   8.03828406E+07   8.73878013E+04   0.20439556      
  100              8.11018759E+02   6.12821009E+02   3297.00651758    5.25114918E-03   1.34629328E+21   2.25104480E+06   8.07617516E+07   4.44330521E+04   0.20148366      
  101              1.00000000E+03   6.90164425E+02   3375.88832608    5.77024696E-03   1.48077931E+21   2.06893620E+06   8.09438603E+07   0.00000000E+00   0.19892351      
