# ATMO pressure-temperature profile
# Effective temperature = 900.0K
# log(g) = 4.5cm/s^2
# M/H = 0.0
# Optical depth grid in band 17 (1.20-1.33microns)
# All parameters in cgs units
#
# Model Level      Optical Depth    Pressure         Temperature      Density          Number Density   Rad Flux         Conv Flux        Radial Extension Adiabatic Gradient
#                                   [Ba]             [K]              [g/cm^3]         [/cm^3]          [ergs/s/cm^2/sr] [ergs/s/cm^2/sr] [cm]             [K/Ba]          
  1                5.00000000E-05   1.00000000E-05   279.87747749     1.01235288E-09   2.58796196E+14   3.72000141E+07   0.00000000E+00   1.63449926E+07   0.30363577      
  2                5.91534807E-05   6.79449798E-04   322.72089611     5.96531940E-08   1.52495183E+16   3.72000141E+07   0.00000000E+00   1.36208163E+07   0.30182717      
  3                6.99826855E-05   1.42284657E-03   342.54045515     1.17692702E-07   3.00865258E+16   3.72000141E+07   0.00000000E+00   1.33402542E+07   0.30128742      
  4                8.27943887E-05   2.27447763E-03   356.29566278     1.80873348E-07   4.62377799E+16   3.72000141E+07   0.00000000E+00   1.31556722E+07   0.30084931      
  5                9.79515255E-05   3.25935507E-03   367.10870470     2.51559278E-07   6.43076785E+16   3.72000141E+07   0.00000000E+00   1.30096648E+07   0.30067881      
  6                1.15883473E-04   4.40253050E-03   377.30474818     3.30607876E-07   8.45154178E+16   3.72000141E+07   0.00000000E+00   1.28843114E+07   0.30044511      
  7                1.37098216E-04   5.73189940E-03   386.20599041     4.20518251E-07   1.07499240E+17   3.72000141E+07   0.00000000E+00   1.27715665E+07   0.30035165      
  8                1.62196734E-04   7.27965270E-03   395.10297784     5.22042037E-07   1.33452341E+17   3.72000141E+07   0.00000000E+00   1.26671049E+07   0.30019533      
  9                1.91890027E-04   9.08308117E-03   403.13362373     6.38394560E-07   1.63196189E+17   3.72000141E+07   0.00000000E+00   1.25683175E+07   0.30013669      
  10               2.27019260E-04   1.11853689E-02   411.42025524     7.70316963E-07   1.96920297E+17   3.72000141E+07   0.00000000E+00   1.24735165E+07   0.3000195       
  11               2.68579588E-04   1.36363322E-02   419.17012038     9.21747463E-07   2.35631362E+17   3.72000140E+07   0.00000000E+00   1.23815359E+07   0.29997623      
  12               3.17748350E-04   1.64942730E-02   427.42860098     1.09338747E-06   2.79508770E+17   3.72000140E+07   0.00000000E+00   1.22915115E+07   0.29988159      
  13               3.75918418E-04   1.98268158E-02   435.34169647     1.29040671E-06   3.29874350E+17   3.72000140E+07   0.00000000E+00   1.22027907E+07   0.29991528      
  14               4.44737657E-04   2.37115405E-02   444.01129914     1.51314475E-06   3.86804563E+17   3.72000140E+07   0.00000000E+00   1.21148766E+07   0.29984197      
  15               5.26155608E-04   2.82372405E-02   452.65577322     1.76753839E-06   4.51835166E+17   3.72000140E+07   0.00000000E+00   1.20273659E+07   0.29972729      
  16               6.22478712E-04   3.35044954E-02   462.47977331     2.05270893E-06   5.24730343E+17   3.72000140E+07   0.00000000E+00   1.19399205E+07   0.29960405      
  17               7.36435649E-04   3.96297619E-02   471.86066356     2.37971222E-06   6.08322008E+17   3.72000140E+07   0.00000000E+00   1.18522812E+07   0.29959342      
  18               8.71254639E-04   4.67565790E-02   480.98007336     2.75443255E-06   7.04111575E+17   3.72000140E+07   0.00000000E+00   1.17642539E+07   0.29958217      
  19               1.03075489E-03   5.50432613E-02   490.86172893     3.17731411E-06   8.12214661E+17   3.72000139E+07   0.00000000E+00   1.16756741E+07   0.29956805      
  20               1.21945479E-03   6.46714054E-02   500.70675370     3.65989829E-06   9.35523473E+17   3.72000139E+07   0.00000000E+00   1.15863886E+07   0.29949228      
  21               1.44269991E-03   7.58477219E-02   511.39429385     4.20268187E-06   1.07426766E+18   3.72000139E+07   0.00000000E+00   1.14962728E+07   0.29944985      
  22               1.70681442E-03   8.88097379E-02   522.09010261     4.82008486E-06   1.23208584E+18   3.72000138E+07   0.00000000E+00   1.14052014E+07   0.29938313      
  23               2.01928028E-03   1.03830236E-01   533.74855492     5.51221757E-06   1.40900641E+18   3.72000138E+07   0.00000000E+00   1.13130517E+07   0.29934313      
  24               2.38894914E-03   1.21222340E-01   545.56892823     6.29610473E-06   1.60938102E+18   3.72000137E+07   0.00000000E+00   1.12196934E+07   0.29925718      
  25               2.82629313E-03   1.41341395E-01   558.45275456     7.17168992E-06   1.83319547E+18   3.72000136E+07   0.00000000E+00   1.11250128E+07   0.2991933       
  26               3.34370152E-03   1.64585078E-01   571.61762141     8.15874005E-06   2.08550237E+18   3.72000135E+07   0.00000000E+00   1.10289218E+07   0.29908854      
  27               3.95583167E-03   1.91395707E-01   586.01377086     9.25469858E-06   2.36564847E+18   3.72000134E+07   0.00000000E+00   1.09313523E+07   0.29902351      
  28               4.68002425E-03   2.22264264E-01   600.88149991     1.04813783E-05   2.67920933E+18   3.72000132E+07   0.00000000E+00   1.08322403E+07   0.29891372      
  29               5.53679448E-03   2.57745265E-01   617.15756341     1.18340094E-05   3.02496587E+18   3.72000130E+07   0.00000000E+00   1.07314960E+07   0.2988075       
  30               6.55041330E-03   2.98455331E-01   634.05360511     1.33379883E-05   3.40940979E+18   3.72000128E+07   0.00000000E+00   1.06290274E+07   0.29862215      
  31               7.74959494E-03   3.45115317E-01   652.50617194     1.49870548E-05   3.83094088E+18   3.72000127E+07   0.00000000E+00   1.05246657E+07   0.29848077      
  32               9.16831029E-03   3.98513522E-01   671.85016475     1.68076520E-05   4.29631854E+18   3.72000123E+07   0.00000000E+00   1.04182722E+07   0.29829828      
  33               1.08467493E-02   4.59508090E-01   693.04224404     1.87875281E-05   4.80241066E+18   3.72000121E+07   0.00000000E+00   1.03097290E+07   0.29813655      
  34               1.28324595E-02   5.29042458E-01   715.32695360     2.09566569E-05   5.35687827E+18   3.72000117E+07   0.00000000E+00   1.01989126E+07   0.29785244      
  35               1.51816929E-02   6.08102659E-01   739.51378415     2.33005804E-05   5.95602441E+18   3.72000115E+07   0.00000000E+00   1.00857733E+07   0.29755709      
  36               1.79609996E-02   6.97699676E-01   764.87328705     2.58474490E-05   6.60700853E+18   3.72000110E+07   0.00000000E+00   9.97032118E+06   0.29711605      
  37               2.12491128E-02   7.99041600E-01   792.17999190     2.85814691E-05   7.30586025E+18   3.72000108E+07   0.00000000E+00   9.85241458E+06   0.29669977      
  38               2.51391797E-02   9.13557638E-01   820.71670320     3.15416185E-05   8.06247758E+18   3.72000104E+07   0.00000000E+00   9.73180483E+06   0.29614867      
  39               2.97413996E-02   1.04282064E+00   851.14622038     3.47173560E-05   8.87424228E+18   3.72000100E+07   0.00000000E+00   9.60827867E+06   0.29561673      
  40               3.51861462E-02   1.18838749E+00   882.60121040     3.81535382E-05   9.75257710E+18   3.72000100E+07   0.00000000E+00   9.48179868E+06   0.29488334      
  41               4.16276604E-02   1.35177028E+00   915.62428013     4.18338123E-05   1.06932921E+19   3.72000094E+07   0.00000000E+00   9.35247583E+06   0.29414185      
  42               4.92484201E-02   1.53451115E+00   949.26201048     4.58065650E-05   1.17087299E+19   3.72000097E+07   0.00000000E+00   9.22046536E+06   0.29317997      
  43               5.82643093E-02   1.73868047E+00   984.05613885     5.00676383E-05   1.27975177E+19   3.72000095E+07   0.00000000E+00   9.08564678E+06   0.29226292      
  44               6.89307339E-02   1.96680254E+00   1019.00207402    5.46942557E-05   1.39801404E+19   3.72000099E+07   0.00000000E+00   8.94779323E+06   0.29115318      
  45               8.15498567E-02   2.22176015E+00   1054.53371449    5.97022603E-05   1.52602815E+19   3.72000098E+07   0.00000000E+00   8.80670143E+06   0.29009796      
  46               9.64791575E-02   2.50659720E+00   1089.79722259    6.51763593E-05   1.66596047E+19   3.72000105E+07   0.00000000E+00   8.66230511E+06   0.28882151      
  47               1.14141560E-01   2.82459211E+00   1125.35817116    7.11233686E-05   1.81798716E+19   3.72000103E+07   0.00000000E+00   8.51460901E+06   0.28763425      
  48               1.35037411E-01   3.17948678E+00   1160.55217223    7.76309217E-05   1.98434963E+19   3.72000112E+07   0.00000000E+00   8.36357455E+06   0.28626004      
  49               1.59758657E-01   3.57580317E+00   1196.12163262    8.47099913E-05   2.16533003E+19   3.72000113E+07   0.00000000E+00   8.20902867E+06   0.2850331       
  50               1.89005613E-01   4.01902659E+00   1231.42594595    9.24788412E-05   2.36395072E+19   3.72000121E+07   0.00000000E+00   8.05067276E+06   0.28365292      
  51               2.23606798E-01   4.51522510E+00   1267.12874227    1.00967534E-04   2.58097919E+19   3.72000123E+07   0.00000000E+00   7.88828866E+06   0.28244291      
  52               2.64542408E-01   5.07074651E+00   1302.50554624    1.10308631E-04   2.81979904E+19   3.72000131E+07   0.00000000E+00   7.72183043E+06   0.28106871      
  53               3.12972084E-01   5.69231266E+00   1338.22810673    1.20523387E-04   3.08094850E+19   3.72000129E+07   0.00000000E+00   7.55136079E+06   0.27985955      
  54               3.70267763E-01   6.38728864E+00   1373.57482276    1.31757329E-04   3.36813942E+19   3.72000144E+07   0.00000000E+00   7.37696064E+06   0.27847721      
  55               4.38052539E-01   7.16508937E+00   1409.31349246    1.44053613E-04   3.68247529E+19   3.72000134E+07   0.00000000E+00   7.19842742E+06   0.27725836      
  56               5.18246648E-01   8.04034493E+00   1444.79911324    1.57680175E-04   4.03081674E+19   3.72000154E+07   0.00000000E+00   7.01478010E+06   0.27582941      
  57               6.13121862E-01   9.03198781E+00   1480.92023795    1.72807153E-04   4.41750972E+19   3.72000150E+07   0.00000000E+00   6.82480908E+06   0.27456964      
  58               7.25365844E-01   1.01609978E+01   1517.11544679    1.89766280E-04   4.85113728E+19   3.72000153E+07   0.00000000E+00   6.62765382E+06   0.27313629      
  59               8.58158289E-01   1.14462044E+01   1554.41525089    2.08646998E-04   5.33359812E+19   3.72000169E+07   0.00000000E+00   6.42340292E+06   0.2719019       
  60               1.01526100E+00   1.28982856E+01   1592.33980085    2.29510668E-04   5.86708093E+19   3.72000159E+07   0.00000000E+00   6.21356459E+06   0.27046584      
  61               1.20112443E+00   1.45079848E+01   1632.01710836    2.51975135E-04   6.43884875E+19   3.72000179E+07   0.00000000E+00   6.00187591E+06   0.26920241      
  62               1.42101382E+00   1.62631560E+01   1673.04571442    2.75533349E-04   7.04081379E+19   3.72000193E+07   0.00000000E+00   5.79122876E+06   0.26769923      
  63               1.68115827E+00   1.81454819E+01   1716.80428915    2.99596202E-04   7.65549991E+19   3.71946541E+07   0.00000000E+00   5.58405138E+06   0.26628986      
  64               1.98892727E+00   2.00950091E+01   1763.74111770    3.23016485E-04   8.25237980E+19   3.58419176E+07   1.35795502E+06   5.38587251E+06   0.26460397      
  65               2.35303941E+00   2.20064561E+01   1806.71570173    3.45469427E-04   8.82238753E+19   3.24068594E+07   4.79268565E+06   5.20492303E+06   0.263036        
  66               2.78380943E+00   2.37082448E+01   1842.14548248    3.65472726E-04   9.32183297E+19   2.83417336E+07   8.85787363E+06   5.05345722E+06   0.26166658      
  67               3.29344035E+00   2.51136171E+01   1870.24701434    3.81314934E-04   9.72604192E+19   2.52401936E+07   1.19605496E+07   4.93440917E+06   0.26048898      
  68               3.89636920E+00   2.66721057E+01   1899.54759000    3.98723592E-04   1.01702813E+20   2.31558906E+07   1.40465623E+07   4.80801529E+06   0.25955124      
  69               4.60967600E+00   2.83934840E+01   1930.79292612    4.17572382E-04   1.06514523E+20   2.05214877E+07   1.66866315E+07   4.67460946E+06   0.25851282      
  70               5.45356761E+00   2.97657752E+01   1954.20925468    4.32644902E-04   1.10324501E+20   1.75125535E+07   1.97131549E+07   4.57250704E+06   0.25744326      
  71               6.45195012E+00   3.07838045E+01   1971.39222454    4.43535456E-04   1.13103252E+20   1.55548009E+07   2.16941561E+07   4.49901667E+06   0.25649293      
  72               7.63310614E+00   3.19372586E+01   1989.82494302    4.55884428E-04   1.16254187E+20   1.45547271E+07   2.27076416E+07   4.41790023E+06   0.25584025      
  73               9.03049593E+00   3.32389644E+01   2010.47703336    4.69582443E-04   1.19749638E+20   1.37687441E+07   2.35029230E+07   4.32893308E+06   0.25498323      
  74               1.06837053E+01   3.47018913E+01   2032.39717806    4.84951713E-04   1.23671720E+20   1.29614200E+07   2.43349548E+07   4.23198981E+06   0.25418028      
  75               1.26395671E+01   3.63363700E+01   2056.52765555    5.01804170E-04   1.27977265E+20   1.15034321E+07   2.58078826E+07   4.12721349E+06   0.2531579       
  76               1.49534878E+01   3.75613116E+01   2073.54865323    5.14887764E-04   1.31205596E+20   9.72148309E+06   2.75492794E+07   4.05099891E+06   0.25250436      
  77               1.76910170E+01   3.84605551E+01   2086.24332739    5.23998973E-04   1.33529255E+20   8.72696165E+06   2.84987359E+07   3.99625247E+06   0.25188856      
  78               2.09297047E+01   3.94920241E+01   2099.89510587    5.34544655E-04   1.36218982E+20   8.36802929E+06   2.88539415E+07   3.93462150E+06   0.2513511       
  79               2.47612977E+01   4.06741739E+01   2115.79557215    5.46396318E-04   1.39242200E+20   8.10287045E+06   2.91149520E+07   3.86545007E+06   0.25059219      
  80               2.92943389E+01   4.20246398E+01   2132.86004250    5.60007345E-04   1.42714297E+20   7.81245380E+06   2.94060143E+07   3.78824728E+06   0.24989975      
  81               3.46572422E+01   4.35622532E+01   2152.37899256    5.75215458E-04   1.46594417E+20   7.52748004E+06   2.96916326E+07   3.70257602E+06   0.24898718      
  82               4.10019301E+01   4.53071177E+01   2173.17661781    5.92509743E-04   1.51007059E+20   7.20472045E+06   3.00150356E+07   3.60806142E+06   0.24810499      
  83               4.85081376E+01   4.72806483E+01   2196.56850288    6.11708532E-04   1.55906604E+20   6.88462179E+06   3.03357232E+07   3.50439835E+06   0.24699365      
  84               5.73885036E+01   4.95056982E+01   2221.27156035    6.33342543E-04   1.61428189E+20   6.53205511E+06   3.06887991E+07   3.39135411E+06   0.24586204      
  85               6.78945948E+01   5.20066986E+01   2248.62827265    6.57205959E-04   1.67520306E+20   6.18439075E+06   3.10368337E+07   3.26876721E+06   0.24451578      
  86               8.03240320E+01   5.48098999E+01   2277.24812697    6.83879742E-04   1.74330949E+20   5.81292876E+06   3.14084796E+07   3.13654205E+06   0.2431281       
  87               9.50289215E+01   5.79436521E+01   2308.51058416    7.13130819E-04   1.81802493E+20   5.44629297E+06   3.17750191E+07   2.99463934E+06   0.24155916      
  88               1.12425830E+02   6.14380385E+01   2340.92029617    7.45675610E-04   1.90097565E+20   5.06499124E+06   3.21558705E+07   2.84309999E+06   0.23987946      
  89               1.33007583E+02   6.53267899E+01   2375.88970323    7.81117884E-04   1.99154848E+20   4.71167916E+06   3.25083302E+07   2.68196950E+06   0.23807455      
  90               1.57357229E+02   6.96472000E+01   2411.86972841    8.20251892E-04   2.09158565E+20   4.36216173E+06   3.28565239E+07   2.51128506E+06   0.23610428      
  91               1.86164557E+02   7.44398758E+01   2450.28692937    8.62822900E-04   2.20046536E+20   4.03354805E+06   3.31831042E+07   2.33113074E+06   0.23408825      
  92               2.20245630E+02   7.97495401E+01   2489.56889171    9.09628852E-04   2.32022380E+20   3.70317813E+06   3.35108327E+07   2.14160190E+06   0.23176925      
  93               2.60565913E+02   8.56267331E+01   2531.10142209    9.60448901E-04   2.45033614E+20   3.39629300E+06   3.38148920E+07   1.94276265E+06   0.22952731      
  94               3.08267614E+02   9.21305026E+01   2573.41599403    1.01618208E-03   2.59310011E+20   3.09524780E+06   3.41129842E+07   1.73458035E+06   0.22685323      
  95               3.64702046E+02   9.93289988E+01   2617.78625708    1.07673239E-03   2.74832263E+20   2.82046814E+06   3.43848316E+07   1.51695778E+06   0.22443974      
  96               4.31467909E+02   1.07300253E+02   2662.97725318    1.14307190E-03   2.91849617E+20   2.55132426E+06   3.46511623E+07   1.28974227E+06   0.22136259      
  97               5.10456573E+02   1.16135126E+02   2709.95509433    1.21533949E-03   3.10404023E+20   2.30915873E+06   3.48907797E+07   1.05270478E+06   0.21881544      
  98               6.03905660E+02   1.25937897E+02   2757.95680749    1.29450495E-03   3.30746164E+20   2.07762276E+06   3.51200868E+07   8.05560436E+05   0.21539729      
  99               7.14462436E+02   1.36829220E+02   2807.38390231    1.38111510E-03   3.53022905E+20   1.87820305E+06   3.53177421E+07   5.47977789E+05   0.21287654      
  100              8.45258798E+02   1.48946397E+02   2858.25297879    1.47597084E-03   3.77446304E+20   1.68825215E+06   3.55065689E+07   2.79597441E+05   0.20912119      
  101              1.00000000E+03   1.62449859E+02   2909.97948525    1.58034797E-03   4.04347956E+20   1.59279112E+06   3.56014906E+07   0.00000000E+00   0.20666861      
