# ATMO pressure-temperature profile
# Effective temperature = 1100.0K
# log(g) = 5.0cm/s^2
# M/H = 0.0
# Optical depth grid in band 17 (1.20-1.33microns)
# All parameters in cgs units
#
# Model Level      Optical Depth    Pressure         Temperature      Density          Number Density   Rad Flux         Conv Flux        Radial Extension Adiabatic Gradient
#                                   [Ba]             [K]              [g/cm^3]         [/cm^3]          [ergs/s/cm^2/sr] [ergs/s/cm^2/sr] [cm]             [K/Ba]          
  1                5.00000000E-07   1.00000000E-05   308.03033729     9.19805451E-10   2.35143159E+14   8.30127957E+07   0.00000000E+00   5.64685615E+06   0.30148535      
  2                6.19412983E-07   3.59035692E-05   330.13796786     3.08128459E-09   7.87712958E+14   8.30127957E+07   0.00000000E+00   5.49298906E+06   0.30010157      
  3                7.67344888E-07   6.67674592E-05   348.59114006     5.42673215E-09   1.38731264E+15   8.30127957E+07   0.00000000E+00   5.41751188E+06   0.29939305      
  4                9.50606773E-07   1.04178308E-04   353.38850244     8.35247385E-09   2.13525979E+15   8.30127957E+07   0.00000000E+00   5.36194438E+06   0.299118        
  5                1.17763635E-06   1.49787069E-04   366.45591341     1.15809019E-08   2.96059109E+15   8.30127957E+07   0.00000000E+00   5.31557092E+06   0.2987389       
  6                1.45888650E-06   2.05478183E-04   369.56590505     1.57531301E-08   4.02716717E+15   8.30127957E+07   0.00000000E+00   5.27433917E+06   0.29858222      
  7                1.80730647E-06   2.73598223E-04   381.04315896     2.03437903E-08   5.20073761E+15   8.30127957E+07   0.00000000E+00   5.23628734E+06   0.30038945      
  8                2.23893819E-06   3.56936864E-04   383.88290373     2.63442381E-08   6.73470337E+15   8.30127957E+07   0.00000000E+00   5.20028857E+06   0.30031371      
  9                2.77365477E-06   4.58959976E-04   394.84121203     3.29340470E-08   8.41934251E+15   8.30127957E+07   0.00000000E+00   5.16565213E+06   0.30017601      
  10               3.43607555E-06   5.83840933E-04   397.72761410     4.15912303E-08   1.06324815E+16   8.30127957E+07   0.00000000E+00   5.13190998E+06   0.30011668      
  11               4.25669961E-06   7.36751689E-04   408.44554735     5.11068811E-08   1.30651023E+16   8.30127957E+07   0.00000000E+00   5.09874365E+06   0.30000709      
  12               5.27331001E-06   9.23960677E-04   411.34095067     6.36433093E-08   1.62696189E+16   8.30127957E+07   0.00000000E+00   5.06591811E+06   0.29995806      
  13               6.53271338E-06   1.15320789E-03   421.93814055     7.74390264E-08   1.97963289E+16   8.30127957E+07   0.00000000E+00   5.03326325E+06   0.29986989      
  14               8.09289496E-06   1.43395094E-03   424.78523285     9.56458469E-08   2.44506676E+16   8.30127957E+07   0.00000000E+00   5.00064235E+06   0.29983057      
  15               1.00256884E-05   1.77785516E-03   435.37014257     1.15701545E-07   2.95776437E+16   8.30127957E+07   0.00000000E+00   4.96795084E+06   0.2997562       
  16               1.24200832E-05   2.19909818E-03   438.32698168     1.42150321E-07   3.63389399E+16   8.30127957E+07   0.00000000E+00   4.93510433E+06   0.29972241      
  17               1.53863215E-05   2.71501673E-03   449.18981668     1.71255911E-07   4.37792632E+16   8.30127957E+07   0.00000000E+00   4.90203807E+06   0.29966129      
  18               1.90609746E-05   3.34651467E-03   452.62857955     2.09498256E-07   5.35521116E+16   8.30127957E+07   0.00000000E+00   4.86869830E+06   0.29963042      
  19               2.36132303E-05   4.12023822E-03   462.72176989     2.52308533E-07   6.44953246E+16   8.30127957E+07   0.00000000E+00   4.83504485E+06   0.29957394      
  20               2.92526829E-05   5.06808690E-03   466.17675399     3.08051387E-07   7.87443276E+16   8.30127957E+07   0.00000000E+00   4.80104621E+06   0.29954476      
  21               3.62389832E-05   6.22890994E-03   476.62417978     3.70310141E-07   9.46589799E+16   8.30127957E+07   0.00000000E+00   4.76667684E+06   0.29949376      
  22               4.48937934E-05   7.64999940E-03   480.39108230     4.51228239E-07   1.15343282E+17   8.30127957E+07   0.00000000E+00   4.73191198E+06   0.29946689      
  23               5.56155970E-05   9.38907670E-03   491.25193624     5.41562166E-07   1.38434537E+17   8.30127957E+07   0.00000000E+00   4.69673192E+06   0.29941789      
  24               6.88980457E-05   1.15164414E-02   495.17025832     6.59012489E-07   1.68457205E+17   8.30127956E+07   0.00000000E+00   4.66112200E+06   0.29939234      
  25               8.53526881E-05   1.41178766E-02   506.31682500     7.90090465E-07   2.01963487E+17   8.30127956E+07   0.00000000E+00   4.62507013E+06   0.29934581      
  26               1.05737126E-04   1.72977676E-02   510.42353170     9.60261157E-07   2.45462531E+17   8.30127956E+07   0.00000000E+00   4.58856288E+06   0.29932043      
  27               1.30989898E-04   2.11838092E-02   521.93881203     1.15004376E-06   2.93974935E+17   8.30127956E+07   0.00000000E+00   4.55158384E+06   0.29930308      
  28               1.62273687E-04   2.59307350E-02   526.40186733     1.39581385E-06   3.56798685E+17   8.30127955E+07   0.00000000E+00   4.51411748E+06   0.29930118      
  29               2.01028857E-04   3.17257929E-02   538.80457102     1.66844236E-06   4.26488233E+17   8.30127955E+07   0.00000000E+00   4.47614330E+06   0.29919799      
  30               2.49039768E-04   3.87943679E-02   544.13351235     2.02019539E-06   5.16403344E+17   8.30127954E+07   0.00000000E+00   4.43764163E+06   0.29912021      
  31               3.08516931E-04   4.74067701E-02   557.77445121     2.40830670E-06   6.15612726E+17   8.30127953E+07   0.00000000E+00   4.39859606E+06   0.29907903      
  32               3.82198786E-04   5.78865627E-02   564.28383989     2.90676778E-06   7.43029383E+17   8.30127952E+07   0.00000000E+00   4.35898727E+06   0.29908278      
  33               4.73477780E-04   7.06234430E-02   579.37134432     3.45399673E-06   8.82912599E+17   8.30127951E+07   0.00000000E+00   4.31878996E+06   0.29903004      
  34               5.86556569E-04   8.60779397E-02   587.29931982     4.15300563E-06   1.06159339E+18   8.30127949E+07   0.00000000E+00   4.27798503E+06   0.29897749      
  35               7.26641509E-04   1.04796416E-01   603.99904556     4.91632049E-06   1.25671274E+18   8.30127948E+07   0.00000000E+00   4.23655940E+06   0.2988759       
  36               9.00182369E-04   1.27424969E-01   613.65033010     5.88387773E-06   1.50404006E+18   8.30127945E+07   0.00000000E+00   4.19448627E+06   0.29879732      
  37               1.11516929E-03   1.54731477E-01   632.30049208     6.93401960E-06   1.77247857E+18   8.30127943E+07   0.00000000E+00   4.15173571E+06   0.29867077      
  38               1.38150068E-03   1.87627275E-01   644.03275220     8.25501670E-06   2.11015257E+18   8.30127938E+07   0.00000000E+00   4.10825577E+06   0.29857858      
  39               1.71143891E-03   2.27191150E-01   664.95955623     9.68112852E-06   2.47469692E+18   8.30127937E+07   0.00000000E+00   4.06399929E+06   0.2984351       
  40               2.12017497E-03   2.74682019E-01   679.35416180     1.14568118E-05   2.92859846E+18   8.30127929E+07   0.00000000E+00   4.01890566E+06   0.29829408      
  41               2.62652780E-03   3.31566512E-01   703.05438471     1.33632351E-05   3.41591912E+18   8.30127926E+07   0.00000000E+00   3.97293230E+06   0.29803553      
  42               3.25381085E-03   3.99483140E-01   720.56574306     1.57092207E-05   4.01560220E+18   8.30127916E+07   0.00000000E+00   3.92605711E+06   0.29783188      
  43               4.03090537E-03   4.80313278E-01   747.54012957     1.82062501E-05   4.65388793E+18   8.30127913E+07   0.00000000E+00   3.87826173E+06   0.29756776      
  44               4.99359024E-03   5.76179573E-01   768.83350059     2.12352838E-05   5.42814447E+18   8.30127896E+07   0.00000000E+00   3.82950585E+06   0.29730319      
  45               6.18618926E-03   6.89670408E-01   799.76282063     2.44351847E-05   6.24606100E+18   8.30127896E+07   0.00000000E+00   3.77968345E+06   0.29685791      
  46               7.66361189E-03   8.23651426E-01   825.52401136     2.82715041E-05   7.22669265E+18   8.30127875E+07   0.00000000E+00   3.72870801E+06   0.296413        
  47               9.49388141E-03   9.81353299E-01   860.96124879     3.22980918E-05   8.25596079E+18   8.30127875E+07   0.00000000E+00   3.67651961E+06   0.29580158      
  48               1.17612668E-02   1.16630093E+00   891.52188236     3.70692531E-05   9.47555057E+18   8.30127857E+07   0.00000000E+00   3.62306890E+06   0.29522339      
  49               1.45701627E-02   1.38213192E+00   931.46884427     4.20453084E-05   1.07474889E+19   8.30127858E+07   0.00000000E+00   3.56839899E+06   0.29442176      
  50               1.80498959E-02   1.63276936E+00   966.40672029     4.78745611E-05   1.22374447E+19   8.30127859E+07   0.00000000E+00   3.51253458E+06   0.29362755      
  51               2.23606798E-02   1.92324147E+00   1010.17338803    5.39495898E-05   1.37899830E+19   8.30127835E+07   0.00000000E+00   3.45537896E+06   0.29256804      
  52               2.77009907E-02   2.25948782E+00   1048.43121133    6.10686787E-05   1.56097484E+19   8.30127867E+07   0.00000000E+00   3.39679830E+06   0.29155227      
  53               3.43167066E-02   2.64808846E+00   1094.77791635    6.85411479E-05   1.75199273E+19   8.30127832E+07   0.00000000E+00   3.33673368E+06   0.29025547      
  54               4.25124273E-02   3.09598029E+00   1134.93418468    7.72980004E-05   1.97584717E+19   8.30127857E+07   0.00000000E+00   3.27519993E+06   0.2889863       
  55               5.26654988E-02   3.61164988E+00   1182.65131483    8.65331747E-05   2.21194724E+19   8.30127831E+07   0.00000000E+00   3.21214831E+06   0.28736677      
  56               6.52433875E-02   4.20637763E+00   1223.83801381    9.73893162E-05   2.48948870E+19   8.30127836E+07   0.00000000E+00   3.14736378E+06   0.28581016      
  57               8.08252026E-02   4.89310284E+00   1272.73035801    1.08934595E-04   2.78467028E+19   8.30127824E+07   0.00000000E+00   3.08069160E+06   0.28394571      
  58               1.00128360E-01   5.68516598E+00   1314.98314140    1.22499725E-04   3.13147395E+19   8.30127815E+07   0.00000000E+00   3.01212550E+06   0.28223777      
  59               1.24041612E-01   6.59686317E+00   1365.09567702    1.36924745E-04   3.50025935E+19   8.30127795E+07   0.00000000E+00   2.94173042E+06   0.28024137      
  60               1.53665970E-01   7.64580221E+00   1408.38401852    1.53819378E-04   3.93212948E+19   8.30127829E+07   0.00000000E+00   2.86945278E+06   0.27840229      
  61               1.90365394E-01   8.86411098E+00   1459.66182540    1.72065279E-04   4.39854232E+19   8.30127746E+07   0.00000000E+00   2.79456585E+06   0.27624651      
  62               2.35829593E-01   1.02931773E+01   1503.97152812    1.93917765E-04   4.95719131E+19   8.30127882E+07   0.00000000E+00   2.71633128E+06   0.27427714      
  63               2.92151824E-01   1.19804111E+01   1556.54816139    2.18076493E-04   5.57487327E+19   8.30127723E+07   0.00000000E+00   2.63428362E+06   0.27211183      
  64               3.61925265E-01   1.39481615E+01   1602.19710445    2.46670194E-04   6.30560647E+19   8.30127796E+07   0.00000000E+00   2.54944122E+06   0.27026841      
  65               4.48362417E-01   1.61824047E+01   1656.59107053    2.76890051E-04   7.07544210E+19   8.30127745E+07   0.00000000E+00   2.46394440E+06   0.26824119      
  66               5.55443005E-01   1.86496989E+01   1704.45391586    3.10149565E-04   7.92523958E+19   8.30127535E+07   0.00000000E+00   2.37974986E+06   0.266493        
  67               6.88097217E-01   2.12805619E+01   1761.89830287    3.42422758E-04   8.74838915E+19   8.29992097E+07   0.00000000E+00   2.29901856E+06   0.26449842      
  68               8.52432700E-01   2.38760384E+01   1816.22102110    3.72888818E-04   9.52180779E+19   7.86381014E+07   4.36916321E+06   2.22638031E+06   0.26281083      
  69               1.05601576E+00   2.62390963E+01   1861.60615352    4.00258791E-04   1.02090871E+20   7.17334599E+07   1.12639526E+07   2.16520865E+06   0.26088554      
  70               1.30821975E+00   2.82662524E+01   1897.98777334    4.22906907E-04   1.07869996E+20   6.50684587E+07   1.79209977E+07   2.11593726E+06   0.25913304      
  71               1.62065660E+00   3.05715271E+01   1936.80679767    4.48210655E-04   1.14329070E+20   5.81502991E+07   2.48402890E+07   2.06298802E+06   0.25775224      
  72               2.00771148E+00   3.24546859E+01   1966.80458857    4.68712256E-04   1.19520400E+20   5.08174621E+07   3.21838303E+07   2.02189999E+06   0.25636903      
  73               2.48720511E+00   3.38856563E+01   1988.59313549    4.84007530E-04   1.23422917E+20   4.51845621E+07   3.78393495E+07   1.99185641E+06   0.25524772      
  74               3.08121427E+00   3.55639599E+01   2013.27517564    5.01740926E-04   1.27947797E+20   4.10911155E+07   4.19580899E+07   1.95779953E+06   0.25406452      
  75               3.81708825E+00   3.75195466E+01   2040.73426607    5.22194410E-04   1.33167107E+20   3.74144180E+07   4.56409067E+07   1.91959442E+06   0.25317056      
  76               4.72870805E+00   3.97826383E+01   2071.23164156    5.45502465E-04   1.39120378E+20   3.27221048E+07   5.02849378E+07   1.87719226E+06   0.25238675      
  77               5.85804632E+00   4.15469304E+01   2093.93296655    5.63976099E-04   1.43714970E+20   2.76484757E+07   5.52872564E+07   1.84538057E+06   0.25189515      
  78               7.25709989E+00   4.29003568E+01   2110.97369466    5.77634312E-04   1.47198682E+20   2.44725025E+07   5.84626200E+07   1.82166804E+06   0.25114291      
  79               8.99028379E+00   4.45123782E+01   2130.50551397    5.93828981E-04   1.51329632E+20   2.28774698E+07   6.00767371E+07   1.79414389E+06   0.25047077      
  80               1.11373970E+01   4.64223351E+01   2153.10744141    6.12787659E-04   1.56166228E+20   2.16345600E+07   6.13310114E+07   1.76248192E+06   0.24949723      
  81               1.37972966E+01   4.86730905E+01   2178.53949082    6.34971912E-04   1.61826382E+20   2.04685941E+07   6.25075759E+07   1.72639944E+06   0.24857978      
  82               1.70924493E+01   5.13110934E+01   2207.37080677    6.60609672E-04   1.68368876E+20   1.92864491E+07   6.36993210E+07   1.68566836E+06   0.24731119      
  83               2.11745701E+01   5.43867141E+01   2239.17016656    6.90220370E-04   1.75926621E+20   1.80513064E+07   6.49427398E+07   1.64012062E+06   0.24602899      
  84               2.62316072E+01   5.79545823E+01   2274.49384443    7.24021726E-04   1.84556291E+20   1.67825912E+07   6.62183789E+07   1.58964987E+06   0.24441337      
  85               3.24963962E+01   6.20743734E+01   2312.71186855    7.62601607E-04   1.94409129E+20   1.54840396E+07   6.75224146E+07   1.53420629E+06   0.24276401      
  86               4.02573794E+01   6.68104470E+01   2354.38447735    8.06245409E-04   2.05538334E+20   1.41995557E+07   6.88110811E+07   1.47380442E+06   0.24077242      
  87               4.98718870E+01   7.22350264E+01   2398.68514384    8.55488477E-04   2.18122482E+20   1.29520375E+07   7.00616285E+07   1.40848736E+06   0.23873452      
  88               6.17825886E+01   7.84286725E+01   2446.25053401    9.10623886E-04   2.32220080E+20   1.17586569E+07   7.12570706E+07   1.33831415E+06   0.23637857      
  89               7.65378750E+01   8.54805054E+01   2496.07374292    9.72491855E-04   2.48047874E+20   1.05941940E+07   7.24228675E+07   1.26337800E+06   0.23400218      
  90               9.48171070E+01   9.34919621E+01   2548.91586000    1.04132747E-03   2.65671284E+20   9.48587157E+06   7.35322287E+07   1.18376626E+06   0.23125945      
  91               1.17461894E+02   1.02584248E+02   2603.61421113    1.11826800E-03   2.85384174E+20   8.43681069E+06   7.45823329E+07   1.09950866E+06   0.22853298      
  92               1.45514845E+02   1.12898448E+02   2661.18947544    1.20365498E-03   3.07282631E+20   7.46249751E+06   7.55580766E+07   1.01060602E+06   0.22548306      
  93               1.80267568E+02   1.24599349E+02   2720.29259872    1.29901424E-03   3.31761506E+20   6.56678335E+06   7.64560913E+07   9.17029929E+05   0.22246348      
  94               2.23320145E+02   1.37876496E+02   2782.18766367    1.40478185E-03   3.58946446E+20   5.77427842E+06   7.72523494E+07   8.18742607E+05   0.21915689      
  95               2.76654794E+02   1.52946166E+02   2845.28554644    1.52293037E-03   3.89348564E+20   5.06461574E+06   7.79681337E+07   7.15712576E+05   0.21600487      
  96               3.42727143E+02   1.70053747E+02   2911.14508580    1.65390809E-03   4.23105037E+20   4.43349883E+06   7.86090817E+07   6.07917680E+05   0.21268364      
  97               4.24579284E+02   1.89477267E+02   2977.89661701    1.80021706E-03   4.60864585E+20   3.86020361E+06   7.91976397E+07   4.95349534E+05   0.20947968      
  98               5.25979842E+02   2.11529859E+02   3047.33153590    1.96231934E-03   5.02779790E+20   3.34643066E+06   7.97332962E+07   3.78016890E+05   0.20607955      
  99               6.51597486E+02   2.36523735E+02   3117.15871830    2.14308430E-03   5.49593582E+20   2.87627131E+06   8.02346084E+07   2.56135908E+05   0.20275544      
  100              8.07215886E+02   2.64779446E+02   3189.26867530    2.34245039E-03   6.01338488E+20   2.47225685E+06   8.06844872E+07   1.30023168E+05   0.19956678      
  101              1.00000000E+03   2.96641159E+02   3261.27798796    2.56354955E-03   6.58824028E+20   2.26698516E+06   8.09254458E+07   0.00000000E+00   0.19649834      
