# ATMO pressure-temperature profile
# Effective temperature = 300.0K
# log(g) = 3.5cm/s^2
# M/H = 0.0
# Optical depth grid in band 17 (1.20-1.33microns)
# All parameters in cgs units
#
# Model Level      Optical Depth    Pressure         Temperature      Density          Number Density   Rad Flux         Conv Flux        Radial Extension Adiabatic Gradient
#                                   [Ba]             [K]              [g/cm^3]         [/cm^3]          [ergs/s/cm^2/sr] [ergs/s/cm^2/sr] [cm]             [K/Ba]          
  1                5.00000000E-05   1.00000000E-05   34.57281519      8.19831264E-09   2.09503409E+15   4.59188939E+05   0.00000000E+00   7.90388163E+07   0.34574464      
  2                5.91534807E-05   6.20600335E-05   41.85184629      4.20297304E-08   1.07404684E+16   4.59188939E+05   0.00000000E+00   7.81519382E+07   0.34574464      
  3                6.99826855E-05   1.23578683E-04   46.64576827      7.50914575E-08   1.91892125E+16   4.59188939E+05   0.00000000E+00   7.78056536E+07   0.31479403      
  4                8.27943887E-05   1.96275481E-04   49.49453806      1.12400436E-07   2.87233185E+16   4.59188939E+05   0.00000000E+00   7.75554255E+07   0.31480976      
  5                9.79515255E-05   2.82174981E-04   52.42812974      1.52550403E-07   3.89834238E+16   4.59188939E+05   0.00000000E+00   7.73479820E+07   0.31482267      
  6                1.15883473E-04   3.83654157E-04   54.56506219      1.99289526E-07   5.09273517E+16   4.59188939E+05   0.00000000E+00   7.71639353E+07   0.31483399      
  7                1.37098216E-04   5.03526321E-04   57.13547565      2.49790289E-07   6.38325464E+16   4.59188939E+05   0.00000000E+00   7.69940372E+07   0.31484434      
  8                1.62196734E-04   6.45092013E-04   59.05003319      3.09642624E-07   7.91274843E+16   4.59188939E+05   0.00000000E+00   7.68330691E+07   0.31485405      
  9                1.91890027E-04   8.12227598E-04   61.55076070      3.74027503E-07   9.55806889E+16   4.59188939E+05   0.00000000E+00   7.66777636E+07   0.31486333      
  10               2.27019260E-04   1.00952106E-03   63.40320378      4.51297993E-07   1.15326741E+17   4.59188939E+05   0.00000000E+00   7.65259086E+07   0.31487233      
  11               2.68579588E-04   1.24233257E-03   65.95674302      5.33872919E-07   1.36428314E+17   4.59188939E+05   0.00000000E+00   7.63759215E+07   0.31488115      
  12               3.17748350E-04   1.51692666E-03   67.90954694      6.33130115E-07   1.61792949E+17   4.59188939E+05   0.00000000E+00   7.62265645E+07   0.31488986      
  13               3.75918418E-04   1.84072667E-03   70.64501457      7.38528067E-07   1.88726821E+17   4.59188939E+05   0.00000000E+00   7.60768214E+07   0.31489853      
  14               4.44737657E-04   2.22182239E-03   72.78513945      8.65218586E-07   2.21101892E+17   4.59188939E+05   0.00000000E+00   7.59260608E+07   0.3149072       
  15               5.26155608E-04   2.66760756E-03   75.86437088      9.96651441E-07   2.54688842E+17   4.59188939E+05   0.00000000E+00   7.57742541E+07   0.31491591      
  16               6.22478712E-04   3.18626595E-03   78.36424671      1.15245315E-06   2.94503119E+17   4.59188939E+05   0.00000000E+00   7.56212165E+07   0.31492469      
  17               7.36435649E-04   3.78751492E-03   81.85909911      1.31143452E-06   3.35129942E+17   4.59188939E+05   0.00000000E+00   7.54665596E+07   0.31493351      
  18               8.71254639E-04   4.48287041E-03   84.75026755      1.49925093E-06   3.83125401E+17   4.59188939E+05   0.00000000E+00   7.53097414E+07   0.31494238      
  19               1.03075489E-03   5.28644619E-03   88.79771866      1.68741237E-06   4.31209030E+17   4.59188939E+05   0.00000000E+00   7.51499773E+07   0.31495133      
  20               1.21945479E-03   6.21534928E-03   92.27759624      1.90909916E-06   4.87859881E+17   4.59188939E+05   0.00000000E+00   7.49863162E+07   0.31496038      
  21               1.44269991E-03   7.28962901E-03   96.97081432      2.13070637E-06   5.44490395E+17   4.59188939E+05   0.00000000E+00   7.48178777E+07   0.31496958      
  22               1.70681442E-03   8.53241658E-03   101.11003031     2.39186553E-06   6.11228576E+17   4.59188926E+05   0.00000000E+00   7.46437906E+07   0.31497897      
  23               2.01928028E-03   9.97017462E-03   106.77216154     2.64669054E-06   6.76348560E+17   4.59186523E+05   2.41668331E+00   7.44630874E+07   0.31498859      
  24               2.38894914E-03   1.16347777E-02   111.48561007     2.95796716E-06   7.55901336E+17   4.59181801E+05   7.13882350E+00   7.42749555E+07   0.3149985       
  25               2.82629313E-03   1.35639491E-02   117.64354886     3.26761745E-06   8.35110362E+17   4.59176182E+05   1.27579237E+01   7.40787286E+07   0.31652662      
  26               3.34370152E-03   1.58012307E-02   122.82750066     3.64632156E-06   9.31796639E+17   4.59169730E+05   1.92098528E+01   7.38737646E+07   0.31925565      
  27               3.95583167E-03   1.83965891E-02   129.66477107     4.02137838E-06   1.02764036E+18   4.59160263E+05   2.86769656E+01   7.36594349E+07   0.32231529      
  28               4.68002425E-03   2.14077171E-02   135.45729690     4.47947637E-06   1.14470556E+18   4.59146598E+05   4.23419288E+01   7.34350838E+07   0.32385633      
  29               5.53679448E-03   2.49015449E-02   143.02289717     4.93492327E-06   1.26109139E+18   4.59130968E+05   5.79719179E+01   7.32000947E+07   0.32575778      
  30               6.55041330E-03   2.89556183E-02   149.46160535     5.49114459E-06   1.40323058E+18   4.59119621E+05   6.93186473E+01   7.29538199E+07   0.3258425       
  31               7.74959494E-03   3.36607626E-02   157.78206253     6.04680525E-06   1.54522655E+18   4.59115523E+05   7.34164593E+01   7.26956067E+07   0.3251207       
  32               9.16831029E-03   3.91233317E-02   164.82531843     6.72777453E-06   1.71924491E+18   4.59124282E+05   6.46577534E+01   7.24247758E+07   0.32487998      
  33               1.08467493E-02   4.54662908E-02   173.97057451     7.40752179E-06   1.89295185E+18   4.59133614E+05   5.53263156E+01   7.21406441E+07   0.32438246      
  34               1.28324595E-02   5.28291717E-02   181.69197027     8.24128452E-06   2.10602686E+18   4.59146105E+05   4.28371860E+01   7.18426457E+07   0.32365694      
  35               1.51816929E-02   6.13700322E-02   191.70682604     9.07340948E-06   2.31870028E+18   4.59119245E+05   6.97425629E+01   7.15303120E+07   0.32183258      
  36               1.79609996E-02   7.12644205E-02   200.06616801     1.00937995E-05   2.58003112E+18   4.59154419E+05   3.45230153E+01   7.12033657E+07   0.32025961      
  37               2.12491128E-02   8.27152590E-02   210.93692536     1.11145963E-05   2.84026500E+18   4.59188923E+05   0.00000000E+00   7.08614940E+07   0.31768974      
  38               2.51391797E-02   9.59624631E-02   219.08878611     1.24085490E-05   3.17253979E+18   4.59188939E+05   0.00000000E+00   7.05047827E+07   0.31602097      
  39               2.97413996E-02   1.11295104E-01   229.26389284     1.37595015E-05   3.51614062E+18   4.59188939E+05   0.00000000E+00   7.01337134E+07   0.31370527      
  40               3.51861462E-02   1.29054626E-01   237.14960384     1.54245117E-05   3.94164051E+18   4.59188939E+05   0.00000000E+00   6.97482135E+07   0.31231256      
  41               4.16276604E-02   1.49626352E-01   247.50486283     1.71351150E-05   4.37875041E+18   4.59188939E+05   0.00000000E+00   6.93480647E+07   0.31044848      
  42               4.92484201E-02   1.73447720E-01   256.07574734     1.91983018E-05   4.90598239E+18   4.59188939E+05   0.00000000E+00   6.89327362E+07   0.30928845      
  43               5.82643093E-02   2.01029008E-01   267.84474171     2.12734660E-05   5.43627533E+18   4.59188939E+05   0.00000000E+00   6.85011535E+07   0.30766374      
  44               6.89307339E-02   2.32893842E-01   280.21804840     2.35572491E-05   6.01987872E+18   4.56070329E+05   3.11861019E+03   6.80510315E+07   0.30651005      
  45               8.15498567E-02   2.69685218E-01   293.08487714     2.60811301E-05   6.66483761E+18   4.49706456E+05   9.48248387E+03   6.75816559E+07   0.30515602      
  46               9.64791575E-02   3.12153396E-01   306.41864254     2.88745718E-05   7.37868073E+18   4.40115705E+05   1.90732340E+04   6.70922799E+07   0.30422751      
  47               1.14141560E-01   3.61138969E-01   320.31326866     3.19567126E-05   8.16629876E+18   4.27435438E+05   3.17535015E+04   6.65823278E+07   0.30325841      
  48               1.35037411E-01   4.17577833E-01   334.68639017     3.53640550E-05   9.03701959E+18   4.12069799E+05   4.71191407E+04   6.60514236E+07   0.30256186      
  49               1.59758657E-01   4.82530410E-01   349.66549567     3.91142128E-05   9.99534409E+18   3.94679135E+05   6.45098050E+04   6.54991579E+07   0.30183112      
  50               1.89005613E-01   5.57240783E-01   365.14008328     4.32559707E-05   1.10537394E+19   3.76092059E+05   8.30968810E+04   6.49247894E+07   0.30136631      
  51               2.23606798E-01   6.43124776E-01   381.28947037     4.78082951E-05   1.22170477E+19   3.57058810E+05   1.02130130E+05   6.43275649E+07   0.30092641      
  52               2.64542408E-01   7.41747115E-01   397.95949877     5.28299036E-05   1.35002817E+19   3.38448832E+05   1.20740108E+05   6.37070049E+07   0.30064887      
  53               3.12972084E-01   8.54816757E-01   415.34475855     5.83346945E-05   1.49069959E+19   3.21113477E+05   1.38075464E+05   6.30629207E+07   0.3003688       
  54               3.70267763E-01   9.84275775E-01   433.25427288     6.43933858E-05   1.64550718E+19   3.05677441E+05   1.53511500E+05   6.23949617E+07   0.30017588      
  55               4.38052539E-01   1.13239271E+00   451.92648920     7.10226022E-05   1.81491005E+19   2.91215728E+05   1.67973212E+05   6.17023564E+07   0.29999175      
  56               5.18246648E-01   1.30164426E+00   471.14529577     7.83077529E-05   2.00107464E+19   2.74735743E+05   1.84453197E+05   6.09846745E+07   0.2998819       
  57               6.13121862E-01   1.49470885E+00   491.15860583     8.62591359E-05   2.20424918E+19   2.53177107E+05   2.06011833E+05   6.02418289E+07   0.2997546       
  58               7.25365844E-01   1.71448751E+00   511.70354672     9.49696322E-05   2.42684332E+19   2.31574513E+05   2.27614427E+05   5.94739538E+07   0.29962954      
  59               8.58158289E-01   1.96455221E+00   533.07728809     1.04466241E-04   2.66931136E+19   2.16994018E+05   2.42194922E+05   5.86800276E+07   0.29946377      
  60               1.01526100E+00   2.24920412E+00   555.03945791     1.14870324E-04   2.93515372E+19   2.04877392E+05   2.54311548E+05   5.78583108E+07   0.29933469      
  61               1.20112443E+00   2.57289769E+00   577.90996137     1.26201666E-04   3.22469152E+19   1.93669957E+05   2.65518983E+05   5.70081568E+07   0.29918678      
  62               1.42101382E+00   2.94023481E+00   601.36123055     1.38595526E-04   3.54137917E+19   1.82853769E+05   2.76335170E+05   5.61298269E+07   0.29903023      
  63               1.68115827E+00   3.35589089E+00   625.69704389     1.52035899E-04   3.88480808E+19   1.72713870E+05   2.86475068E+05   5.52243310E+07   0.29878252      
  64               1.98892727E+00   3.82532758E+00   650.55268729     1.66681839E-04   4.25904272E+19   1.63981595E+05   2.95207344E+05   5.42918075E+07   0.29854752      
  65               2.35303941E+00   4.35590278E+00   676.36460567     1.82557232E-04   4.66469385E+19   1.56885240E+05   3.02303698E+05   5.33299665E+07   0.29824547      
  66               2.78380943E+00   4.95514525E+00   702.75150906     1.99873792E-04   5.10717150E+19   1.51169665E+05   3.08019271E+05   5.23379357E+07   0.29795067      
  67               3.29344035E+00   5.63064371E+00   730.12384280     2.18606065E-04   5.58582540E+19   1.46646795E+05   3.12542140E+05   5.13160194E+07   0.29750894      
  68               3.89636920E+00   6.39011970E+00   757.98841082     2.38971747E-04   6.10621747E+19   1.43278802E+05   3.15910133E+05   5.02652445E+07   0.29706751      
  69               4.60967600E+00   7.24225090E+00   786.81158885     2.60917075E-04   6.66697241E+19   1.41354322E+05   3.17834610E+05   4.91860941E+07   0.29646913      
  70               5.45356761E+00   8.20009998E+00   816.15622732     2.84803585E-04   7.27732362E+19   1.41252296E+05   3.17936633E+05   4.80749428E+07   0.29590846      
  71               6.45195012E+00   9.27818233E+00   846.65688888     3.10639706E-04   7.93745536E+19   1.43106843E+05   3.16082077E+05   4.69287673E+07   0.29516649      
  72               7.63310614E+00   1.04902542E+01   877.70066187     3.38799831E-04   8.65696026E+19   1.47063761E+05   3.12125151E+05   4.57472807E+07   0.2944796       
  73               9.03049593E+00   1.18488821E+01   909.88294866     3.69143310E-04   9.43230186E+19   1.52837901E+05   3.06351012E+05   4.45324061E+07   0.29354252      
  74               1.06837053E+01   1.33652356E+01   942.37643404     4.02026871E-04   1.02725447E+20   1.60210537E+05   2.98978394E+05   4.32876752E+07   0.2925093       
  75               1.26395671E+01   1.50524040E+01   975.85578667     4.37243410E-04   1.11723894E+20   1.68628113E+05   2.90560828E+05   4.20151414E+07   0.29151624      
  76               1.49534878E+01   1.69309043E+01   1009.63459801    4.75357309E-04   1.21462376E+20   1.77425814E+05   2.81763128E+05   4.07121555E+07   0.29043442      
  77               1.76910170E+01   1.90225869E+01   1044.50935554    5.16255896E-04   1.31911629E+20   1.85253330E+05   2.73935615E+05   3.93769334E+07   0.28931479      
  78               2.09297047E+01   2.13474865E+01   1079.66395915    5.60501335E-04   1.43213508E+20   1.92423776E+05   2.66765173E+05   3.80101987E+07   0.28788642      
  79               2.47612977E+01   2.39253847E+01   1115.79085258    6.07846691E-04   1.55310913E+20   2.00866719E+05   2.58322229E+05   3.66135716E+07   0.28670703      
  80               2.92943389E+01   2.67781725E+01   1152.15368666    6.58852019E-04   1.68343503E+20   2.09922561E+05   2.49306476E+05   3.51880345E+07   0.28523318      
  81               3.46572422E+01   2.99292929E+01   1189.37333564    7.13337662E-04   1.82265343E+20   2.18520387E+05   2.40700893E+05   3.37345061E+07   0.2840341       
  82               4.10019301E+01   3.34141195E+01   1226.93077870    7.72016885E-04   1.97258533E+20   2.26626468E+05   2.32577551E+05   3.22495273E+07   0.28249968      
  83               4.85081376E+01   3.72739223E+01   1265.44386110    8.34987680E-04   2.13347743E+20   2.33949186E+05   2.25254040E+05   3.07292887E+07   0.28105092      
  84               5.73885036E+01   4.15447764E+01   1304.37864388    9.02888323E-04   2.30695215E+20   2.39718290E+05   2.19476833E+05   2.91738324E+07   0.27951404      
  85               6.78945948E+01   4.62572051E+01   1344.16980355    9.75560394E-04   2.49259141E+20   2.43352198E+05   2.15844186E+05   2.75860134E+07   0.27807073      
  86               8.03240320E+01   5.14361351E+01   1384.18865944    1.05345181E-03   2.69152787E+20   2.44666002E+05   2.14526556E+05   2.59705158E+07   0.27653126      
  87               9.50289215E+01   5.71175340E+01   1424.89107440    1.13643737E-03   2.90344513E+20   2.44048670E+05   2.15147163E+05   2.43285041E+07   0.27503685      
  88               1.12425830E+02   6.33486495E+01   1465.80979478    1.22526945E-03   3.13029726E+20   2.42222308E+05   2.16970702E+05   2.26586497E+07   0.27343592      
  89               1.33007583E+02   7.02037817E+01   1507.57557630    1.32026189E-03   3.37292942E+20   2.39881020E+05   2.19337600E+05   2.09542491E+07   0.27202606      
  90               1.57357229E+02   7.77475204E+01   1549.79454655    1.42229171E-03   3.63360955E+20   2.36177931E+05   2.23105381E+05   1.92133879E+07   0.2704395       
  91               1.86164557E+02   8.60202956E+01   1592.73234797    1.53118480E-03   3.91186600E+20   2.30799606E+05   2.28447425E+05   1.74406467E+07   0.26904994      
  92               2.20245630E+02   9.50306583E+01   1635.79605631    1.64705969E-03   4.20785165E+20   2.22981825E+05   2.36226419E+05   1.56464145E+07   0.2674918       
  93               2.60565913E+02   1.04759595E+02   1678.95170613    1.76893777E-03   4.51940692E+20   2.12839528E+05   2.46488439E+05   1.38439916E+07   0.26613696      
  94               3.08267614E+02   1.15155741E+02   1721.59425716    1.89718109E-03   4.84485327E+20   2.00611983E+05   2.58859095E+05   1.20492277E+07   0.26460502      
  95               3.64702046E+02   1.26207353E+02   1763.77156545    2.02950090E-03   5.18284427E+20   1.87435366E+05   2.72068646E+05   1.02681656E+07   0.26328595      
  96               4.31467909E+02   1.37914909E+02   1805.31441381    2.16671840E-03   5.53329989E+20   1.72946090E+05   2.86651811E+05   8.50264380E+06   0.26177146      
  97               5.10456573E+02   1.50177317E+02   1845.91305960    2.30749680E-03   5.89276250E+20   1.60648178E+05   2.99019315E+05   6.76841601E+06   0.26050739      
  98               6.03905660E+02   1.63370321E+02   1886.75837555    2.45603316E-03   6.27166303E+20   1.48384825E+05   3.11448682E+05   5.01591049E+06   0.25898092      
  99               7.14462436E+02   1.77055218E+02   1926.32482519    2.60762266E-03   6.65740607E+20   1.33345497E+05   3.26733759E+05   3.30586094E+06   0.2577486       
  100              8.45258798E+02   1.90953706E+02   1964.17432676    2.75899042E-03   7.04164133E+20   1.21052199E+05   3.38212152E+05   1.66724441E+06   0.25627426      
  101              1.00000000E+03   2.05921348E+02   2002.34650014    2.92162584E-03   7.44882857E+20   1.16298609E+05   3.42894942E+05   0.00000000E+00   0.25506144      
