# ATMO pressure-temperature profile
# Effective temperature = 350.0K
# log(g) = 5.5cm/s^2
# M/H = 0.0
# Optical depth grid in band 17 (1.20-1.33microns)
# All parameters in cgs units
#
# Model Level      Optical Depth    Pressure         Temperature      Density          Number Density   Rad Flux         Conv Flux        Radial Extension Adiabatic Gradient
#                                   [Ba]             [K]              [g/cm^3]         [/cm^3]          [ergs/s/cm^2/sr] [ergs/s/cm^2/sr] [cm]             [K/Ba]          
  1                8.00000000E-07   1.00000000E-05   28.18026555      1.00609917E-08   2.57028190E+15   8.50753524E+05   0.00000000E+00   9.67739630E+05   0.34574502      
  2                9.86413681E-07   5.40883104E-05   36.86927724      4.15934230E-08   1.06258732E+16   8.50753524E+05   0.00000000E+00   9.60924240E+05   0.34574502      
  3                1.21626494E-06   1.08383530E-04   39.39403548      7.80043262E-08   1.99277680E+16   8.50753524E+05   0.00000000E+00   9.57909916E+05   0.31479375      
  4                1.49967547E-06   1.75243985E-04   41.51927804      1.19668321E-07   3.05716702E+16   8.50753524E+05   0.00000000E+00   9.55721548E+05   0.31481025      
  5                1.84912550E-06   2.57562631E-04   43.29075333      1.68683880E-07   4.30936767E+16   8.50753524E+05   0.00000000E+00   9.53889352E+05   0.31482405      
  6                2.28000336E-06   3.58892041E-04   45.39354328      2.24158708E-07   5.72658331E+16   8.50753524E+05   0.00000000E+00   9.52241490E+05   0.31483639      
  7                2.81128314E-06   4.83595983E-04   47.18068323      2.90605835E-07   7.42410830E+16   8.50753524E+05   0.00000000E+00   9.50696413E+05   0.31484786      
  8                3.46636019E-06   6.37026050E-04   49.18383396      3.67215229E-07   9.38124877E+16   8.50753524E+05   0.00000000E+00   9.49211168E+05   0.3148588       
  9                4.27408139E-06   8.25725515E-04   50.80200453      4.60829982E-07   1.17728252E+17   8.50753524E+05   0.00000000E+00   9.47760594E+05   0.31486943      
  10               5.27001545E-06   1.05774203E-03   52.69557763      5.69103772E-07   1.45388961E+17   8.50753524E+05   0.00000000E+00   9.46327902E+05   0.31487988      
  11               6.49801917E-06   1.34287722E-03   54.27459027      7.01496686E-07   1.79211383E+17   8.50753524E+05   0.00000000E+00   9.44900842E+05   0.31489028      
  12               8.01216876E-06   1.69310097E-03   56.24983150      8.53389910E-07   2.18015551E+17   8.50753524E+05   0.00000000E+00   9.43469448E+05   0.31490068      
  13               9.87914110E-06   2.12309902E-03   57.90575641      1.03952367E-06   2.65567148E+17   8.50753524E+05   0.00000000E+00   9.42025753E+05   0.31491118      
  14               1.21811499E-05   2.65064174E-03   60.02392902      1.25202351E-06   3.19854491E+17   8.50753524E+05   0.00000000E+00   9.40563461E+05   0.31492181      
  15               1.50195662E-05   3.29726874E-03   61.81819217      1.51225112E-06   3.86334848E+17   8.50753524E+05   0.00000000E+00   9.39077403E+05   0.31493264      
  16               1.85193820E-05   4.08939795E-03   64.09591970      1.80890127E-06   4.62120071E+17   8.50753524E+05   0.00000000E+00   9.37562878E+05   0.31494373      
  17               2.28347147E-05   5.05873926E-03   66.06646496      2.17093638E-06   5.54609195E+17   8.50753524E+05   0.00000000E+00   9.36016036E+05   0.31495511      
  18               2.81555937E-05   6.24313702E-03   68.56516690      2.58157770E-06   6.59515746E+17   8.50753524E+05   0.00000000E+00   9.34433945E+05   0.31496684      
  19               3.47163285E-05   7.68871104E-03   70.71319761      3.08275446E-06   7.87551390E+17   8.50753524E+05   0.00000000E+00   9.32813523E+05   0.31497898      
  20               4.28058268E-05   9.44873724E-03   73.43407718      3.64806024E-06   9.31970080E+17   8.50753524E+05   0.00000000E+00   9.31153865E+05   0.3149916       
  21               5.27803164E-05   1.15823594E-02   75.82459481      4.33084670E-06   1.10640156E+18   8.50753524E+05   0.00000000E+00   9.29456403E+05   0.31500473      
  22               6.50790328E-05   1.41601554E-02   78.85927569      5.09097666E-06   1.30059199E+18   8.50753524E+05   0.00000000E+00   9.27720355E+05   0.31501843      
  23               8.02435604E-05   1.72688806E-02   81.54225030      6.00436890E-06   1.53393633E+18   8.50753524E+05   0.00000000E+00   9.25942288E+05   0.3150328       
  24               9.89416822E-05   2.10150611E-02   84.98876032      7.01059750E-06   1.79099759E+18   8.50753524E+05   0.00000000E+00   9.24116386E+05   0.31504794      
  25               1.21996786E-04   2.55289659E-02   88.20010135      8.20634953E-06   2.09647641E+18   8.50753524E+05   0.00000000E+00   9.22234472E+05   0.31506402      
  26               1.50424124E-04   3.09677893E-02   92.29220303      9.51329714E-06   2.43036236E+18   8.50753524E+05   0.00000000E+00   9.20287927E+05   0.31508122      
  27               1.85475517E-04   3.75230614E-02   96.14088533      1.10656268E-05   2.82693607E+18   8.50753524E+05   0.00000000E+00   9.18267528E+05   0.31509975      
  28               2.28694484E-04   4.54286646E-02   100.96361490     1.27570697E-05   3.25904922E+18   8.50753524E+05   0.00000000E+00   9.16163403E+05   0.31511986      
  29               2.81984210E-04   5.49679846E-02   105.56838832     1.47625595E-05   3.77139275E+18   8.50753524E+05   0.00000000E+00   9.13965233E+05   0.31514188      
  30               3.47691354E-04   6.64799664E-02   111.23461035     1.69447914E-05   4.32889142E+18   8.50753523E+05   0.00000000E+00   9.11663520E+05   0.31855371      
  31               4.28709385E-04   8.03764161E-02   116.74615894     1.95195186E-05   4.98668432E+18   8.50753523E+05   0.00000000E+00   9.09247219E+05   0.31984702      
  32               5.28606003E-04   9.71581314E-02   123.52701624     2.22993874E-05   5.69695832E+18   8.50753523E+05   0.00000000E+00   9.06703580E+05   0.32378633      
  33               6.51780242E-04   1.17429244E-01   130.17049275     2.55747000E-05   6.53415683E+18   8.50753523E+05   0.00000000E+00   9.04019313E+05   0.32470353      
  34               8.03656185E-04   1.41913777E-01   137.96985088     2.91626319E-05   7.45017035E+18   8.50753523E+05   0.00000000E+00   9.01184181E+05   0.32585174      
  35               9.90921819E-04   1.71499627E-01   145.51233807     3.34156346E-05   8.53668391E+18   8.50753523E+05   0.00000000E+00   8.98187118E+05   0.32538873      
  36               1.22182355E-03   2.07275932E-01   154.24937980     3.80988440E-05   9.73310232E+18   8.50753522E+05   0.00000000E+00   8.95016349E+05   0.32488293      
  37               1.50652933E-03   2.50550150E-01   162.65893186     4.36720007E-05   1.11568756E+19   8.50753522E+05   0.00000000E+00   8.91661509E+05   0.3246373       
  38               1.85757643E-03   3.02905994E-01   171.99162536     4.99329080E-05   1.27563494E+19   8.50753522E+05   0.00000000E+00   8.88116068E+05   0.32298623      
  39               2.29042351E-03   3.66302080E-01   180.80044830     5.74415230E-05   1.46745814E+19   8.50753521E+05   0.00000000E+00   8.84372756E+05   0.32193065      
  40               2.82413135E-03   4.43161570E-01   190.54583376     6.59398506E-05   1.68456772E+19   8.50753522E+05   0.00000000E+00   8.80423543E+05   0.31887501      
  41               3.48220225E-03   5.36249886E-01   200.22868111     7.59317549E-05   1.93984382E+19   8.50753518E+05   0.00000000E+00   8.76263389E+05   0.31754773      
  42               4.29361493E-03   6.48762419E-01   210.50539332     8.73774459E-05   2.23227809E+19   8.50753516E+05   0.00000000E+00   8.71895319E+05   0.31472093      
  43               5.29410063E-03   7.84622748E-01   219.97069883     1.01111406E-04   2.58357992E+19   8.50753510E+05   0.00000000E+00   8.67324512E+05   0.31352584      
  44               6.52771662E-03   9.48660544E-01   229.84431476     1.17021135E-04   2.98952997E+19   8.50753509E+05   0.00000000E+00   8.62555684E+05   0.31114295      
  45               8.04878622E-03   1.14700050E+00   239.35053687     1.35791995E-04   3.47100342E+19   8.50753511E+05   0.00000000E+00   8.57580135E+05   0.31016204      
  46               9.92429106E-03   1.38698783E+00   249.98139527     1.57309295E-04   4.01874827E+19   8.50753509E+05   0.00000000E+00   8.52387664E+05   0.3082351       
  47               1.22368206E-02   1.67734709E+00   260.82419758     1.82332673E-04   4.65801519E+19   8.50753509E+05   0.00000000E+00   8.46966080E+05   0.30731576      
  48               1.50882091E-02   2.02849585E+00   273.36077328     2.10391102E-04   5.37481808E+19   8.50753509E+05   0.00000000E+00   8.41296574E+05   0.30565284      
  49               1.86040198E-02   2.45238178E+00   287.10147352     2.42182132E-04   6.18697697E+19   8.50704289E+05   0.00000000E+00   8.35358245E+05   0.30470147      
  50               2.29390746E-02   2.96194643E+00   304.07418962     2.76176728E-04   7.05542990E+19   8.48396038E+05   2.35846807E+03   8.29127576E+05   0.3033482       
  51               2.82842712E-02   3.57175627E+00   321.78833653     3.14703052E-04   8.03965397E+19   8.40909223E+05   9.84501320E+03   8.22586481E+05   0.30252599      
  52               3.48749902E-02   4.29968163E+00   340.36600627     3.58162043E-04   9.14989183E+19   8.30378216E+05   2.03756362E+04   8.15730074E+05   0.30167362      
  53               4.30014593E-02   5.16743621E+00   359.71353625     4.07293785E-04   1.04050503E+20   8.18723419E+05   3.20304400E+04   8.08545463E+05   0.30117066      
  54               5.30215347E-02   6.19891654E+00   380.01092358     4.62497267E-04   1.18153216E+20   8.08188991E+05   4.25646644E+04   8.01030057E+05   0.30071729      
  55               6.53764590E-02   7.41843986E+00   401.03356407     5.24470637E-04   1.33985468E+20   8.01782311E+05   4.89713470E+04   7.93199819E+05   0.30047184      
  56               8.06102920E-02   8.85500003E+00   422.99092248     5.93540423E-04   1.51629380E+20   8.02034292E+05   4.87192652E+04   7.85057661E+05   0.30016694      
  57               9.93938685E-02   1.05399623E+01   445.61949040     6.70606349E-04   1.71317102E+20   8.09673056E+05   4.10805321E+04   7.76612048E+05   0.29996386      
  58               1.22554340E-01   1.25028353E+01   469.10672049     7.55665551E-04   1.93046840E+20   8.22963576E+05   2.77898251E+04   7.67892508E+05   0.29977125      
  59               1.51111597E-01   1.47720548E+01   493.07300209     8.49420368E-04   2.16997897E+20   8.37989719E+05   1.27638759E+04   7.58935757E+05   0.29964063      
  60               1.86323183E-01   1.73897104E+01   517.85160593     9.52100471E-04   2.43227604E+20   8.50687060E+05   1.09560938E+03   7.49731041E+05   0.29944365      
  61               2.29739671E-01   2.04150871E+01   543.23300875     1.06551456E-03   2.72201758E+20   8.50752480E+05   0.00000000E+00   7.40232468E+05   0.29927272      
  62               2.83272943E-01   2.39046933E+01   567.22687646     1.19496745E-03   3.05247570E+20   8.50753330E+05   0.00000000E+00   7.30452708E+05   0.29907019      
  63               3.49280383E-01   2.79072628E+01   593.97511241     1.33222842E-03   3.40310096E+20   8.50833367E+05   0.00000000E+00   7.20421079E+05   0.29888673      
  64               4.30668686E-01   3.24703553E+01   621.31893386     1.48184286E-03   3.78528246E+20   8.34225772E+05   1.65248182E+04   7.10151116E+05   0.29862026      
  65               5.31021855E-01   3.76839747E+01   649.71085365     1.64462268E-03   4.20109422E+20   8.07163770E+05   4.35877771E+04   6.99590115E+05   0.29830007      
  66               6.54759028E-01   4.36370821E+01   678.58926029     1.82338513E-03   4.65773269E+20   7.74408115E+05   7.63437468E+04   6.88719068E+05   0.29786523      
  67               8.07329079E-01   5.04081511E+01   708.52249434     2.01732938E-03   5.15315215E+20   7.35959774E+05   1.14792190E+05   6.77554816E+05   0.29741987      
  68               9.95450561E-01   5.80704251E+01   738.78249971     2.22878451E-03   5.69330232E+20   6.91192461E+05   1.59559567E+05   6.66127737E+05   0.29687123      
  69               1.22740757E+00   6.67239260E+01   770.02865409     2.45699554E-03   6.27625450E+20   6.41720627E+05   2.09031446E+05   6.54433938E+05   0.2963121       
  70               1.51341452E+00   7.65821665E+01   801.90926146     2.70789665E-03   6.91716696E+20   5.92527489E+05   2.58224501E+05   6.42347977E+05   0.29560605      
  71               1.86606598E+00   8.78503218E+01   835.25778050     2.98230847E-03   7.61813504E+20   5.50663021E+05   3.00088755E+05   6.29809045E+05   0.29487587      
  72               2.30089127E+00   1.00694123E+02   869.31876758     3.28439200E-03   8.38978644E+20   5.19628090E+05   3.31123434E+05   6.16831581E+05   0.29394421      
  73               2.83703828E+00   1.15230576E+02   904.59533661     3.61199100E-03   9.22654766E+20   5.01581613E+05   3.49169661E+05   6.03485357E+05   0.29298977      
  74               3.49811672E+00   1.31541199E+02   940.11890584     3.96745614E-03   1.01345588E+21   4.96361466E+05   3.54389630E+05   5.89860211E+05   0.2918261       
  75               4.31323774E+00   1.49880682E+02   976.72985111     4.35117547E-03   1.11146820E+21   5.02268943E+05   3.48482026E+05   5.75902054E+05   0.29069061      
  76               5.31829590E+00   1.70505798E+02   1013.76443723    4.76911284E-03   1.21822621E+21   5.13613803E+05   3.37137029E+05   5.61584319E+05   0.28934876      
  77               6.55754979E+00   1.93621493E+02   1051.84644442    5.21959927E-03   1.33329749E+21   5.24633131E+05   3.26117539E+05   5.46933239E+05   0.28808395      
  78               8.08557104E+00   2.19400664E+02   1090.13907476    5.70680753E-03   1.45774604E+21   5.29392248E+05   3.21358208E+05   5.31996566E+05   0.28660224      
  79               9.96964736E+00   2.48004844E+02   1129.18210120    6.22782283E-03   1.59082357E+21   5.25480684E+05   3.25269623E+05   5.16823791E+05   0.28524464      
  80               1.22927457E+01   2.79737223E+02   1168.36554153    6.78928599E-03   1.73419272E+21   5.20867306E+05   3.29883189E+05   5.01391740E+05   0.2836391       
  81               1.51571657E+01   3.15189313E+02   1208.63185241    7.39485548E-03   1.88887530E+21   5.27769328E+05   3.22981387E+05   4.85569609E+05   0.28216264      
  82               1.86890445E+01   3.54928553E+02   1249.54451999    8.05454681E-03   2.05738251E+21   5.40778424E+05   3.09972248E+05   4.69286618E+05   0.28043204      
  83               2.30439114E+01   3.99364515E+02   1291.58172619    8.76797203E-03   2.23961528E+21   5.51735911E+05   2.99014721E+05   4.52565531E+05   0.27886628      
  84               2.84135369E+01   4.48827852E+02   1334.07132939    9.54007992E-03   2.43683760E+21   5.57969771E+05   2.92780885E+05   4.35463100E+05   0.27698972      
  85               3.50343769E+01   5.03598292E+02   1377.26926024    1.03685108E-02   2.64844668E+21   5.56459126E+05   2.94291323E+05   4.18048557E+05   0.275409        
  86               4.31979859E+01   5.62961333E+02   1419.96932196    1.12421757E-02   2.87160991E+21   5.52867827E+05   2.97882465E+05   4.00661230E+05   0.27356987      
  87               5.32638553E+01   6.28373299E+02   1463.24847675    1.21772781E-02   3.11046617E+21   5.53848423E+05   2.96901969E+05   3.82982259E+05   0.27195024      
  88               6.56752445E+01   7.01959482E+02   1507.79015562    1.32014476E-02   3.37207310E+21   5.56336710E+05   2.94413860E+05   3.64629116E+05   0.270029        
  89               8.09786996E+01   7.86151577E+02   1554.49317221    1.43406142E-02   3.66305391E+21   5.62751087E+05   2.87999830E+05   3.45279303E+05   0.26832562      
  90               9.98481215E+01   8.83923442E+02   1603.98758076    1.56265793E-02   3.99153085E+21   5.71164715E+05   2.79586691E+05   3.24625587E+05   0.26627394      
  91               1.23114441E+02   9.99119701E+02   1656.95582390    1.70981311E-02   4.36749516E+21   5.71614060E+05   2.79138365E+05   3.02339577E+05   0.26439413      
  92               1.51802212E+02   1.13638293E+03   1714.15094155    1.88081974E-02   4.80177139E+21   5.64287108E+05   2.86466339E+05   2.78130335E+05   0.26210248      
  93               1.87174723E+02   1.29847717E+03   1774.77211778    2.07569057E-02   5.29928845E+21   5.58874150E+05   2.91879750E+05   2.52187770E+05   0.25996966      
  94               2.30789634E+02   1.48834475E+03   1838.70478912    2.29648529E-02   5.86296596E+21   5.49566464E+05   3.01187424E+05   2.24687416E+05   0.25747366      
  95               2.84567566E+02   1.70990889E+03   1905.11262146    2.54639953E-02   6.50096991E+21   5.36154162E+05   3.14598326E+05   1.95713644E+05   0.25518904      
  96               3.50876675E+02   1.96825599E+03   1974.63284088    2.82803979E-02   7.21973181E+21   5.17260700E+05   3.33488846E+05   1.65269795E+05   0.25255511      
  97               4.32636941E+02   2.26964846E+03   2046.35654503    3.14719511E-02   8.03346914E+21   4.99414925E+05   3.51332772E+05   1.33322605E+05   0.25014479      
  98               5.33448747E+02   2.61968790E+03   2121.02764498    3.50610322E-02   8.94600354E+21   4.70067206E+05   3.80699496E+05   9.99986929E+04   0.24733979      
  99               6.57751428E+02   3.01384202E+03   2195.04861340    3.90289506E-02   9.94494031E+21   4.14930910E+05   4.36080905E+05   6.63003566E+04   0.24471591      
  100              8.11018759E+02   3.43101469E+03   2265.79405882    4.30431693E-02   1.09680137E+22   3.71631177E+05   4.80247946E+05   3.41140710E+04   0.24205203      
  101              1.00000000E+03   3.91945005E+03   2339.17873136    4.76294345E-02   1.21363353E+22   3.59508071E+05   4.93125331E+05   0.00000000E+00   0.23948719      
