# ATMO pressure-temperature profile
# Effective temperature = 350.0K
# log(g) = 4.5cm/s^2
# M/H = 0.0
# Optical depth grid in band 17 (1.20-1.33microns)
# All parameters in cgs units
#
# Model Level      Optical Depth    Pressure         Temperature      Density          Number Density   Rad Flux         Conv Flux        Radial Extension Adiabatic Gradient
#                                   [Ba]             [K]              [g/cm^3]         [/cm^3]          [ergs/s/cm^2/sr] [ergs/s/cm^2/sr] [cm]             [K/Ba]          
  1                5.00000000E-05   1.00000000E-05   39.94669654      7.09676659E-09   1.81319691E+15   8.50753783E+05   0.00000000E+00   9.09222924E+06   0.34612403      
  2                5.91534807E-05   3.92242074E-04   52.22963033      2.12901449E-07   5.43955115E+16   8.50753783E+05   0.00000000E+00   8.78125893E+06   0.31481539      
  3                6.99826855E-05   8.40727684E-04   59.71572476      3.99124175E-07   1.01974710E+17   8.50753783E+05   0.00000000E+00   8.73260643E+06   0.31484375      
  4                8.27943887E-05   1.36787883E-03   64.84964933      5.97972743E-07   1.52779764E+17   8.50753783E+05   0.00000000E+00   8.69848396E+06   0.31486352      
  5                9.79515255E-05   1.98731187E-03   68.93929691      8.17222979E-07   2.08797367E+17   8.50753783E+05   0.00000000E+00   8.67046298E+06   0.31487973      
  6                1.15883473E-04   2.71470997E-03   72.82349444      1.05680124E-06   2.70008703E+17   8.50753783E+05   0.00000000E+00   8.64571127E+06   0.31489403      
  7                1.37098216E-04   3.56181532E-03   76.42428711      1.32123903E-06   3.37571553E+17   8.50753783E+05   0.00000000E+00   8.62304134E+06   0.31490714      
  8                1.62196734E-04   4.54229898E-03   80.10042598      1.60761587E-06   4.10739746E+17   8.50753783E+05   0.00000000E+00   8.60176688E+06   0.31491942      
  9                1.91890027E-04   5.67386810E-03   83.67610255      1.92229123E-06   4.91138107E+17   8.50753783E+05   0.00000000E+00   8.58141145E+06   0.31493119      
  10               2.27019260E-04   6.97939948E-03   87.47440909      2.26192621E-06   5.77913553E+17   8.50753783E+05   0.00000000E+00   8.56161267E+06   0.31494263      
  11               2.68579588E-04   8.48868989E-03   91.26014729      2.63694393E-06   6.73729156E+17   8.50753783E+05   0.00000000E+00   8.54207003E+06   0.31495394      
  12               3.17748350E-04   1.02352475E-02   95.32405252      3.04394812E-06   7.77717181E+17   8.50753783E+05   0.00000000E+00   8.52257545E+06   0.31496526      
  13               3.75918418E-04   1.22574053E-02   99.49832674      3.49240147E-06   8.92295308E+17   8.50753783E+05   0.00000000E+00   8.50296289E+06   0.31497671      
  14               4.44737657E-04   1.46004009E-02   104.02331740     3.97901326E-06   1.01662298E+18   8.50753783E+05   0.00000000E+00   8.48308722E+06   0.31498836      
  15               5.26155608E-04   1.73174027E-02   108.70081174     4.51638341E-06   1.15392029E+18   8.50753783E+05   0.00000000E+00   8.46281941E+06   0.31638674      
  16               6.22478712E-04   2.04701749E-02   113.77274032     5.10062414E-06   1.30319431E+18   8.50753783E+05   0.00000000E+00   8.44204707E+06   0.31990079      
  17               7.36435649E-04   2.41294237E-02   119.13929416     5.74149592E-06   1.46695829E+18   8.50753782E+05   0.00000000E+00   8.42066411E+06   0.32181757      
  18               8.71254639E-04   2.83764666E-02   125.02916482     6.43348800E-06   1.64389028E+18   8.50753782E+05   0.00000000E+00   8.39856622E+06   0.32304103      
  19               1.03075489E-03   3.33062674E-02   131.22221684     7.19549084E-06   1.83841872E+18   8.50753782E+05   0.00000000E+00   8.37565354E+06   0.32364097      
  20               1.21945479E-03   3.90302392E-02   137.84585069     8.02692044E-06   2.05084744E+18   8.50753782E+05   0.00000000E+00   8.35183622E+06   0.32423242      
  21               1.44269991E-03   4.56770832E-02   144.72734666     8.94725112E-06   2.28598619E+18   8.50753782E+05   0.00000000E+00   8.32703368E+06   0.32469028      
  22               1.70681442E-03   5.33962747E-02   152.04067932     9.95618650E-06   2.54376505E+18   8.50753782E+05   0.00000000E+00   8.30117058E+06   0.32535781      
  23               2.01928028E-03   6.23622976E-02   159.54098578     1.10813250E-05   2.83123342E+18   8.50753782E+05   0.00000000E+00   8.27417719E+06   0.32582923      
  24               2.38894914E-03   7.27795839E-02   167.30860959     1.23319885E-05   3.15077302E+18   8.50753782E+05   0.00000000E+00   8.24599711E+06   0.32596641      
  25               2.82629313E-03   8.48847207E-02   175.15644019     1.37386826E-05   3.51017892E+18   8.50753782E+05   0.00000000E+00   8.21658809E+06   0.3256272       
  26               3.34370152E-03   9.89511395E-02   183.23592357     1.53091661E-05   3.91143410E+18   8.50753782E+05   0.00000000E+00   8.18591657E+06   0.32523503      
  27               3.95583167E-03   1.15292571E-01   191.44440500     1.70725402E-05   4.36198820E+18   8.50753782E+05   0.00000000E+00   8.15395227E+06   0.32505567      
  28               4.68002425E-03   1.34251188E-01   200.31111489     1.89998081E-05   4.85443765E+18   8.50753781E+05   0.00000000E+00   8.12066463E+06   0.32486232      
  29               5.53679448E-03   1.56228384E-01   208.88550470     2.11999112E-05   5.41723251E+18   8.50753780E+05   0.00000000E+00   8.08603637E+06   0.32472018      
  30               6.55041330E-03   1.81703553E-01   217.61488350     2.36710373E-05   6.04784516E+18   8.50753779E+05   0.00000000E+00   8.05007458E+06   0.32443609      
  31               7.74959494E-03   2.11237858E-01   225.81676309     2.65026935E-05   6.77550104E+18   8.50753778E+05   0.00000000E+00   8.01278623E+06   0.32400969      
  32               9.16831029E-03   2.45501652E-01   234.11886814     2.97277738E-05   7.59528093E+18   8.50753778E+05   0.00000000E+00   7.97418428E+06   0.32342501      
  33               1.08467493E-02   2.85293306E-01   242.10746141     3.34062940E-05   8.53511245E+18   8.50753778E+05   0.00000000E+00   7.93425452E+06   0.32271764      
  34               1.28324595E-02   3.31542719E-01   250.61138508     3.75043101E-05   9.58218470E+18   8.50753777E+05   0.00000000E+00   7.89293536E+06   0.3218492       
  35               1.51816929E-02   3.85297176E-01   259.20294747     4.21406074E-05   1.07666781E+19   8.50753781E+05   0.00000000E+00   7.85017676E+06   0.320889        
  36               1.79609996E-02   4.47745626E-01   268.60239324     4.72570267E-05   1.20738927E+19   8.50753779E+05   0.00000000E+00   7.80592424E+06   0.31979676      
  37               2.12491128E-02   5.20273685E-01   278.34846773     5.29892710E-05   1.35384475E+19   8.50753780E+05   0.00000000E+00   7.76009117E+06   0.31874063      
  38               2.51391797E-02   6.04391310E-01   289.28994437     5.92283716E-05   1.51325011E+19   8.50753779E+05   0.00000000E+00   7.71260927E+06   0.31758872      
  39               2.97413996E-02   7.01798230E-01   301.25358421     6.60427221E-05   1.68735276E+19   8.50748315E+05   0.00000000E+00   7.66335857E+06   0.31652935      
  40               3.51861462E-02   8.14330508E-01   315.83624764     7.30943240E-05   1.86751704E+19   8.48276024E+05   2.47817460E+03   7.61214054E+06   0.31535081      
  41               4.16276604E-02   9.44086747E-01   330.78767748     8.09109869E-05   2.06722819E+19   8.40745461E+05   1.00085984E+04   7.55878462E+06   0.31386917      
  42               4.92484201E-02   1.09362551E+00   346.46440052     8.94859674E-05   2.28631389E+19   8.29264105E+05   2.14898815E+04   7.50321050E+06   0.31170987      
  43               5.82643093E-02   1.26585858E+00   362.45403549     9.90095693E-05   2.52963633E+19   8.14528429E+05   3.62255213E+04   7.44534756E+06   0.31011805      
  44               6.89307339E-02   1.46406174E+00   379.26943176     1.09435074E-04   2.79600143E+19   7.97086605E+05   5.36673301E+04   7.38513408E+06   0.30837482      
  45               8.15498567E-02   1.69178023E+00   396.36527714     1.21002218E-04   3.09153512E+19   7.78270017E+05   7.24839144E+04   7.32255584E+06   0.30704712      
  46               9.64791575E-02   1.95300933E+00   414.35577614     1.33621308E-04   3.41394688E+19   7.59883372E+05   9.08705663E+04   7.25758970E+06   0.30568606      
  47               1.14141560E-01   2.25233758E+00   432.60282629     1.47602436E-04   3.77111668E+19   7.44137866E+05   1.06616080E+05   7.19018893E+06   0.30450976      
  48               1.35037411E-01   2.59472977E+00   451.80014082     1.62815291E-04   4.15979197E+19   7.32029694E+05   1.18724258E+05   7.12034487E+06   0.30348498      
  49               1.59758657E-01   2.98540763E+00   471.22358472     1.79608145E-04   4.58883518E+19   7.22899444E+05   1.27854508E+05   7.04809980E+06   0.30262393      
  50               1.89005613E-01   3.42985173E+00   491.60858036     1.97790584E-04   5.05337738E+19   7.14453619E+05   1.36300332E+05   6.97353197E+06   0.30200291      
  51               2.23606798E-01   3.93449973E+00   512.19229937     2.17775409E-04   5.56393842E+19   7.05157919E+05   1.45596027E+05   6.89663985E+06   0.30137878      
  52               2.64542408E-01   4.50771525E+00   533.81104995     2.39397651E-04   6.11638415E+19   6.95311220E+05   1.55442721E+05   6.81725208E+06   0.30096634      
  53               3.12972084E-01   5.15849967E+00   555.69566322     2.63191131E-04   6.72376056E+19   6.84666146E+05   1.66087787E+05   6.73526417E+06   0.30058783      
  54               3.70267763E-01   5.89585381E+00   578.67307953     2.88867434E-04   7.37970951E+19   6.70007103E+05   1.80746837E+05   6.65069907E+06   0.30040773      
  55               4.38052539E-01   6.72864133E+00   601.87369107     3.16961967E-04   8.09744223E+19   6.50645530E+05   2.00108428E+05   6.56366659E+06   0.30016639      
  56               5.18246648E-01   7.66629205E+00   626.12919375     3.47141472E-04   8.86844028E+19   6.27824598E+05   2.22929404E+05   6.47427755E+06   0.3000057       
  57               6.13121862E-01   8.72236209E+00   650.60608607     3.80102760E-04   9.71050530E+19   6.04250629E+05   2.46503430E+05   6.38234084E+06   0.2997971       
  58               7.25365844E-01   9.91152677E+00   676.25108286     4.15544495E-04   1.06159392E+20   5.81533688E+05   2.69220449E+05   6.28772089E+06   0.2996792       
  59               8.58158289E-01   1.12480773E+01   702.12758497     4.54199938E-04   1.16034756E+20   5.60741890E+05   2.90012322E+05   6.19043428E+06   0.29950658      
  60               1.01526100E+00   1.27461128E+01   729.16416709     4.95606586E-04   1.26612994E+20   5.41055079E+05   3.09699222E+05   6.09058842E+06   0.29937111      
  61               1.20112443E+00   1.44199447E+01   756.33440881     5.40547849E-04   1.38094244E+20   5.21949461E+05   3.28804932E+05   5.98832361E+06   0.29919067      
  62               1.42101382E+00   1.62906332E+01   784.70643288     5.88592764E-04   1.50368405E+20   5.05008766E+05   3.45745715E+05   5.88344740E+06   0.29906552      
  63               1.68115827E+00   1.83893407E+01   813.38472835     6.40994266E-04   1.63755533E+20   4.91667376E+05   3.59087155E+05   5.77539924E+06   0.29881862      
  64               1.98892727E+00   2.07452584E+01   843.48530376     6.97309243E-04   1.78142346E+20   4.83567592E+05   3.67186878E+05   5.66396454E+06   0.29856745      
  65               2.35303941E+00   2.33844651E+01   873.88634912     7.58680057E-04   1.93819882E+20   4.81209420E+05   3.69544892E+05   5.54922007E+06   0.29818275      
  66               2.78380943E+00   2.63288924E+01   905.61495624     8.24285043E-04   2.10578895E+20   4.85632803E+05   3.65121263E+05   5.43147754E+06   0.29783102      
  67               3.29344035E+00   2.95953603E+01   937.39359571     8.95137373E-04   2.28679634E+20   4.96603979E+05   3.54150288E+05   5.31122484E+06   0.29729137      
  68               3.89636920E+00   3.32134981E+01   970.36468991     9.70437145E-04   2.47916524E+20   5.14078102E+05   3.36681253E+05   5.18846492E+06   0.29680772      
  69               4.60967600E+00   3.72266194E+01   1003.44358804    1.05183724E-03   2.68711638E+20   5.35891839E+05   3.14864093E+05   5.06285488E+06   0.29607269      
  70               5.45356761E+00   4.16729859E+01   1037.79128607    1.13850137E-03   2.90850918E+20   5.58726816E+05   2.92027246E+05   4.93436635E+06   0.29542937      
  71               6.45195012E+00   4.65857637E+01   1072.17999177    1.23190552E-03   3.14710593E+20   5.78788805E+05   2.71965815E+05   4.80318505E+06   0.29446044      
  72               7.63310614E+00   5.19924171E+01   1107.65213617    1.33088353E-03   3.39987115E+20   5.95270440E+05   2.55489686E+05   4.66965751E+06   0.29356857      
  73               9.03049593E+00   5.79217930E+01   1142.97310557    1.43684150E-03   3.67055575E+20   6.13821112E+05   2.36933045E+05   4.53406536E+06   0.29242146      
  74               1.06837053E+01   6.44247742E+01   1179.31987032    1.54890095E-03   3.95682761E+20   6.35394383E+05   2.15360124E+05   4.39621869E+06   0.29122427      
  75               1.26395671E+01   7.15830626E+01   1215.68041730    1.66952473E-03   4.26497700E+20   6.57524050E+05   1.93230240E+05   4.25545165E+06   0.2898289       
  76               1.49534878E+01   7.94701170E+01   1253.28490022    1.79786066E-03   4.59282486E+20   6.77517430E+05   1.73245975E+05   4.11149211E+06   0.28853911      
  77               1.76910170E+01   8.81467288E+01   1290.92850670    1.93600589E-03   4.94572368E+20   6.93794079E+05   1.56961330E+05   3.96442387E+06   0.28697814      
  78               2.09297047E+01   9.76619089E+01   1329.65964752    2.08251930E-03   5.31998686E+20   7.04860480E+05   1.45894763E+05   3.81456954E+06   0.28567867      
  79               2.47612977E+01   1.08053968E+02   1368.25188462    2.23914204E-03   5.72005895E+20   7.08981766E+05   1.41772384E+05   3.66238641E+06   0.28395442      
  80               2.92943389E+01   1.19365168E+02   1407.62770632    2.40436405E-03   6.14208250E+20   7.07922222E+05   1.42831835E+05   3.50822771E+06   0.2825559       
  81               3.46572422E+01   1.31688426E+02   1446.90347256    2.58060649E-03   6.59225331E+20   7.01800500E+05   1.48968260E+05   3.35178155E+06   0.28080779      
  82               4.10019301E+01   1.45156556E+02   1487.11643512    2.76762702E-03   7.06996918E+20   6.92387794E+05   1.58366451E+05   3.19241651E+06   0.27933725      
  83               4.85081376E+01   1.59862587E+02   1527.42377594    2.96758506E-03   7.58076669E+20   6.77695498E+05   1.73058628E+05   3.03014560E+06   0.27747383      
  84               5.73885036E+01   1.75860495E+02   1568.43789739    3.17919099E-03   8.12132337E+20   6.59797640E+05   1.90957310E+05   2.86544159E+06   0.27604995      
  85               6.78945948E+01   1.93173156E+02   1609.35124534    3.40336372E-03   8.69404280E+20   6.36627214E+05   2.14129697E+05   2.69900379E+06   0.27412054      
  86               8.03240320E+01   2.11803317E+02   1650.46580731    3.63869151E-03   9.29505716E+20   6.10995221E+05   2.39764939E+05   2.53158966E+06   0.27259286      
  87               9.50289215E+01   2.31748135E+02   1691.23757889    3.88524493E-03   9.92515889E+20   5.81887952E+05   2.68871734E+05   2.36384489E+06   0.27085233      
  88               1.12425830E+02   2.52988693E+02   1731.83999811    4.14394641E-03   1.05808166E+21   5.51713514E+05   2.99061496E+05   2.19642697E+06   0.26919744      
  89               1.33007583E+02   2.75632085E+02   1772.06167300    4.41234445E-03   1.12661824E+21   5.22150811E+05   3.28616723E+05   2.02897094E+06   0.26768096      
  90               1.57357229E+02   2.99808597E+02   1812.37206577    4.69262918E-03   1.19818137E+21   4.95320230E+05   3.55448915E+05   1.86095429E+06   0.26605646      
  91               1.86164557E+02   3.25845296E+02   1852.74764412    4.98901418E-03   1.27385802E+21   4.67605317E+05   3.83252927E+05   1.69078881E+06   0.26451521      
  92               2.20245630E+02   3.53597718E+02   1893.23247422    5.29834182E-03   1.35279300E+21   4.34539548E+05   4.16363736E+05   1.52009188E+06   0.26298747      
  93               2.60565913E+02   3.82954444E+02   1933.13005659    5.62020811E-03   1.43486777E+21   4.04410471E+05   4.46530009E+05   1.34996857E+06   0.26149501      
  94               3.08267614E+02   4.14656325E+02   1973.75785435    5.96116895E-03   1.52166924E+21   3.73865113E+05   4.77188644E+05   1.17676891E+06   0.26002443      
  95               3.64702046E+02   4.48002912E+02   2013.61997084    6.31505168E-03   1.61149576E+21   3.37117139E+05   5.14036782E+05   1.00489720E+06   0.25859591      
  96               4.31467909E+02   4.82645336E+02   2052.79529366    6.67683924E-03   1.70297515E+21   3.08196396E+05   5.42577481E+05   8.36186059E+05   0.25723975      
  97               5.10456573E+02   5.20200495E+02   2092.52079106    7.06466646E-03   1.80063969E+21   2.79919286E+05   5.70837606E+05   6.63264243E+05   0.25580409      
  98               6.03905660E+02   5.58247364E+02   2130.64992597    7.44617159E-03   1.89775621E+21   2.45023701E+05   6.07495600E+05   4.97377355E+05   0.25452094      
  99               7.14462436E+02   5.96010328E+02   2166.24539214    7.81906811E-03   1.99283789E+21   2.22115640E+05   6.31120379E+05   3.40874446E+05   0.25326019      
  100              8.45258798E+02   6.38010631E+02   2203.94882403    8.22667579E-03   2.09677702E+21   2.11150316E+05   6.41992206E+05   1.75273376E+05   0.2519512       
  101              1.00000000E+03   6.84832355E+02   2243.40660102    8.67439885E-03   2.21106809E+21   2.05165534E+05   6.45590935E+05   0.00000000E+00   0.25056564      
