# ATMO pressure-temperature profile
# Effective temperature = 1100.0K
# log(g) = 4.0cm/s^2
# M/H = 0.0
# Optical depth grid in band 17 (1.20-1.33microns)
# All parameters in cgs units
#
# Model Level      Optical Depth    Pressure         Temperature      Density          Number Density   Rad Flux         Conv Flux        Radial Extension Adiabatic Gradient
#                                   [Ba]             [K]              [g/cm^3]         [/cm^3]          [ergs/s/cm^2/sr] [ergs/s/cm^2/sr] [cm]             [K/Ba]          
  1                5.00000000E-05   1.00000000E-05   347.34972103     8.15831567E-10   2.08525363E+14   8.30126692E+07   0.00000000E+00   5.46015682E+07   0.29884886      
  2                5.91534807E-05   3.58544153E-04   406.89866599     2.49703369E-08   6.38237353E+15   8.30126691E+07   0.00000000E+00   4.68792916E+07   0.29980795      
  3                6.99826855E-05   7.40766195E-04   432.36361759     4.85512504E-08   1.24096020E+16   8.30126690E+07   0.00000000E+00   4.57815413E+07   0.29959937      
  4                8.27943887E-05   1.17702980E-03   450.58201119     7.40260337E-08   1.89207979E+16   8.30126689E+07   0.00000000E+00   4.50538336E+07   0.29949102      
  5                9.79515255E-05   1.68047441E-03   463.65772765     1.02708237E-07   2.62518698E+16   8.30126688E+07   0.00000000E+00   4.44764601E+07   0.2994284       
  6                1.15883473E-04   2.26501258E-03   474.87265761     1.35165024E-07   3.45477123E+16   8.30126687E+07   0.00000000E+00   4.39803500E+07   0.29936556      
  7                1.37098216E-04   2.94541354E-03   484.71230128     1.72199989E-07   4.40137201E+16   8.30126685E+07   0.00000000E+00   4.35343691E+07   0.29932334      
  8                1.62196734E-04   3.73855638E-03   493.99077005     2.14464783E-07   5.48164541E+16   8.30126684E+07   0.00000000E+00   4.31216479E+07   0.29927168      
  9                1.91890027E-04   4.66395220E-03   502.57425719     2.62981229E-07   6.72170875E+16   8.30126683E+07   0.00000000E+00   4.27319867E+07   0.29923583      
  10               2.27019260E-04   5.74427272E-03   510.93589519     3.18595433E-07   8.14318826E+16   8.30126681E+07   0.00000000E+00   4.23587619E+07   0.29918818      
  11               2.68579588E-04   7.00605224E-03   519.00788042     3.82534265E-07   9.77744224E+16   8.30126680E+07   0.00000000E+00   4.19973283E+07   0.29915348      
  12               3.17748350E-04   8.48038313E-03   527.07737346     4.55944555E-07   1.16537833E+17   8.30126678E+07   0.00000000E+00   4.16443047E+07   0.29913676      
  13               3.75918418E-04   1.02034672E-02   534.93632268     5.40526055E-07   1.38156565E+17   8.30126677E+07   0.00000000E+00   4.12972146E+07   0.29911181      
  14               4.44737657E-04   1.22172770E-02   542.98813841     6.37609875E-07   1.62970845E+17   8.30126675E+07   0.00000000E+00   4.09541842E+07   0.29902893      
  15               5.26155608E-04   1.45704823E-02   551.11835182     7.49203885E-07   1.91493878E+17   8.30126674E+07   0.00000000E+00   4.06137115E+07   0.29895155      
  16               6.22478712E-04   1.73194507E-02   559.58326318     8.77082349E-07   2.24179159E+17   8.30126672E+07   0.00000000E+00   4.02745945E+07   0.29888972      
  17               7.36435649E-04   2.05291493E-02   568.24549859     1.02377831E-06   2.61674129E+17   8.30126671E+07   0.00000000E+00   3.99358743E+07   0.29886156      
  18               8.71254639E-04   2.42743092E-02   577.34377288     1.19147073E-06   3.04535715E+17   8.30126670E+07   0.00000000E+00   3.95967760E+07   0.29880468      
  19               1.03075489E-03   2.86410401E-02   586.83102894     1.38307808E-06   3.53509880E+17   8.30126668E+07   0.00000000E+00   3.92566096E+07   0.29874622      
  20               1.21945479E-03   3.37283566E-02   596.84941956     1.60140573E-06   4.09313665E+17   8.30126666E+07   0.00000000E+00   3.89147760E+07   0.29864639      
  21               1.44269991E-03   3.96494886E-02   607.24825870     1.85030054E-06   4.72930313E+17   8.30126663E+07   0.00000000E+00   3.85707962E+07   0.29855934      
  22               1.70681442E-03   4.65331528E-02   618.26846805     2.13283047E-06   5.45143980E+17   8.30126658E+07   0.00000000E+00   3.82242825E+07   0.2984419       
  23               2.01928028E-03   5.45265895E-02   629.86084241     2.45320964E-06   6.27031797E+17   8.30126654E+07   0.00000000E+00   3.78748301E+07   0.29834077      
  24               2.38894914E-03   6.38028682E-02   642.26251069     2.81513079E-06   7.19537560E+17   8.30126648E+07   0.00000000E+00   3.75218444E+07   0.29820136      
  25               2.82629313E-03   7.45584290E-02   655.30130987     3.22423457E-06   8.24103108E+17   8.30126641E+07   0.00000000E+00   3.71648425E+07   0.29806768      
  26               3.34370152E-03   8.70137721E-02   669.30665039     3.68412092E-06   9.41648231E+17   8.30126633E+07   0.00000000E+00   3.68034531E+07   0.2978792       
  27               3.95583167E-03   1.01414221E-01   684.15670277     4.20062821E-06   1.07366579E+18   8.30126624E+07   0.00000000E+00   3.64373933E+07   0.29768569      
  28               4.68002425E-03   1.18036116E-01   700.25910997     4.77669670E-06   1.22090531E+18   8.30126614E+07   0.00000000E+00   3.60663201E+07   0.29741735      
  29               5.53679448E-03   1.37185898E-01   717.35723765     5.41932741E-06   1.38515963E+18   8.30126603E+07   0.00000000E+00   3.56899394E+07   0.29716471      
  30               6.55041330E-03   1.59195415E-01   735.83048014     6.13094053E-06   1.56703473E+18   8.30126588E+07   0.00000000E+00   3.53081052E+07   0.29686245      
  31               7.74959494E-03   1.84418284E-01   755.50049004     6.91740813E-06   1.76805213E+18   8.30126573E+07   0.00000000E+00   3.49207947E+07   0.29656854      
  32               9.16831029E-03   2.13244125E-01   776.84925191     7.77887839E-06   1.98822789E+18   8.30126555E+07   0.00000000E+00   3.45278312E+07   0.29615484      
  33               1.08467493E-02   2.46155115E-01   799.69878053     8.72286205E-06   2.22950408E+18   8.30126538E+07   0.00000000E+00   3.41282979E+07   0.2956993       
  34               1.28324595E-02   2.83669797E-01   824.33971660     9.75176774E-06   2.49248592E+18   8.30126516E+07   0.00000000E+00   3.37215455E+07   0.29510708      
  35               1.51816929E-02   3.26321531E-01   850.57450175     1.08720086E-05   2.77881228E+18   8.30126496E+07   0.00000000E+00   3.33073169E+07   0.29448903      
  36               1.79609996E-02   3.74643460E-01   878.62159753     1.20835033E-05   3.08846099E+18   8.30126462E+07   0.00000000E+00   3.28857242E+07   0.29373007      
  37               2.12491128E-02   4.29153585E-01   908.21770351     1.33906103E-05   3.42254070E+18   8.30126435E+07   0.00000000E+00   3.24571947E+07   0.29295571      
  38               2.51391797E-02   4.90392718E-01   939.53749213     1.47914699E-05   3.78055653E+18   8.30126395E+07   0.00000000E+00   3.20220600E+07   0.29203801      
  39               2.97413996E-02   5.59083787E-01   972.25012274     1.62962202E-05   4.16509327E+18   8.30126364E+07   0.00000000E+00   3.15796227E+07   0.29111239      
  40               3.51861462E-02   6.36023770E-01   1006.47630417    1.79082407E-05   4.57715513E+18   8.30126363E+07   0.00000000E+00   3.11292394E+07   0.29004784      
  41               4.16276604E-02   7.21994845E-01   1041.80769925    1.96391333E-05   5.01963771E+18   8.30126390E+07   0.00000000E+00   3.06708180E+07   0.28898278      
  42               4.92484201E-02   8.17762334E-01   1078.22230776    2.14923878E-05   5.49344309E+18   8.30126475E+07   0.00000000E+00   3.02046798E+07   0.28776774      
  43               5.82643093E-02   9.24156150E-01   1115.18367491    2.34829890E-05   6.00239808E+18   8.30126609E+07   0.00000000E+00   2.97310952E+07   0.28656063      
  44               6.89307339E-02   1.04220112E+00   1152.71643357    2.56195571E-05   6.54869693E+18   8.30126785E+07   0.00000000E+00   2.92498292E+07   0.28521645      
  45               8.15498567E-02   1.17333728E+00   1190.51806912    2.79266225E-05   7.13859457E+18   8.30126968E+07   0.00000000E+00   2.87595679E+07   0.28392187      
  46               9.64791575E-02   1.31906072E+00   1228.82775762    3.04155451E-05   7.77498598E+18   8.30127173E+07   0.00000000E+00   2.82595650E+07   0.28252438      
  47               1.14141560E-01   1.48085723E+00   1267.40826349    3.31062829E-05   8.46296401E+18   8.30127329E+07   0.00000000E+00   2.77496870E+07   0.28119807      
  48               1.35037411E-01   1.66021896E+00   1306.54295267    3.60038397E-05   9.20380731E+18   8.30127457E+07   0.00000000E+00   2.72301694E+07   0.27978742      
  49               1.59758657E-01   1.85876967E+00   1345.96530929    3.91285294E-05   1.00027071E+19   8.30127521E+07   0.00000000E+00   2.67011758E+07   0.2784856       
  50               1.89005613E-01   2.07845439E+00   1385.86720279    4.24928868E-05   1.08628735E+19   8.30127516E+07   0.00000000E+00   2.61624160E+07   0.27709799      
  51               2.23606798E-01   2.32193315E+00   1425.99380597    4.61344904E-05   1.17939128E+19   8.30127450E+07   0.00000000E+00   2.56125075E+07   0.27573221      
  52               2.64542408E-01   2.59225681E+00   1466.62811218    5.00784209E-05   1.28021779E+19   8.30127333E+07   0.00000000E+00   2.50501054E+07   0.27424365      
  53               3.12972084E-01   2.89223195E+00   1507.55342900    5.43572107E-05   1.38958861E+19   8.30127150E+07   0.00000000E+00   2.44751508E+07   0.27283246      
  54               3.70267763E-01   3.22340147E+00   1549.09675763    5.89599423E-05   1.50716810E+19   8.30127050E+07   0.00000000E+00   2.38901602E+07   0.27131625      
  55               4.38052539E-01   3.58414571E+00   1591.18051978    6.38423839E-05   1.63151865E+19   8.30114574E+07   0.00000000E+00   2.33021483E+07   0.26986007      
  56               5.18246648E-01   3.96756783E+00   1634.84273860    6.87877090E-05   1.75781926E+19   8.23518802E+07   6.67087987E+05   2.27235605E+07   0.26828332      
  57               6.13121862E-01   4.36272038E+00   1677.34897662    7.37354187E-05   1.88390843E+19   8.00300542E+07   3.00694188E+06   2.21687074E+07   0.26682423      
  58               7.25365844E-01   4.75086521E+00   1715.35858052    7.85416188E-05   2.00605866E+19   7.63932257E+07   6.66525933E+06   2.16586556E+07   0.2653486       
  59               8.58158289E-01   5.10974896E+00   1749.19435004    8.28897802E-05   2.11586199E+19   7.17987765E+07   1.12439652E+07   2.12138500E+07   0.26417429      
  60               1.01526100E+00   5.42050879E+00   1776.16811576    8.66462228E-05   2.21045574E+19   6.72095105E+07   1.57924932E+07   2.08471507E+07   0.26313832      
  61               1.20112443E+00   5.76160988E+00   1805.34358827    9.06130915E-05   2.31158475E+19   6.25739777E+07   2.04239627E+07   2.04621930E+07   0.26218037      
  62               1.42101382E+00   6.05225410E+00   1828.25669350    9.40187271E-05   2.39776061E+19   5.80708545E+07   2.49637655E+07   2.01472901E+07   0.26103287      
  63               1.68115827E+00   6.28262120E+00   1846.60710586    9.66269272E-05   2.46429226E+19   5.43747165E+07   2.87072702E+07   1.99055970E+07   0.26020656      
  64               1.98892727E+00   6.54318163E+00   1865.74116544    9.96012325E-05   2.54017374E+19   5.10829291E+07   3.19957482E+07   1.96399976E+07   0.25943941      
  65               2.35303941E+00   6.83675343E+00   1887.55187635    1.02865782E-04   2.62347458E+19   4.77074932E+07   3.53432033E+07   1.93499651E+07   0.25871948      
  66               2.78380943E+00   7.16610626E+00   1910.16120224    1.06538739E-04   2.71730923E+19   4.35317702E+07   3.95082796E+07   1.90353553E+07   0.25777534      
  67               3.29344035E+00   7.40761342E+00   1926.98097820    1.09265180E-04   2.78436856E+19   3.93422231E+07   4.37395100E+07   1.88114881E+07   0.25689641      
  68               3.89636920E+00   7.57786574E+00   1937.77667935    1.11152390E-04   2.83249415E+19   3.63645731E+07   4.67900648E+07   1.86570008E+07   0.25610604      
  69               4.60967600E+00   7.77335617E+00   1950.91432728    1.13250383E-04   2.88599921E+19   3.41336651E+07   4.90408438E+07   1.84827614E+07   0.25566687      
  70               5.45356761E+00   7.99702705E+00   1964.63599994    1.15693441E-04   2.94830431E+19   3.21373762E+07   5.10188491E+07   1.82873566E+07   0.25499139      
  71               6.45195012E+00   8.25184061E+00   1980.85990364    1.18399756E-04   3.01733069E+19   3.03074392E+07   5.28272766E+07   1.80696393E+07   0.25436168      
  72               7.63310614E+00   8.54088105E+00   1997.79450932    1.21505383E-04   3.09654715E+19   2.85283413E+07   5.45736589E+07   1.78286568E+07   0.25349101      
  73               9.03049593E+00   8.86752401E+00   2017.32724487    1.24927368E-04   3.18384457E+19   2.68604894E+07   5.61958902E+07   1.75635341E+07   0.25267757      
  74               1.06837053E+01   9.23501902E+00   2037.63368476    1.28803812E-04   3.28274783E+19   2.52939594E+07   5.77192778E+07   1.72738274E+07   0.2515996       
  75               1.26395671E+01   9.64911478E+00   2060.66314814    1.33069679E-04   3.39161313E+19   2.39182902E+07   5.90623217E+07   1.69575289E+07   0.25057451      
  76               1.49534878E+01   1.01141495E+01   2084.59852018    1.37874683E-04   3.51425105E+19   2.25544146E+07   6.03942991E+07   1.66142051E+07   0.24923959      
  77               1.76910170E+01   1.06347308E+01   2111.22931128    1.43133846E-04   3.64852170E+19   2.12547419E+07   6.16663477E+07   1.62436306E+07   0.24795736      
  78               2.09297047E+01   1.12157371E+01   2138.73076369    1.49002200E-04   3.79837241E+19   1.99285630E+07   6.29691909E+07   1.58457857E+07   0.24633408      
  79               2.47612977E+01   1.18624001E+01   2168.82144909    1.55393302E-04   3.96163636E+19   1.86577747E+07   6.42195856E+07   1.54208080E+07   0.24481954      
  80               2.92943389E+01   1.25803046E+01   2199.70508121    1.62467752E-04   4.14240483E+19   1.73571433E+07   6.55106104E+07   1.49689857E+07   0.24290577      
  81               3.46572422E+01   1.33755106E+01   2233.00246038    1.70141005E-04   4.33857398E+19   1.61205247E+07   6.67262072E+07   1.44906944E+07   0.24107457      
  82               4.10019301E+01   1.42545478E+01   2266.97402990    1.78580655E-04   4.55441645E+19   1.48684833E+07   6.79781041E+07   1.39863972E+07   0.2387278       
  83               4.85081376E+01   1.52246155E+01   2303.11229299    1.87708966E-04   4.78803215E+19   1.36900000E+07   6.91628176E+07   1.34565586E+07   0.23656753      
  84               5.73885036E+01   1.62930537E+01   2339.80614646    1.97713889E-04   5.04369077E+19   1.25043125E+07   7.03607354E+07   1.29019294E+07   0.23388666      
  85               6.78945948E+01   1.74685175E+01   2378.37985345    2.08492766E-04   5.31986573E+19   1.14345548E+07   7.14473642E+07   1.23229716E+07   0.2313311       
  86               8.03240320E+01   1.87608115E+01   2417.40537890    2.20245455E-04   5.62118625E+19   1.04076448E+07   7.24948258E+07   1.17199064E+07   0.22833109      
  87               9.50289215E+01   2.01802661E+01   2458.05544179    2.32921601E-04   5.94649494E+19   9.46533482E+06   7.34602957E+07   1.10931983E+07   0.22552884      
  88               1.12425830E+02   2.17381705E+01   2499.06529010    2.46702667E-04   6.30044505E+19   8.54887081E+06   7.44016018E+07   1.04432910E+07   0.2222632       
  89               1.33007583E+02   2.34472650E+01   2541.41872456    2.61562944E-04   6.68254369E+19   7.71946311E+06   7.52564161E+07   9.77047893E+06   0.219247        
  90               1.57357229E+02   2.53214754E+01   2584.08562483    2.77686840E-04   7.09754159E+19   6.93376179E+06   7.60673130E+07   9.07504562E+06   0.21574572      
  91               1.86164557E+02   2.73763497E+01   2627.80395353    2.95082869E-04   7.54585434E+19   6.23102041E+06   7.67945650E+07   8.35718707E+06   0.21259937      
  92               2.20245630E+02   2.96288434E+01   2671.85109166    3.13928045E-04   8.03208486E+19   5.57389303E+06   7.74751425E+07   7.61710481E+06   0.20894492      
  93               2.60565913E+02   3.20976669E+01   2716.63444177    3.34279644E-04   8.55791764E+19   4.99367598E+06   7.80780345E+07   6.85498409E+06   0.20567138      
  94               3.08267614E+02   3.48030272E+01   2761.78397965    3.56295306E-04   9.12752759E+19   4.45804928E+06   7.86354110E+07   6.07106890E+06   0.20192664      
  95               3.64702046E+02   3.77672097E+01   2807.34707217    3.80093440E-04   9.74416505E+19   3.98511006E+06   7.91299588E+07   5.26558121E+06   0.19878316      
  96               4.31467909E+02   4.10140987E+01   2853.42619357    4.05787358E-04   1.04109981E+20   3.54700914E+06   7.95893971E+07   4.43882502E+06   0.19514298      
  97               5.10456573E+02   4.45699005E+01   2899.56313785    4.33587803E-04   1.11335826E+20   3.15677134E+06   8.00018444E+07   3.59110129E+06   0.19210058      
  98               6.03905660E+02   4.84625237E+01   2946.38266792    4.63541813E-04   1.19135918E+20   2.79743590E+06   8.03841394E+07   2.72281239E+06   0.18858494      
  99               7.14462436E+02   5.27224289E+01   2992.89134573    4.95975483E-04   1.27594014E+20   2.47629784E+06   8.07299212E+07   1.83436806E+06   0.18566258      
  100              8.45258798E+02   5.73816203E+01   3040.26188084    5.30842753E-04   1.36706024E+20   2.19240185E+06   8.10393197E+07   9.26332865E+05   0.18308695      
  101              1.00000000E+03   6.24703306E+01   3087.31437452    5.68493764E-04   1.46561125E+20   2.04389968E+06   8.12083879E+07   0.00000000E+00   0.18074571      
