# ATMO pressure-temperature profile
# Effective temperature = 1700.0K
# log(g) = 3.5cm/s^2
# M/H = 0.0
# Optical depth grid in band 17 (1.20-1.33microns)
# All parameters in cgs units
#
# Model Level      Optical Depth    Pressure         Temperature      Density          Number Density   Rad Flux         Conv Flux        Radial Extension Adiabatic Gradient
#                                   [Ba]             [K]              [g/cm^3]         [/cm^3]          [ergs/s/cm^2/sr] [ergs/s/cm^2/sr] [cm]             [K/Ba]          
  1                3.00000000E-06   1.00000000E-05   400.18574328     7.08455258E-10   1.80994020E+14   4.73555612E+08   0.00000000E+00   2.18889115E+08   0.29799798      
  2                3.65048058E-06   1.66051532E-05   461.06548235     1.02107443E-09   2.60859175E+14   4.73555612E+08   0.00000000E+00   2.16433280E+08   0.29792816      
  3                4.44200282E-06   2.40569047E-05   494.73998314     1.37860490E-09   3.52199372E+14   4.73555612E+08   0.00000000E+00   2.14447140E+08   0.29782139      
  4                5.40514834E-06   3.27929902E-05   509.96404584     1.82313369E-09   4.65765483E+14   4.73555612E+08   0.00000000E+00   2.12704580E+08   0.29762218      
  5                6.57712968E-06   4.31390903E-05   531.40817166     2.30154623E-09   5.87988178E+14   4.73555612E+08   0.00000000E+00   2.11107386E+08   0.29750752      
  6                8.00322805E-06   5.54459158E-05   541.60884222     2.90242287E-09   7.41497438E+14   4.73555612E+08   0.00000000E+00   2.09601626E+08   0.29726397      
  7                9.73854285E-06   7.01304214E-05   559.53032746     3.55352552E-09   9.07838627E+14   4.73555612E+08   0.00000000E+00   2.08155689E+08   0.29714278      
  8                1.18501205E-05   8.76735905E-05   567.95755684     4.37652466E-09   1.11809512E+15   4.73555612E+08   0.00000000E+00   2.06748950E+08   0.29685756      
  9                1.44195449E-05   1.08652260E-04   584.70079972     5.26842697E-09   1.34595617E+15   4.73555612E+08   0.00000000E+00   2.05367380E+08   0.29706799      
  10               1.75460896E-05   1.33740927E-04   592.71867959     6.39721985E-09   1.63433678E+15   4.73555612E+08   0.00000000E+00   2.04000780E+08   0.29683888      
  11               2.13505531E-05   1.63747911E-04   609.27886439     7.61963478E-09   1.94663933E+15   4.73555612E+08   0.00000000E+00   2.02641654E+08   0.29674356      
  12               2.59799264E-05   1.99626893E-04   617.25265939     9.16916576E-09   2.34251251E+15   4.73555612E+08   0.00000000E+00   2.01284253E+08   0.29649667      
  13               3.16130723E-05   2.42535848E-04   633.68356733     1.08511614E-08   2.77223047E+15   4.73555612E+08   0.00000000E+00   1.99923919E+08   0.29639717      
  14               3.84676354E-05   2.93878636E-04   641.43058517     1.29894243E-08   3.31851810E+15   4.73555612E+08   0.00000000E+00   1.98556359E+08   0.29613233      
  15               4.68084520E-05   3.55345684E-04   657.70537585     1.53175027E-08   3.91332118E+15   4.73555612E+08   0.00000000E+00   1.97178344E+08   0.29602682      
  16               5.69577817E-05   4.28943423E-04   665.33606684     1.82778846E-08   4.66965490E+15   4.73555613E+08   0.00000000E+00   1.95787407E+08   0.29573801      
  17               6.93077586E-05   5.17075380E-04   681.65433191     2.15054508E-08   5.49433961E+15   4.73555613E+08   0.00000000E+00   1.94381696E+08   0.29562678      
  18               8.43355422E-05   6.22590449E-04   689.32265358     2.56057419E-08   6.54192773E+15   4.73555613E+08   0.00000000E+00   1.92959788E+08   0.29531423      
  19               1.02621753E-04   7.48888203E-04   705.89403206     3.00763782E-08   7.68428243E+15   4.73555613E+08   0.00000000E+00   1.91520611E+08   0.29519501      
  20               1.24872905E-04   8.99995486E-04   713.70825704     3.57491989E-08   9.13367280E+15   4.73555613E+08   0.00000000E+00   1.90063342E+08   0.29485534      
  21               1.51948705E-04   1.08070834E-03   730.60847307     4.19334831E-08   1.07139506E+16   4.73555614E+08   0.00000000E+00   1.88587379E+08   0.29472653      
  22               1.84895266E-04   1.29670586E-03   738.55039279     4.97734077E-08   1.27170734E+16   4.73555614E+08   0.00000000E+00   1.87092282E+08   0.29435885      
  23               2.24985526E-04   1.55473694E-03   755.78966640     5.83154095E-08   1.48998469E+16   4.73555615E+08   0.00000000E+00   1.85577738E+08   0.29421846      
  24               2.73768430E-04   1.86283640E-03   763.94352986     6.91257666E-08   1.76619763E+16   4.73555615E+08   0.00000000E+00   1.84043194E+08   0.2938197       
  25               3.33128779E-04   2.23081209E-03   781.61794770     8.09073769E-08   2.06725621E+16   4.73555616E+08   0.00000000E+00   1.82487210E+08   0.29366553      
  26               4.05360046E-04   2.67027870E-03   790.15221861     9.57998208E-08   2.44777597E+16   4.73555616E+08   0.00000000E+00   1.80908692E+08   0.29323165      
  27               4.93252992E-04   3.19499524E-03   808.52675173     1.12018878E-07   2.86221109E+16   4.73555617E+08   0.00000000E+00   1.79306933E+08   0.29306026      
  28               6.00203489E-04   3.82117948E-03   817.67744775     1.32473710E-07   3.38486426E+16   4.73555618E+08   0.00000000E+00   1.77681415E+08   0.29258847      
  29               7.30343727E-04   4.56788623E-03   836.94487590     1.54717297E-07   3.95315883E+16   4.73555619E+08   0.00000000E+00   1.76032050E+08   0.29239436      
  30               8.88701864E-04   5.45742530E-03   846.94326661     1.82664066E-07   4.66723126E+16   4.73555620E+08   0.00000000E+00   1.74358768E+08   0.29187487      
  31               1.08139630E-03   6.51603624E-03   867.42346138     2.12944575E-07   5.44099299E+16   4.73555621E+08   0.00000000E+00   1.72661397E+08   0.29165079      
  32               1.31587206E-03   7.77378388E-03   878.74614594     2.50773882E-07   6.40759227E+16   4.73555621E+08   0.00000000E+00   1.70940246E+08   0.29112608      
  33               1.60118847E-03   9.26547847E-03   900.84239205     2.91559898E-07   7.44980450E+16   4.73555622E+08   0.00000000E+00   1.69195730E+08   0.2912495       
  34               1.94836913E-03   1.10305881E-02   913.83758448     3.42166366E-07   8.74289958E+16   4.73555622E+08   0.00000000E+00   1.67428516E+08   0.29051378      
  35               2.37082789E-03   1.31148155E-02   937.96041432     3.96352601E-07   1.01275294E+17   4.73555621E+08   0.00000000E+00   1.65638794E+08   0.29007635      
  36               2.88488706E-03   1.55734512E-02   952.97428014     4.63240642E-07   1.18366697E+17   4.73555620E+08   0.00000000E+00   1.63824323E+08   0.2891718       
  37               3.51040806E-03   1.84710721E-02   979.28441554     5.34667190E-07   1.36618370E+17   4.73555618E+08   0.00000000E+00   1.61983141E+08   0.28870247      
  38               4.27155881E-03   2.18799997E-02   996.62303837     6.22322814E-07   1.59016514E+17   4.73555616E+08   0.00000000E+00   1.60114318E+08   0.28773623      
  39               5.19774750E-03   2.58817475E-02   1025.69671102    7.15273357E-07   1.82768132E+17   4.73555612E+08   0.00000000E+00   1.58217587E+08   0.2872243       
  40               6.32475876E-03   3.05645498E-02   1046.14631616    8.28175097E-07   2.11617419E+17   4.73555608E+08   0.00000000E+00   1.56293570E+08   0.28626664      
  41               7.69613634E-03   3.60252886E-02   1078.62525283    9.46743045E-07   2.41914959E+17   4.73555602E+08   0.00000000E+00   1.54343392E+08   0.28574088      
  42               9.36486541E-03   4.23644865E-02   1102.67907179    1.08904887E-06   2.78277860E+17   4.73555595E+08   0.00000000E+00   1.52369176E+08   0.28471597      
  43               1.13954198E-02   4.96887294E-02   1139.11337668    1.23647273E-06   3.15948850E+17   4.73555587E+08   0.00000000E+00   1.50373239E+08   0.28403103      
  44               1.38662528E-02   5.81276822E-02   1167.38003131    1.41144456E-06   3.60658843E+17   4.73555578E+08   0.00000000E+00   1.48353179E+08   0.28273296      
  45               1.68728289E-02   6.78352447E-02   1208.25426487    1.59143716E-06   4.06651987E+17   4.73555570E+08   0.00000000E+00   1.46304925E+08   0.28171803      
  46               2.05313114E-02   7.89644505E-02   1241.29064378    1.80322600E-06   4.60769767E+17   4.73555562E+08   0.00000000E+00   1.44227409E+08   0.27991314      
  47               2.49830512E-02   9.16703640E-02   1287.37743774    2.01843605E-06   5.15761478E+17   4.73555554E+08   0.00000000E+00   1.42121336E+08   0.27865101      
  48               3.04000477E-02   1.06085903E-01   1326.49077427    2.26697044E-06   5.79267659E+17   4.73555549E+08   0.00000000E+00   1.39990250E+08   0.27712889      
  49               3.69915946E-02   1.22326556E-01   1379.66708923    2.51332946E-06   6.42202930E+17   4.73555547E+08   0.00000000E+00   1.37838662E+08   0.27565853      
  50               4.50123658E-02   1.40403391E-01   1432.81686066    2.77788829E-06   7.09762014E+17   4.72307085E+08   1.24755250E+06   1.35675210E+08   0.27316908      
  51               5.47722558E-02   1.60521079E-01   1485.98616901    3.06320725E-06   7.82425764E+17   4.70001784E+08   3.55179919E+06   1.33494199E+08   0.27061738      
  52               6.66483519E-02   1.82425312E-01   1538.04077567    3.36392748E-06   8.59098752E+17   4.66705238E+08   6.84777493E+06   1.31336306E+08   0.26822782      
  53               8.10995048E-02   2.05462052E-01   1587.72946533    3.67133853E-06   9.37305050E+17   4.62525279E+08   1.10286460E+07   1.29263281E+08   0.2661799       
  54               9.86840557E-02   2.28313103E-01   1632.73179803    3.97126404E-06   1.01284229E+18   4.57811051E+08   1.57507379E+07   1.27370587E+08   0.26422096      
  55               1.20081410E-01   2.49306040E-01   1671.01500532    4.23677117E-06   1.08063316E+18   4.53064673E+08   2.05124761E+07   1.25752165E+08   0.26251036      
  56               1.46118284E-01   2.68026277E-01   1702.96633393    4.47357887E-06   1.13997979E+18   4.48404552E+08   2.51760932E+07   1.24392194E+08   0.26101137      
  57               1.77800653E-01   2.83140448E-01   1727.48118918    4.65864403E-06   1.18717414E+18   4.44380858E+08   2.91914449E+07   1.23345240E+08   0.2595485       
  58               2.16352610E-01   3.00386173E-01   1754.12728324    4.86713214E-06   1.24035121E+18   4.39613563E+08   3.39609971E+07   1.22199950E+08   0.25821366      
  59               2.63263667E-01   3.19948939E-01   1782.89838223    5.10019554E-06   1.29981015E+18   4.33845654E+08   3.97317602E+07   1.20958295E+08   0.25694144      
  60               3.20346302E-01   3.41978592E-01   1813.59491935    5.35875179E-06   1.36579170E+18   4.26835530E+08   4.67474329E+07   1.19625746E+08   0.25546491      
  61               3.89805984E-01   3.66528895E-01   1845.93100002    5.64238168E-06   1.43819771E+18   4.18440883E+08   5.51473593E+07   1.18213876E+08   0.25373894      
  62               4.74326391E-01   3.93565325E-01   1879.46030192    5.94989363E-06   1.51673431E+18   4.08916734E+08   6.46684082E+07   1.16738289E+08   0.25170068      
  63               5.77173093E-01   4.23549858E-01   1914.39863402    6.28552665E-06   1.60249988E+18   3.98692487E+08   7.48874963E+07   1.15187784E+08   0.24940595      
  64               7.02319722E-01   4.57263528E-01   1951.16378065    6.65688822E-06   1.69745659E+18   3.87504304E+08   8.60742790E+07   1.13539617E+08   0.24682103      
  65               8.54601502E-01   4.95086070E-01   1989.63576742    7.06668810E-06   1.80232442E+18   3.74920989E+08   9.86533781E+07   1.11795765E+08   0.24385746      
  66               1.03990206E+00   5.37442553E-01   2029.63250125    7.51815725E-06   1.91796413E+18   3.60719489E+08   1.12849130E+08   1.09958131E+08   0.24041681      
  67               1.26538076E+00   5.84812980E-01   2070.99157070    8.01487340E-06   2.04533529E+18   3.44803279E+08   1.28757659E+08   1.08028356E+08   0.23657774      
  68               1.53974930E+00   6.37740487E-01   2113.54906288    8.56090050E-06   2.18553364E+18   3.27174609E+08   1.46376834E+08   1.06007769E+08   0.23236284      
  69               1.87360830E+00   6.96834925E-01   2157.14273869    9.16077585E-06   2.33978992E+18   3.07890954E+08   1.65650480E+08   1.03897559E+08   0.22780092      
  70               2.27985690E+00   7.62779154E-01   2201.60775165    9.81956530E-06   2.50948561E+18   2.87054500E+08   1.86474861E+08   1.01698838E+08   0.22293128      
  71               2.77419111E+00   8.36333881E-01   2246.78365982    1.05428529E-05   2.69615139E+18   2.64801394E+08   2.08714108E+08   9.94127553E+07   0.21774313      
  72               3.37571026E+00   9.18340805E-01   2292.48367403    1.13368870E-05   2.90150598E+18   2.41295496E+08   2.32206215E+08   9.70406613E+07   0.21214358      
  73               4.10765492E+00   1.00968234E+00   2338.46372475    1.22091595E-05   3.12737502E+18   2.16902405E+08   2.56585504E+08   9.45853936E+07   0.20620997      
  74               4.99830483E+00   1.11143169E+00   2384.57727957    1.31658842E-05   3.37595940E+18   1.92339041E+08   2.81135321E+08   9.20475047E+07   0.20028548      
  75               6.08207157E+00   1.22485258E+00   2430.79719863    1.42167112E-05   3.64973164E+18   1.68238088E+08   3.05223477E+08   8.94258349E+07   0.19445483      
  76               7.40082804E+00   1.35126245E+00   2477.00052051    1.53710041E-05   3.95129496E+18   1.45003988E+08   3.28445777E+08   8.67216246E+07   0.18862954      
  77               9.00552635E+00   1.49208339E+00   2523.07013737    1.66386031E-05   4.28340966E+18   1.23273484E+08   3.50165484E+08   8.39369895E+07   0.18305386      
  78               1.09581663E+01   1.64889614E+00   2569.00185067    1.80295889E-05   4.64894839E+18   1.03858856E+08   3.69570414E+08   8.10738594E+07   0.17768498      
  79               1.33341911E+01   1.82342605E+00   2614.66922100    1.95557520E-05   5.05123112E+18   8.71673379E+07   3.86254138E+08   7.81345114E+07   0.17247108      
  80               1.62254019E+01   2.01755590E+00   2660.04904259    2.12290034E-05   5.49365992E+18   7.32604086E+07   4.00155195E+08   7.51214932E+07   0.1676019       
  81               1.97435049E+01   2.23331320E+00   2705.11941396    2.30618701E-05   5.97983267E+18   6.18054156E+07   4.11605284E+08   7.20378434E+07   0.1630373       
  82               2.40244270E+01   2.47287870E+00   2749.84404724    2.50677143E-05   6.51359255E+18   5.23165589E+07   4.21091902E+08   6.88869678E+07   0.15864934      
  83               2.92335681E+01   2.73860744E+00   2794.14214372    2.72613299E-05   7.09916266E+18   4.44393006E+07   4.28969144E+08   6.56724257E+07   0.15465665      
  84               3.55721908E+01   3.03302637E+00   2838.11597510    2.96561971E-05   7.74055119E+18   3.78762507E+07   4.35533652E+08   6.23979191E+07   0.15113754      
  85               4.32851972E+01   3.35883829E+00   2881.74609750    3.22677702E-05   8.44226967E+18   3.23459905E+07   4.41067022E+08   5.90672158E+07   0.14793537      
  86               5.26705906E+01   3.71896413E+00   2925.06842072    3.51117974E-05   9.20898573E+18   2.76810096E+07   4.45738266E+08   5.56838085E+07   0.14502044      
  87               6.40909893E+01   4.11658110E+00   2968.07018850    3.82059693E-05   1.00458884E+19   2.37486744E+07   4.49681127E+08   5.22507318E+07   0.14243532      
  88               7.79876373E+01   4.55511369E+00   3010.83563228    4.15674427E-05   1.09581695E+19   2.04105703E+07   4.53035177E+08   4.87708047E+07   0.14008339      
  89               9.48974517E+01   5.03819834E+00   3053.30437978    4.52164104E-05   1.19517362E+19   1.75528653E+07   4.55916947E+08   4.52470248E+07   0.13794928      
  90               1.15473768E+02   5.56960386E+00   3095.55297597    4.91704789E-05   1.30320250E+19   1.51012515E+07   4.58403099E+08   4.16830407E+07   0.13604845      
  91               1.40511583E+02   6.15348171E+00   3137.54282731    5.34515352E-05   1.42055185E+19   1.29997388E+07   4.60551451E+08   3.80814085E+07   0.13442133      
  92               1.70978268E+02   6.79440800E+00   3179.40931668    5.80797483E-05   1.54785766E+19   1.11971409E+07   4.62414975E+08   3.44437236E+07   0.13299721      
  93               2.08050949E+02   7.49745425E+00   3221.09482533    6.30821990E-05   1.68591686E+19   9.65091487E+06   4.64038110E+08   3.07706699E+07   0.13174771      
  94               2.53161982E+02   8.26826922E+00   3262.74376711    6.84837160E-05   1.83551306E+19   8.32778986E+06   4.65455892E+08   2.70620523E+07   0.1306448       
  95               3.08054300E+02   9.11310531E+00   3304.29670253    7.43174569E-05   1.99762145E+19   7.18946305E+06   4.66707578E+08   2.33171360E+07   0.12969967      
  96               3.74848746E+02   1.00388715E+01   3345.92029351    8.06126393E-05   2.17317722E+19   6.20764930E+06   4.67821908E+08   1.95347755E+07   0.12887508      
  97               4.56126023E+02   1.10532137E+01   3387.53814087    8.74094621E-05   2.36336181E+19   5.35697681E+06   4.68824734E+08   1.57134670E+07   0.12817232      
  98               5.55026396E+02   1.21645901E+01   3429.32888360    9.47425460E-05   2.56929625E+19   4.62076259E+06   4.69731738E+08   1.18514184E+07   0.12757615      
  99               6.75371026E+02   1.33823562E+01   3471.20933271    1.02660011E-04   2.79239994E+19   3.98211919E+06   4.70557953E+08   7.94661801E+06   0.12710232      
  100              8.21809604E+02   1.47168454E+01   3513.37654551    1.11202172E-04   3.03400205E+19   3.43146401E+06   4.71310578E+08   3.99690182E+06   0.12673392      
  101              1.00000000E+03   1.61794692E+01   3555.73632065    1.20426221E-04   3.29579782E+19   3.17361072E+06   4.71727080E+08   0.00000000E+00   0.12646538      
