# ATMO pressure-temperature profile
# Effective temperature = 700.0K
# log(g) = 4.5cm/s^2
# M/H = 0.0
# Optical depth grid in band 17 (1.20-1.33microns)
# All parameters in cgs units
#
# Model Level      Optical Depth    Pressure         Temperature      Density          Number Density   Rad Flux         Conv Flux        Radial Extension Adiabatic Gradient
#                                   [Ba]             [K]              [g/cm^3]         [/cm^3]          [ergs/s/cm^2/sr] [ergs/s/cm^2/sr] [cm]             [K/Ba]          
  1                5.00000000E-05   1.00000000E-05   180.55772117     1.56917663E-09   4.01152751E+14   1.36055007E+07   0.00000000E+00   1.34949130E+07   0.32116798      
  2                5.91534807E-05   5.67735285E-04   210.96864770     7.62457892E-08   1.94918835E+16   1.36055007E+07   0.00000000E+00   1.18824703E+07   0.31784944      
  3                6.99826855E-05   1.19308192E-03   229.90568848     1.47030842E-07   3.75877551E+16   1.36055007E+07   0.00000000E+00   1.16956997E+07   0.31338733      
  4                8.27943887E-05   1.90507204E-03   246.60440603     2.18876164E-07   5.59546793E+16   1.36055007E+07   0.00000000E+00   1.15701919E+07   0.3127095       
  5                9.79515255E-05   2.72489702E-03   255.06726618     3.02679678E-07   7.73786603E+16   1.36055006E+07   0.00000000E+00   1.14694686E+07   0.31033396      
  6                1.15883473E-04   3.67410738E-03   266.94327611     3.89960623E-07   9.96916303E+16   1.36055006E+07   0.00000000E+00   1.13820989E+07   0.31004848      
  7                1.37098216E-04   4.77536471E-03   273.45158380     4.94782123E-07   1.26488762E+17   1.36055005E+07   0.00000000E+00   1.13028175E+07   0.30829583      
  8                1.62196734E-04   6.05514534E-03   283.87247790     6.04350909E-07   1.54499516E+17   1.36055003E+07   0.00000000E+00   1.12288086E+07   0.30811642      
  9                1.91890027E-04   7.54353194E-03   289.65849153     7.37864075E-07   1.88631539E+17   1.36055000E+07   0.00000000E+00   1.11583258E+07   0.30669498      
  10               2.27019260E-04   9.27644507E-03   299.28942409     8.78169003E-07   2.24499845E+17   1.36054996E+07   0.00000000E+00   1.10902490E+07   0.30655346      
  11               2.68579588E-04   1.12948523E-02   304.64137168     1.05046013E-06   2.68545274E+17   1.36054990E+07   0.00000000E+00   1.10237936E+07   0.3053941       
  12               3.17748350E-04   1.36467093E-02   314.00504940     1.23134346E-06   3.14787261E+17   1.36054981E+07   0.00000000E+00   1.09584006E+07   0.30527925      
  13               3.75918418E-04   1.63873517E-02   319.29243176     1.45414614E-06   3.71745731E+17   1.36054968E+07   0.00000000E+00   1.08936328E+07   0.30433337      
  14               4.44737657E-04   1.95814500E-02   328.64379135     1.68813557E-06   4.31564046E+17   1.36054950E+07   0.00000000E+00   1.08291654E+07   0.30424479      
  15               5.26155608E-04   2.33029743E-02   334.09373808     1.97620013E-06   5.05206420E+17   1.36054925E+07   0.00000000E+00   1.07647334E+07   0.30346068      
  16               6.22478712E-04   2.76379691E-02   343.75059660     2.27798360E-06   5.82355935E+17   1.36054891E+07   0.00000000E+00   1.07001236E+07   0.30338402      
  17               7.36435649E-04   3.26860412E-02   349.58174649     2.64911922E-06   6.77235034E+17   1.36054845E+07   0.00000000E+00   1.06351407E+07   0.30272968      
  18               8.71254639E-04   3.85644770E-02   359.56110039     3.03880382E-06   7.76856107E+17   1.36054783E+07   0.00000000E+00   1.05696228E+07   0.3026282       
  19               1.03075489E-03   4.54072930E-02   365.84795945     3.51651960E-06   8.98981624E+17   1.36054702E+07   0.00000000E+00   1.05034275E+07   0.30213643      
  20               1.21945479E-03   5.33697676E-02   376.36386848     4.01768102E-06   1.02710118E+18   1.36054593E+07   0.00000000E+00   1.04364385E+07   0.30205486      
  21               1.44269991E-03   6.26302410E-02   383.27950210     4.62973947E-06   1.18357104E+18   1.36054451E+07   0.00000000E+00   1.03685389E+07   0.30156157      
  22               1.70681442E-03   7.33949415E-02   394.46478499     5.27164205E-06   1.34767052E+18   1.36054265E+07   0.00000000E+00   1.02996339E+07   0.30147978      
  23               2.01928028E-03   8.58973578E-02   402.16043102     6.05158729E-06   1.54705697E+18   1.36054014E+07   0.00000000E+00   1.02296358E+07   0.30110944      
  24               2.38894914E-03   1.00403936E-01   414.24611826     6.86722241E-06   1.75556992E+18   1.36053673E+07   0.00000000E+00   1.01584751E+07   0.30105815      
  25               2.82629313E-03   1.17216025E-01   422.97801924     7.85159696E-06   2.00722024E+18   1.36053204E+07   0.00000000E+00   1.00860729E+07   0.30075404      
  26               3.34370152E-03   1.36687455E-01   436.13589941     8.87964093E-06   2.27003556E+18   1.36052571E+07   0.00000000E+00   1.00123298E+07   0.30066965      
  27               3.95583167E-03   1.59216047E-01   446.08679928     1.01125530E-05   2.58519498E+18   1.36051815E+07   0.00000000E+00   9.93714901E+06   0.30040384      
  28               4.68002425E-03   1.85249403E-01   460.65123412     1.13940431E-05   2.91279834E+18   1.36051746E+07   0.00000000E+00   9.86045510E+06   0.30032157      
  29               5.53679448E-03   2.15274842E-01   472.42856591     1.29108039E-05   3.30052457E+18   1.36065384E+07   0.00000000E+00   9.78217081E+06   0.30010641      
  30               6.55041330E-03   2.49841376E-01   489.01289845     1.44756707E-05   3.70058077E+18   1.36101032E+07   0.00000000E+00   9.70221320E+06   0.30004071      
  31               7.74959494E-03   2.89566238E-01   502.38244394     1.63320637E-05   4.17483494E+18   1.36104200E+07   0.00000000E+00   9.62051174E+06   0.29989666      
  32               9.16831029E-03   3.35179557E-01   519.80911631     1.82709404E-05   4.67045799E+18   1.36107162E+07   0.00000000E+00   9.53701093E+06   0.29985899      
  33               1.08467493E-02   3.87485822E-01   534.90636074     2.05260322E-05   5.24691337E+18   1.36110042E+07   0.00000000E+00   9.45159856E+06   0.29973747      
  34               1.28324595E-02   4.47397124E-01   554.38160778     2.28670817E-05   5.84534588E+18   1.36112839E+07   0.00000000E+00   9.36415036E+06   0.29966647      
  35               1.51816929E-02   5.15925595E-01   571.92342754     2.55608329E-05   6.53393826E+18   1.36115501E+07   0.00000000E+00   9.27451524E+06   0.29952935      
  36               1.79609996E-02   5.94175329E-01   593.94617118     2.83460460E-05   7.24591722E+18   1.36117981E+07   0.00000000E+00   9.18258697E+06   0.29947293      
  37               2.12491128E-02   6.83301891E-01   614.28167824     3.15187707E-05   8.05695430E+18   1.36120198E+07   0.00000000E+00   9.08829466E+06   0.29935645      
  38               2.51391797E-02   7.84555950E-01   639.19829758     3.47785570E-05   8.89025362E+18   1.36122143E+07   0.00000000E+00   8.99158451E+06   0.29926408      
  39               2.97413996E-02   8.99413787E-01   662.84451401     3.84476969E-05   9.82819385E+18   1.36123738E+07   0.00000000E+00   8.89225697E+06   0.29907296      
  40               3.51861462E-02   1.02954677E+00   691.47332233     4.21883186E-05   1.07844125E+19   1.35944550E+07   1.82732368E+04   8.79007927E+06   0.29892329      
  41               4.16276604E-02   1.17667913E+00   718.28308618     4.64176730E-05   1.18655603E+19   1.35411379E+07   7.31386759E+04   8.68493868E+06   0.2986774       
  42               4.92484201E-02   1.34270828E+00   748.55501225     5.08251274E-05   1.29922325E+19   1.34679070E+07   1.49094902E+05   8.57684421E+06   0.29845158      
  43               5.82643093E-02   1.52963804E+00   776.78109115     5.57969837E-05   1.42631638E+19   1.33934017E+07   2.37615911E+05   8.46584141E+06   0.29803109      
  44               6.89307339E-02   1.74010405E+00   808.68685287     6.09702126E-05   1.55854977E+19   1.33217173E+07   3.10647246E+05   8.35173286E+06   0.29768165      
  45               8.15498567E-02   1.97716641E+00   838.44951882     6.68176844E-05   1.70801683E+19   1.32699476E+07   3.59373797E+05   8.23428138E+06   0.29715712      
  46               9.64791575E-02   2.24402591E+00   872.17266267     7.29038145E-05   1.86359371E+19   1.32377847E+07   3.99195473E+05   8.11337148E+06   0.29667886      
  47               1.14141560E-01   2.54380294E+00   903.53672922     7.97742047E-05   2.03921724E+19   1.32377566E+07   4.11004648E+05   7.98906550E+06   0.2958622       
  48               1.35037411E-01   2.87954297E+00   938.95187704     8.68971734E-05   2.22129413E+19   1.32651449E+07   3.66177267E+05   7.86154818E+06   0.2951122       
  49               1.59758657E-01   3.25495410E+00   971.72003052     9.49141472E-05   2.42621651E+19   1.33301218E+07   2.91250045E+05   7.73082907E+06   0.2940774       
  50               1.89005613E-01   3.67434551E+00   1008.72662938    1.03216089E-04   2.63834962E+19   1.34255822E+07   1.88467342E+05   7.59683609E+06   0.29317249      
  51               2.23606798E-01   4.14291185E+00   1042.92783832    1.12561917E-04   2.87724784E+19   1.35529949E+07   6.89646990E+04   7.45936806E+06   0.29187992      
  52               2.64542408E-01   4.66629997E+00   1081.60461542    1.22248304E-04   3.12485566E+19   1.36121129E+07   0.00000000E+00   7.31827464E+06   0.29073072      
  53               3.12972084E-01   5.25089383E+00   1115.46189688    1.33387690E-04   3.40960710E+19   1.36118204E+07   0.00000000E+00   7.17350583E+06   0.28922057      
  54               3.70267763E-01   5.90418008E+00   1152.66360676    1.45141670E-04   3.71007641E+19   1.36114348E+07   0.00000000E+00   7.02503209E+06   0.28796479      
  55               4.38052539E-01   6.63483196E+00   1185.35627820    1.58603933E-04   4.05421582E+19   1.36110360E+07   0.00000000E+00   6.87274695E+06   0.28639738      
  56               5.18246648E-01   7.45241970E+00   1221.58442021    1.72863718E-04   4.41875232E+19   1.36106202E+07   0.00000000E+00   6.71660286E+06   0.28515324      
  57               6.13121862E-01   8.36896377E+00   1253.25066400    1.89217702E-04   4.83681620E+19   1.36101526E+07   0.00000000E+00   6.55634454E+06   0.28361952      
  58               7.25365844E-01   9.39749537E+00   1288.68923689    2.06628593E-04   5.28189494E+19   1.36096431E+07   0.00000000E+00   6.39185373E+06   0.28243439      
  59               8.58158289E-01   1.05514363E+01   1319.60708716    2.26566525E-04   5.79152294E+19   1.36090974E+07   0.00000000E+00   6.22320210E+06   0.28093371      
  60               1.01526100E+00   1.18446799E+01   1354.77199550    2.47738023E-04   6.33261315E+19   1.36084994E+07   0.00000000E+00   6.05058402E+06   0.27979389      
  61               1.20112443E+00   1.32920483E+01   1385.60050311    2.71834349E-04   6.94831852E+19   1.36078360E+07   0.00000000E+00   5.87421156E+06   0.27833399      
  62               1.42101382E+00   1.49130307E+01   1421.37307643    2.97324155E-04   7.59947631E+19   1.36071963E+07   0.00000000E+00   5.69390498E+06   0.27723355      
  63               1.68115827E+00   1.67363262E+01   1453.22893576    3.26377925E-04   8.34164945E+19   1.36066913E+07   0.00000000E+00   5.50881519E+06   0.27574345      
  64               1.98892727E+00   1.87973909E+01   1490.74712033    3.57360193E-04   9.13312565E+19   1.36064193E+07   0.00000000E+00   5.31797047E+06   0.27458377      
  65               2.35303941E+00   2.11315558E+01   1524.85138697    3.92748194E-04   1.00375979E+20   1.36064874E+07   0.00000000E+00   5.12094470E+06   0.27303865      
  66               2.78380943E+00   2.37716720E+01   1565.41195696    4.30371635E-04   1.09990942E+20   1.36069111E+07   0.00000000E+00   4.91787306E+06   0.27183115      
  67               3.29344035E+00   2.67331192E+01   1603.17956380    4.72566436E-04   1.20779522E+20   1.36075654E+07   0.00000000E+00   4.71021319E+06   0.27022218      
  68               3.89636920E+00   3.00138853E+01   1647.92407946    5.16168855E-04   1.31920066E+20   1.36079488E+07   0.00000000E+00   4.50014757E+06   0.2689324       
  69               4.60967600E+00   3.35822546E+01   1690.21393243    5.63294547E-04   1.43911007E+20   1.36074006E+07   0.00000000E+00   4.29086465E+06   0.2672401       
  70               5.45356761E+00   3.74125277E+01   1739.62941362    6.09709787E-04   1.55770835E+20   1.35931221E+07   1.57459368E+04   4.08418158E+06   0.26581629      
  71               6.45195012E+00   4.14307879E+01   1787.25973954    6.57239463E-04   1.67904122E+20   1.26106072E+07   1.00134782E+06   3.88344810E+06   0.26395036      
  72               7.63310614E+00   4.55507469E+01   1832.39396727    7.04985226E-04   1.80053882E+20   1.13326101E+07   2.27871119E+06   3.69204398E+06   0.26253179      
  73               9.03049593E+00   4.96205463E+01   1873.93292985    7.51331594E-04   1.91793259E+20   9.76612445E+06   3.84496007E+06   3.51520374E+06   0.26084977      
  74               1.06837053E+01   5.33303041E+01   1909.33240083    7.93286513E-04   2.02310469E+20   8.18203236E+06   5.43161292E+06   3.36323998E+06   0.25975064      
  75               1.26395671E+01   5.65346516E+01   1938.51789585    8.28269650E-04   2.11237367E+20   7.21875037E+06   6.39761730E+06   3.23823161E+06   0.25835613      
  76               1.49534878E+01   6.00782886E+01   1969.01879247    8.66528889E-04   2.21000640E+20   6.80312350E+06   6.81429200E+06   3.10595829E+06   0.25733943      
  77               1.76910170E+01   6.39858062E+01   2001.27491513    9.07975151E-04   2.31580898E+20   6.01259511E+06   7.60469717E+06   2.96665131E+06   0.25615006      
  78               2.09297047E+01   6.71818686E+01   2026.19877982    9.41874292E-04   2.40157342E+20   4.91801068E+06   8.69808166E+06   2.85735605E+06   0.25552541      
  79               2.47612977E+01   6.96261583E+01   2044.94542599    9.67176776E-04   2.46613332E+20   4.31560779E+06   9.29970464E+06   2.77637126E+06   0.25465901      
  80               2.92943389E+01   7.23953451E+01   2065.13269699    9.95792923E-04   2.53915095E+20   4.14159643E+06   9.47356850E+06   2.68714043E+06   0.25383262      
  81               3.46572422E+01   7.55240395E+01   2087.59048221    1.02762844E-03   2.62038885E+20   3.97273326E+06   9.64229465E+06   2.58933549E+06   0.25274616      
  82               4.10019301E+01   7.90428220E+01   2111.49830109    1.06330221E-03   2.71142465E+20   3.78588730E+06   9.82895425E+06   2.48288536E+06   0.25176744      
  83               4.85081376E+01   8.29840375E+01   2137.69138529    1.10256875E-03   2.81174152E+20   3.33922713E+06   1.02749826E+07   2.36777901E+06   0.25105788      
  84               5.73885036E+01   8.59247214E+01   2156.21996942    1.13278623E-03   2.88636273E+20   2.72654823E+06   1.08868700E+07   2.28456036E+06   0.25061289      
  85               6.78945948E+01   8.80610785E+01   2169.74256345    1.15369479E-03   2.93969065E+20   2.42771689E+06   1.11853491E+07   2.22546485E+06   0.25008772      
  86               8.03240320E+01   9.05185495E+01   2184.48940466    1.17786132E-03   3.00132816E+20   2.35500528E+06   1.12578434E+07   2.15880015E+06   0.24952658      
  87               9.50289215E+01   9.33367526E+01   2201.47344766    1.20513374E-03   3.07089576E+20   2.28501604E+06   1.13276304E+07   2.08399910E+06   0.24885665      
  88               1.12425830E+02   9.65584575E+01   2219.88813005    1.23635562E-03   3.15054052E+20   2.20115288E+06   1.14113030E+07   2.00053560E+06   0.24813354      
  89               1.33007583E+02   1.00229677E+02   2240.74093202    1.27137759E-03   3.23989191E+20   2.11707885E+06   1.14952100E+07   1.90793762E+06   0.24720639      
  90               1.57357229E+02   1.04399842E+02   2263.15230764    1.31111182E-03   3.34127252E+20   2.01974824E+06   1.15923994E+07   1.80579751E+06   0.2459604       
  91               1.86164557E+02   1.09122156E+02   2288.08269598    1.35542497E-03   3.45435574E+20   1.92374519E+06   1.16882908E+07   1.69377701E+06   0.24477764      
  92               2.20245630E+02   1.14453788E+02   2314.66359858    1.40524941E-03   3.58152617E+20   1.81612023E+06   1.17958370E+07   1.57161222E+06   0.24321752      
  93               2.60565913E+02   1.20455915E+02   2343.74032697    1.46065258E-03   3.72258374E+20   1.71016115E+06   1.19017484E+07   1.43912647E+06   0.2417865       
  94               3.08267614E+02   1.27195801E+02   2374.49935132    1.52229532E-03   3.87995384E+20   1.60032974E+06   1.20115583E+07   1.29619426E+06   0.23985771      
  95               3.64702046E+02   1.34747093E+02   2407.62321830    1.59035322E-03   4.05374777E+20   1.49737562E+06   1.21145035E+07   1.14272352E+06   0.2381914       
  96               4.31467909E+02   1.43189700E+02   2442.44299798    1.66574818E-03   4.24632454E+20   1.39091078E+06   1.22209938E+07   9.78692580E+05   0.23582844      
  97               5.10456573E+02   1.52612497E+02   2479.36224348    1.74873775E-03   4.45836844E+20   1.28985647E+06   1.23221240E+07   8.04104903E+05   0.23386767      
  98               6.03905660E+02   1.63112369E+02   2517.99915831    1.84014217E-03   4.69199083E+20   1.18619121E+06   1.24258899E+07   6.19008977E+05   0.23098246      
  99               7.14462436E+02   1.74804472E+02   2558.34627035    1.94066561E-03   4.94901824E+20   1.08971876E+06   1.25224457E+07   4.23353227E+05   0.22872995      
  100              8.45258798E+02   1.87819163E+02   2600.55491543    2.05096983E-03   5.23118056E+20   9.92426889E+05   1.26198291E+07   2.17062348E+05   0.22522976      
  101              1.00000000E+03   2.02308400E+02   2643.94713327    2.17252806E-03   5.54226118E+20   9.41076724E+05   1.26712343E+07   0.00000000E+00   0.22267801      
