# ATMO pressure-temperature profile
# Effective temperature = 400.0K
# log(g) = 3.0cm/s^2
# M/H = 0.0
# Optical depth grid in band 17 (1.20-1.33microns)
# All parameters in cgs units
#
# Model Level      Optical Depth    Pressure         Temperature      Density          Number Density   Rad Flux         Conv Flux        Radial Extension Adiabatic Gradient
#                                   [Ba]             [K]              [g/cm^3]         [/cm^3]          [ergs/s/cm^2/sr] [ergs/s/cm^2/sr] [cm]             [K/Ba]          
  1                1.00000000E-04   1.00000000E-05   54.34904646      5.21261436E-09   1.33270464E+15   1.45139626E+06   0.00000000E+00   2.70599402E+08   0.34573978      
  2                1.17489755E-04   7.92914407E-05   70.59643051      3.18193344E-08   8.13522195E+15   1.45139626E+06   0.00000000E+00   2.65219105E+08   0.34573975      
  3                1.38038426E-04   1.59456583E-04   79.60855389      5.67453453E-08   1.45080338E+16   1.45139626E+06   0.00000000E+00   2.63332526E+08   0.31479388      
  4                1.62181010E-04   2.48137805E-04   87.94630606      7.99324011E-08   2.04362484E+16   1.45139626E+06   0.00000000E+00   2.62015771E+08   0.31480935      
  5                1.90546072E-04   3.47438490E-04   93.46033765      1.05316910E-07   2.69262840E+16   1.45139626E+06   0.00000000E+00   2.60933485E+08   0.31482174      
  6                2.23872114E-04   4.59937907E-04   100.24815518     1.29977725E-07   3.32314013E+16   1.45139626E+06   0.00000000E+00   2.59971947E+08   0.31483237      
  7                2.63026799E-04   5.88160446E-04   104.86978499     1.58884040E-07   4.06229330E+16   1.45139626E+06   0.00000000E+00   2.59079690E+08   0.31484192      
  8                3.09029543E-04   7.34849851E-04   111.41344809     1.86840236E-07   4.77734753E+16   1.45139626E+06   0.00000000E+00   2.58228310E+08   0.31485078      
  9                3.63078055E-04   9.03137936E-04   115.83758008     2.20878055E-07   5.64716462E+16   1.45139626E+06   0.00000000E+00   2.57399907E+08   0.31485917      
  10               4.26579519E-04   1.09658127E-03   122.46231083     2.53680062E-07   6.48580988E+16   1.45139626E+06   0.00000000E+00   2.56582696E+08   0.31668568      
  11               5.01187234E-04   1.31911059E-03   127.01173693     2.94228889E-07   7.52251723E+16   1.45139626E+06   0.00000000E+00   2.55768176E+08   0.31954919      
  12               5.88843655E-04   1.57520409E-03   134.02540780     3.32964286E-07   8.51286082E+16   1.45139626E+06   0.00000000E+00   2.54949981E+08   0.32185926      
  13               6.91830971E-04   1.87013736E-03   138.73610751     3.81884434E-07   9.76359687E+16   1.45139626E+06   0.00000000E+00   2.54122879E+08   0.32360868      
  14               8.12830516E-04   2.21003744E-03   146.08028507     4.28603759E-07   1.09580648E+17   1.45139626E+06   0.00000000E+00   2.53282728E+08   0.32487374      
  15               9.54992586E-04   2.60186717E-03   151.12038843     4.87764237E-07   1.24706158E+17   1.45139626E+06   0.00000000E+00   2.52425760E+08   0.32563681      
  16               1.12201845E-03   3.05366170E-03   159.01779546     5.44030208E-07   1.39091642E+17   1.45139626E+06   0.00000000E+00   2.51548710E+08   0.32595436      
  17               1.31825674E-03   3.57488004E-03   164.40405202     6.16019090E-07   1.57497910E+17   1.45139626E+06   0.00000000E+00   2.50648361E+08   0.32586298      
  18               1.54881662E-03   4.17664071E-03   172.63458533     6.85405003E-07   1.75236734E+17   1.45139626E+06   0.00000000E+00   2.49722271E+08   0.32540208      
  19               1.81970086E-03   4.87148336E-03   178.33541830     7.73823912E-07   1.97856106E+17   1.45139626E+06   0.00000000E+00   2.48768176E+08   0.32462619      
  20               2.13796209E-03   5.67364473E-03   187.03874605     8.59367221E-07   2.19713324E+17   1.45139626E+06   0.00000000E+00   2.47784501E+08   0.32358097      
  21               2.51188643E-03   6.59894677E-03   193.32789376     9.66320655E-07   2.47232719E+17   1.45139626E+06   0.00000000E+00   2.46769110E+08   0.32235353      
  22               2.95120923E-03   7.66565031E-03   202.76682009     1.07103306E-06   2.73828062E+17   1.45139626E+06   0.00000000E+00   2.45720578E+08   0.32097413      
  23               3.46736850E-03   8.89530184E-03   209.32910618     1.20387626E-06   3.07791704E+17   1.45139626E+06   0.00000000E+00   2.44637675E+08   0.31950229      
  24               4.07380278E-03   1.03136578E-02   218.66488254     1.33623997E-06   3.41632766E+17   1.45139626E+06   0.00000000E+00   2.43519391E+08   0.31798102      
  25               4.78630092E-03   1.19494645E-02   225.10223533     1.50390158E-06   3.84498346E+17   1.45139626E+06   0.00000000E+00   2.42365459E+08   0.31642795      
  26               5.62341325E-03   1.38364513E-02   234.17062032     1.67395235E-06   4.27974754E+17   1.45139626E+06   0.00000000E+00   2.41176170E+08   0.31485374      
  27               6.60693448E-03   1.60133878E-02   240.40610881     1.88707214E-06   4.82462499E+17   1.45139626E+06   0.00000000E+00   2.39951328E+08   0.31330074      
  28               7.76247117E-03   1.85255252E-02   249.37104600     2.10462770E-06   5.38084326E+17   1.45139626E+06   0.00000000E+00   2.38690774E+08   0.31188663      
  29               9.12010839E-03   2.14240486E-02   255.70561095     2.37362478E-06   6.06858063E+17   1.45139626E+06   0.00000000E+00   2.37393944E+08   0.31053477      
  30               1.07151931E-02   2.47681349E-02   264.85236491     2.64935545E-06   6.77353359E+17   1.45139626E+06   0.00000000E+00   2.36060418E+08   0.3093327       
  31               1.25892541E-02   2.86254450E-02   271.45360798     2.98749653E-06   7.63804950E+17   1.45139626E+06   0.00000000E+00   2.34689345E+08   0.30823961      
  32               1.47910839E-02   3.30744535E-02   280.85982356     3.33621352E-06   8.52960456E+17   1.45139626E+06   0.00000000E+00   2.33280112E+08   0.30723443      
  33               1.73780083E-02   3.82037194E-02   287.87230328     3.75972902E-06   9.61239489E+17   1.45139626E+06   0.00000000E+00   2.31831841E+08   0.30629247      
  34               2.04173794E-02   4.41151823E-02   297.82813359     4.19636387E-06   1.07287271E+18   1.45139626E+06   0.00000000E+00   2.30343576E+08   0.3054533       
  35               2.39883292E-02   5.09228259E-02   305.65166949     4.71994029E-06   1.20673404E+18   1.45139626E+06   0.00000000E+00   2.28813926E+08   0.30469489      
  36               2.81838293E-02   5.87572257E-02   316.59355323     5.25787186E-06   1.34426551E+18   1.45139626E+06   0.00000000E+00   2.27241275E+08   0.30400505      
  37               3.31131121E-02   6.77651673E-02   325.51684529     5.89771564E-06   1.50785259E+18   1.45139626E+06   0.00000000E+00   2.25623647E+08   0.30335981      
  38               3.89045145E-02   7.81131626E-02   337.71574316     6.55275160E-06   1.67532379E+18   1.45139626E+06   0.00000000E+00   2.23959075E+08   0.30278751      
  39               4.57088190E-02   8.99837663E-02   348.33670710     7.31839274E-06   1.87107314E+18   1.45139626E+06   0.00000000E+00   2.22244909E+08   0.3022788       
  40               5.37031796E-02   1.03581074E-01   362.97859088     8.08444547E-06   2.06692748E+18   1.45139626E+06   0.00000000E+00   2.20477162E+08   0.30180816      
  41               6.30957344E-02   1.19104368E-01   378.51930006     8.91436287E-06   2.27911111E+18   1.44244163E+06   8.95462840E+03   2.18648584E+08   0.30134202      
  42               7.41310241E-02   1.36810792E-01   394.72569848     9.81929099E-06   2.51044548E+18   1.42352201E+06   2.78742460E+04   2.16756033E+08   0.300923        
  43               8.70963590E-02   1.56987328E-01   411.32040556     1.08128334E-05   2.76445919E+18   1.39387675E+06   5.75195104E+04   2.14797925E+08   0.30057276      
  44               1.02329299E-01   1.79946224E-01   428.61853028     1.18939730E-05   3.04086846E+18   1.35224947E+06   9.91467893E+04   2.12773425E+08   0.30037226      
  45               1.20226443E-01   2.06050533E-01   446.33177568     1.30788948E-05   3.34381141E+18   1.29811784E+06   1.53278416E+05   2.10680454E+08   0.30016551      
  46               1.41253754E-01   2.35711050E-01   464.79614060     1.43672148E-05   3.67318894E+18   1.23168119E+06   2.19715063E+05   2.08516704E+08   0.29998529      
  47               1.65958691E-01   2.69374894E-01   483.69572777     1.57776141E-05   4.03376603E+18   1.15421735E+06   2.97178911E+05   2.06280778E+08   0.29980063      
  48               1.94984460E-01   3.07525544E-01   503.37438903     1.73093435E-05   4.42502695E+18   1.07153747E+06   3.79858784E+05   2.03972175E+08   0.29970338      
  49               2.29086765E-01   3.50710862E-01   523.50063627     1.89811313E-05   4.85241395E+18   9.93216820E+05   4.58179437E+05   2.01589664E+08   0.29961156      
  50               2.69153480E-01   3.99574560E-01   544.45661305     2.07933282E-05   5.31569913E+18   9.19398371E+05   5.31997887E+05   1.99130071E+08   0.29951447      
  51               3.16227766E-01   4.54841032E-01   565.89629611     2.27725375E-05   5.82168394E+18   8.51588456E+05   5.99807801E+05   1.96590303E+08   0.29935544      
  52               3.71535229E-01   5.17315673E-01   588.21978101     2.49174557E-05   6.37003548E+18   7.91085765E+05   6.60310492E+05   1.93967618E+08   0.29921104      
  53               4.36515832E-01   5.87855355E-01   611.04536005     2.72573560E-05   6.96823626E+18   7.38128616E+05   7.13267642E+05   1.91260920E+08   0.29904746      
  54               5.12861384E-01   6.67374321E-01   634.77468232     2.97876088E-05   7.61510217E+18   6.93067041E+05   7.58329216E+05   1.88470234E+08   0.2989073       
  55               6.02559586E-01   7.56987922E-01   659.02228432     3.25442103E-05   8.31983454E+18   6.55930526E+05   7.95465732E+05   1.85592045E+08   0.29867147      
  56               7.07945784E-01   8.57917858E-01   684.22443559     3.55247691E-05   9.08182162E+18   6.26328197E+05   8.25068061E+05   1.82623679E+08   0.29842035      
  57               8.31763771E-01   9.71522242E-01   709.96839129     3.87701314E-05   9.91150430E+18   6.03356443E+05   8.48039814E+05   1.79562555E+08   0.29806278      
  58               9.77237221E-01   1.09924281E+00   736.69088200     4.22757653E-05   1.08077223E+19   5.86524666E+05   8.64871591E+05   1.76407794E+08   0.29775197      
  59               1.14815362E+00   1.24255229E+00   763.93808618     4.60828795E-05   1.17810053E+19   5.75614778E+05   8.75781479E+05   1.73160965E+08   0.29731963      
  60               1.34896288E+00   1.40322171E+00   792.15763787     5.01880175E-05   1.28304096E+19   5.71537953E+05   8.79858304E+05   1.69820061E+08   0.29690464      
  61               1.58489319E+00   1.58335161E+00   820.94073028     5.46453788E-05   1.39698391E+19   5.74177892E+05   8.77218366E+05   1.66380447E+08   0.29627497      
  62               1.86208714E+00   1.78507728E+00   850.71099696     5.94514704E-05   1.51985030E+19   5.84039827E+05   8.67356431E+05   1.62841263E+08   0.29566961      
  63               2.18776162E+00   2.01080300E+00   881.04993407     6.46630946E-05   1.65308369E+19   6.00888061E+05   8.50508197E+05   1.59200675E+08   0.29485724      
  64               2.57039578E+00   2.26294373E+00   912.34217821     7.02754470E-05   1.79656047E+19   6.24679076E+05   8.26717182E+05   1.55460319E+08   0.29416976      
  65               3.01995172E+00   2.54387151E+00   944.15483958     7.63379399E-05   1.95154148E+19   6.54527316E+05   7.96868941E+05   1.51624812E+08   0.29310152      
  66               3.54813389E+00   2.85657977E+00   976.81421186     8.28563021E-05   2.11816714E+19   6.90450323E+05   7.60945935E+05   1.47692874E+08   0.29224322      
  67               4.16869383E+00   3.20425129E+00   1010.03284630    8.98864950E-05   2.29782479E+19   7.31538523E+05   7.19857734E+05   1.43664216E+08   0.2910099       
  68               4.89778819E+00   3.59023276E+00   1044.00511491    9.74366512E-05   2.49083993E+19   7.78977562E+05   6.72418695E+05   1.39539841E+08   0.28993342      
  69               5.75439937E+00   4.01874526E+00   1078.58587694    1.05569077E-04   2.69874337E+19   8.30372367E+05   6.21023891E+05   1.35314770E+08   0.2885077       
  70               6.76082975E+00   4.49432338E+00   1113.89530815    1.14319155E-04   2.92244121E+19   8.83807127E+05   5.67589129E+05   1.30985706E+08   0.2871915       
  71               7.94328235E+00   5.02170166E+00   1149.85660440    1.23738173E-04   3.16324670E+19   9.37190471E+05   5.14205785E+05   1.26551550E+08   0.28586318      
  72               9.33254301E+00   5.60648748E+00   1186.57441870    1.33871749E-04   3.42232867E+19   9.88029937E+05   4.63366322E+05   1.22007944E+08   0.28442892      
  73               1.09647820E+01   6.25456014E+00   1223.94791586    1.44784715E-04   3.70134592E+19   1.03390315E+06   4.17493110E+05   1.17352963E+08   0.2829944       
  74               1.28824955E+01   6.97187459E+00   1262.06864602    1.56513201E-04   4.00121998E+19   1.07279760E+06   3.78598662E+05   1.12587854E+08   0.28155168      
  75               1.51356125E+01   7.76528109E+00   1300.82161147    1.69129881E-04   4.32379681E+19   1.10387162E+06   3.47524638E+05   1.07711332E+08   0.27981438      
  76               1.77827941E+01   8.64325896E+00   1340.28625613    1.82709424E-04   4.67095626E+19   1.12915929E+06   3.22236972E+05   1.02716820E+08   0.27848522      
  77               2.08929613E+01   9.61478762E+00   1380.56345737    1.97320130E-04   5.04439587E+19   1.14663157E+06   3.04764692E+05   9.76001237E+07   0.27679464      
  78               2.45470892E+01   1.06928176E+01   1421.60028659    2.13117121E-04   5.44804260E+19   1.16128112E+06   2.90119761E+05   9.23431426E+07   0.27523842      
  79               2.88403150E+01   1.18971010E+01   1463.91676241    2.30275174E-04   5.88641130E+19   1.17475631E+06   2.76650712E+05   8.69069200E+07   0.27350443      
  80               3.38844156E+01   1.32541865E+01   1507.59548278    2.49114727E-04   6.36786857E+19   1.18815850E+06   2.63242193E+05   8.12407886E+07   0.27192116      
  81               3.98107171E+01   1.47928591E+01   1553.25640974    2.69859344E-04   6.89818448E+19   1.19564503E+06   2.55754477E+05   7.53063101E+07   0.27014906      
  82               4.67735141E+01   1.65337984E+01   1600.38496537    2.92735754E-04   7.48297020E+19   1.18672339E+06   2.64675958E+05   6.91121323E+07   0.2685209       
  83               5.49540874E+01   1.84638283E+01   1648.51765285    3.17486090E-04   8.11248658E+19   1.15009903E+06   3.01301559E+05   6.27807113E+07   0.26688395      
  84               6.45654229E+01   2.05522443E+01   1696.06097520    3.43489721E-04   8.77695013E+19   1.08464716E+06   3.66755509E+05   5.64565694E+07   0.26520046      
  85               7.58577575E+01   2.27508083E+01   1742.37131651    3.70148617E-04   9.45762213E+19   9.98688880E+05   4.52760688E+05   5.02906388E+07   0.26376589      
  86               8.91250938E+01   2.49994336E+01   1785.99527619    3.96896192E-04   1.01385466E+20   8.94725388E+05   5.56670866E+05   4.44238606E+07   0.2623443       
  87               1.04712855E+02   2.71980689E+01   1825.92633299    4.22546321E-04   1.07889867E+20   7.67457293E+05   6.84000556E+05   3.90549141E+07   0.26125741      
  88               1.23026877E+02   2.91528636E+01   1859.17189873    4.45299011E-04   1.13576247E+20   6.31950549E+05   8.19587621E+05   3.45480880E+07   0.26015267      
  89               1.44543977E+02   3.07628461E+01   1885.37803307    4.63351017E-04   1.18182700E+20   5.55503949E+05   8.96050217E+05   3.10037051E+07   0.25915836      
  90               1.69824365E+02   3.25386629E+01   1912.87334959    4.83044508E-04   1.23208119E+20   5.31582779E+05   9.19977495E+05   2.72500895E+07   0.25820671      
  91               1.99526231E+02   3.44979912E+01   1941.99773577    5.04434079E-04   1.28668112E+20   4.78245563E+05   9.73150687E+05   2.32808099E+07   0.25761615      
  92               2.34422882E+02   3.61251443E+01   1965.09957361    5.22144209E-04   1.33152973E+20   3.99278778E+05   1.05211750E+06   2.01101764E+07   0.25677874      
  93               2.75422870E+02   3.73987504E+01   1982.67825752    5.35749160E-04   1.36625161E+20   3.55631075E+05   1.09576523E+06   1.77021606E+07   0.25604109      
  94               3.23593657E+02   3.88260890E+01   2001.71509045    5.50897243E-04   1.40490585E+20   3.41982643E+05   1.10980792E+06   1.50748520E+07   0.25499563      
  95               3.80189396E+02   4.04300379E+01   2022.47477497    5.67756107E-04   1.44792769E+20   3.28243254E+05   1.12366323E+06   1.22068830E+07   0.25411687      
  96               4.46683592E+02   4.22236909E+01   2044.84506224    5.86422223E-04   1.49562125E+20   2.90125483E+05   1.16127079E+06   9.09837153E+06   0.25322904      
  97               5.24807460E+02   4.35012784E+01   2060.32282777    6.00154031E-04   1.52929964E+20   2.35909257E+05   1.21548710E+06   6.94455155E+06   0.25275848      
  98               6.16595002E+02   4.43754866E+01   2070.69769037    6.09136861E-04   1.55221640E+20   2.09210741E+05   1.24218556E+06   5.49869171E+06   0.2519846       
  99               7.24435960E+02   4.53721275E+01   2082.30027937    6.19338662E-04   1.57823484E+20   2.03889893E+05   1.24787648E+06   3.87607023E+06   0.25138022      
  100              8.51138038E+02   4.65144659E+01   2095.34796928    6.30968126E-04   1.60789514E+20   1.98503252E+05   1.25710981E+06   2.04869802E+06   0.2503839       
  101              1.00000000E+03   4.78206162E+01   2109.88428729    6.44203626E-04   1.64165680E+20   1.95467113E+05   1.25621113E+06   0.00000000E+00   0.24964198      
