# ATMO pressure-temperature profile
# Effective temperature = 600.0K
# log(g) = 3.5cm/s^2
# M/H = 0.0
# Optical depth grid in band 17 (1.20-1.33microns)
# All parameters in cgs units
#
# Model Level      Optical Depth    Pressure         Temperature      Density          Number Density   Rad Flux         Conv Flux        Radial Extension Adiabatic Gradient
#                                   [Ba]             [K]              [g/cm^3]         [/cm^3]          [ergs/s/cm^2/sr] [ergs/s/cm^2/sr] [cm]             [K/Ba]          
  1                5.00000000E-05   1.00000000E-05   114.19887644     2.48111903E-09   6.34255159E+14   7.34804430E+06   0.00000000E+00   1.07579580E+08   0.33828215      
  2                5.91534807E-05   1.28202608E-04   144.65259662     2.51114380E-08   6.41942996E+15   7.34804430E+06   0.00000000E+00   1.02844063E+08   0.32760686      
  3                6.99826855E-05   2.55800078E-04   168.86138319     4.29155845E-08   1.09722620E+16   7.34804430E+06   0.00000000E+00   1.01614930E+08   0.32533487      
  4                8.27943887E-05   3.99385276E-04   180.42633097     6.26810290E-08   1.60331174E+16   7.34804430E+06   0.00000000E+00   1.00739475E+08   0.32326518      
  5                9.79515255E-05   5.63674309E-04   194.64621269     8.20530328E-08   2.09752972E+16   7.34804430E+06   0.00000000E+00   1.00015050E+08   0.3218669       
  6                1.15883473E-04   7.52962579E-04   201.61884461     1.05816801E-07   2.70500524E+16   7.34804430E+06   0.00000000E+00   9.93726595E+07   0.32252374      
  7                1.37098216E-04   9.72136607E-04   212.78511357     1.29448914E-07   3.30911527E+16   7.34804430E+06   0.00000000E+00   9.87804674E+07   0.32184895      
  8                1.62196734E-04   1.22638905E-03   218.19505746     1.59255966E-07   4.07107587E+16   7.34804430E+06   0.00000000E+00   9.82204932E+07   0.32058147      
  9                1.91890027E-04   1.52180429E-03   228.17445905     1.88974903E-07   4.83078395E+16   7.34804430E+06   0.00000000E+00   9.76819965E+07   0.32010975      
  10               2.27019260E-04   1.86515685E-03   233.07166749     2.26745268E-07   5.79631149E+16   7.34804430E+06   0.00000000E+00   9.71574680E+07   0.31936189      
  11               2.68579588E-04   2.26460483E-03   242.42928643     2.64679132E-07   6.76601857E+16   7.34804430E+06   0.00000000E+00   9.66418462E+07   0.31846149      
  12               3.17748350E-04   2.72943965E-03   247.06550271     3.13021193E-07   8.00179140E+16   7.34804430E+06   0.00000000E+00   9.61311626E+07   0.31667251      
  13               3.75918418E-04   3.27064253E-03   256.22206377     3.61683679E-07   9.24575528E+16   7.34804430E+06   0.00000000E+00   9.56225246E+07   0.31590992      
  14               4.44737657E-04   3.90079436E-03   260.83561971     4.23739075E-07   1.08320834E+17   7.34804430E+06   0.00000000E+00   9.51135086E+07   0.31429876      
  15               5.26155608E-04   4.63483849E-03   269.81309174     4.86725325E-07   1.24422071E+17   7.34804430E+06   0.00000000E+00   9.46023791E+07   0.31360127      
  16               6.22478712E-04   5.48983409E-03   274.45819087     5.66755027E-07   1.44880142E+17   7.34804430E+06   0.00000000E+00   9.40875961E+07   0.31213855      
  17               7.36435649E-04   6.48585395E-03   283.49255285     6.48243048E-07   1.65711004E+17   7.34804430E+06   0.00000000E+00   9.35679575E+07   0.31152887      
  18               8.71254639E-04   7.64610257E-03   288.24967246     7.51594607E-07   1.92130865E+17   7.34804430E+06   0.00000000E+00   9.30423152E+07   0.31023602      
  19               1.03075489E-03   8.99791604E-03   297.36705830     8.57356486E-07   2.19166877E+17   7.34804430E+06   0.00000000E+00   9.25097850E+07   0.30971087      
  20               1.21945479E-03   1.05725515E-02   302.36007947     9.90758297E-07   2.53268512E+17   7.34804430E+06   0.00000000E+00   9.19695093E+07   0.3085803       
  21               1.44269991E-03   1.24064253E-02   311.82253647     1.12733119E-06   2.88180775E+17   7.34804430E+06   0.00000000E+00   9.14207779E+07   0.30813335      
  22               1.70681442E-03   1.45414240E-02   317.25580110     1.29870265E-06   3.31988626E+17   7.34804430E+06   0.00000000E+00   9.08628000E+07   0.30713695      
  23               2.01928028E-03   1.70267262E-02   327.07436297     1.47501694E-06   3.77060021E+17   7.34804430E+06   0.00000000E+00   9.02949602E+07   0.30673079      
  24               2.38894914E-03   1.99185247E-02   332.95203765     1.69507088E-06   4.33312613E+17   7.34804430E+06   0.00000000E+00   8.97166304E+07   0.30583426      
  25               2.82629313E-03   2.32821353E-02   343.26198256     1.92180567E-06   4.91273051E+17   7.34804430E+06   0.00000000E+00   8.91273024E+07   0.30545835      
  26               3.34370152E-03   2.71924106E-02   349.75595682     2.20290101E-06   5.63129695E+17   7.34804430E+06   0.00000000E+00   8.85263292E+07   0.30467825      
  27               3.95583167E-03   3.17378142E-02   360.67265780     2.49330938E-06   6.37367087E+17   7.34804430E+06   0.00000000E+00   8.79130096E+07   0.30433424      
  28               4.68002425E-03   3.70191889E-02   367.83918351     2.85155441E-06   7.28944980E+17   7.34804430E+06   0.00000000E+00   8.72866580E+07   0.30366742      
  29               5.53679448E-03   4.31528896E-02   379.51206240     3.22178864E-06   8.23588242E+17   7.34804430E+06   0.00000000E+00   8.66467269E+07   0.30335667      
  30               6.55041330E-03   5.02700351E-02   387.61365386     3.67470823E-06   9.39368432E+17   7.34804430E+06   0.00000000E+00   8.59926243E+07   0.30279462      
  31               7.74959494E-03   5.85221293E-02   400.34839021     4.14185371E-06   1.05878523E+18   7.34804430E+06   0.00000000E+00   8.53237332E+07   0.3024526       
  32               9.16831029E-03   6.80789684E-02   409.72511643     4.70796121E-06   1.20350034E+18   7.34804430E+06   0.00000000E+00   8.46393483E+07   0.3020689       
  33               1.08467493E-02   7.91318644E-02   423.95813309     5.28867424E-06   1.35193019E+18   7.34804430E+06   0.00000000E+00   8.39388807E+07   0.30183048      
  34               1.28324595E-02   9.18955982E-02   435.16525649     5.98354859E-06   1.52955936E+18   7.34804430E+06   0.00000000E+00   8.32213758E+07   0.30140297      
  35               1.51816929E-02   1.06613734E-01   451.46624386     6.69123181E-06   1.71046310E+18   7.34804430E+06   0.00000000E+00   8.24858119E+07   0.30114822      
  36               1.79609996E-02   1.23552816E-01   465.22722906     7.52499237E-06   1.92359377E+18   7.34804430E+06   0.00000000E+00   8.17309214E+07   0.30083213      
  37               2.12491128E-02   1.43000990E-01   484.41426204     8.36453135E-06   2.13819821E+18   7.34804430E+06   0.00000000E+00   8.09557364E+07   0.30067292      
  38               2.51391797E-02   1.65268729E-01   500.99817854     9.34772078E-06   2.38935335E+18   7.34804430E+06   0.00000000E+00   8.01593766E+07   0.30045233      
  39               2.97413996E-02   1.90702077E-01   523.06704846     1.03311425E-05   2.64072941E+18   7.34804430E+06   0.00000000E+00   7.93409561E+07   0.30029779      
  40               3.51861462E-02   2.19648173E-01   544.81184297     1.14243172E-05   2.92016166E+18   7.32235377E+06   2.56905308E+04   7.84983964E+07   0.30007822      
  41               4.16276604E-02   2.52566342E-01   569.07984805     1.25762221E-05   3.21460863E+18   7.26853287E+06   7.95114283E+04   7.76299452E+07   0.29991822      
  42               4.92484201E-02   2.89966315E-01   592.13836430     1.38762211E-05   3.54691017E+18   7.19201832E+06   1.56025978E+05   7.67346617E+07   0.29976038      
  43               5.82643093E-02   3.32392234E-01   617.91394217     1.52429391E-05   3.89626703E+18   7.09085230E+06   2.57192000E+05   7.58121725E+07   0.2996724       
  44               6.89307339E-02   3.80445194E-01   642.34575544     1.67829508E-05   4.28991891E+18   6.96967093E+06   3.78373366E+05   7.48621111E+07   0.29957572      
  45               8.15498567E-02   4.34879018E-01   669.72239778     1.84000085E-05   4.70326523E+18   6.83050352E+06   5.17540781E+05   7.38825633E+07   0.29945384      
  46               9.64791575E-02   4.96531356E-01   695.66995611     2.02249459E-05   5.16974677E+18   6.68277207E+06   6.65272229E+05   7.28719224E+07   0.29927411      
  47               1.14141560E-01   5.66270508E-01   724.78549668     2.21390053E-05   5.65900775E+18   6.52975286E+06   8.18291435E+05   7.18297154E+07   0.29912112      
  48               1.35037411E-01   6.44983463E-01   752.28994873     2.42944539E-05   6.20996511E+18   6.38333011E+06   9.64714187E+05   7.07564339E+07   0.29889414      
  49               1.59758657E-01   7.33640972E-01   783.11276525     2.65463904E-05   6.78555092E+18   6.25265239E+06   1.09539191E+06   6.96524576E+07   0.29858949      
  50               1.89005613E-01   8.33530078E-01   812.15930918     2.90823017E-05   7.43371469E+18   6.15418195E+06   1.19386235E+06   6.85156118E+07   0.29824208      
  51               2.23606798E-01   9.46050146E-01   844.81290461     3.17323444E-05   8.11109443E+18   6.09228254E+06   1.25576176E+06   6.73443216E+07   0.29777354      
  52               2.64542408E-01   1.07266316E+00   875.50991462     3.47176877E-05   8.87417804E+18   6.07041127E+06   1.27763303E+06   6.61380310E+07   0.29717038      
  53               3.12972084E-01   1.21477994E+00   909.97472758     3.78283283E-05   9.66927962E+18   6.08257343E+06   1.26547087E+06   6.48979174E+07   0.29640815      
  54               3.70267763E-01   1.37378166E+00   942.13320259     4.13195687E-05   1.05616372E+19   6.13137839E+06   1.21666591E+06   6.36261269E+07   0.29560343      
  55               4.38052539E-01   1.55147042E+00   978.22051252     4.49430712E-05   1.14876865E+19   6.21468280E+06   1.13336150E+06   6.23222058E+07   0.29468282      
  56               5.18246648E-01   1.74984192E+00   1011.76249800    4.90098534E-05   1.25269712E+19   6.34367742E+06   1.00436688E+06   6.09855897E+07   0.29365804      
  57               6.13121862E-01   1.97121415E+00   1049.48180669    5.32255024E-05   1.36045673E+19   6.51372283E+06   8.34321464E+05   5.96149553E+07   0.2925745       
  58               7.25365844E-01   2.21808078E+00   1084.44596879    5.79598369E-05   1.48147825E+19   6.72637021E+06   6.21674093E+05   5.82094290E+07   0.29134079      
  59               8.58158289E-01   2.49297717E+00   1123.79601308    6.28613026E-05   1.60678087E+19   6.95851343E+06   3.89530875E+05   5.67692586E+07   0.29014674      
  60               1.01526100E+00   2.79870441E+00   1160.13107645    6.83591048E-05   1.74733353E+19   7.20010760E+06   1.47936702E+05   5.52944204E+07   0.28867933      
  61               1.20112443E+00   3.13874333E+00   1201.06455357    7.40503617E-05   1.89284605E+19   7.34804430E+06   0.00000000E+00   5.37830636E+07   0.28728156      
  62               1.42101382E+00   3.51717557E+00   1236.76601863    8.05816414E-05   2.05983458E+19   7.34804430E+06   0.00000000E+00   5.22338668E+07   0.28543338      
  63               1.68115827E+00   3.93970901E+00   1274.00332832    8.76223952E-05   2.23985251E+19   7.34804430E+06   0.00000000E+00   5.06437260E+07   0.28389748      
  64               1.98892727E+00   4.41245117E+00   1307.62666661    9.56117442E-05   2.44411695E+19   7.34804430E+06   0.00000000E+00   4.90104437E+07   0.28228447      
  65               2.35303941E+00   4.94169727E+00   1343.94937041    1.04184408E-04   2.66329374E+19   7.34804430E+06   0.00000000E+00   4.73335684E+07   0.28093301      
  66               2.78380943E+00   5.53407779E+00   1377.55340197    1.13826264E-04   2.90979676E+19   7.34804430E+06   0.00000000E+00   4.56133711E+07   0.27944739      
  67               3.29344035E+00   6.19800121E+00   1414.76862705    1.24127530E-04   3.17316077E+19   7.34804430E+06   0.00000000E+00   4.38470776E+07   0.27814527      
  68               3.89636920E+00   6.94443943E+00   1450.08998370    1.35687375E-04   3.46871071E+19   7.34804430E+06   0.00000000E+00   4.20282545E+07   0.27663451      
  69               4.60967600E+00   7.78777936E+00   1489.85450137    1.48101139E-04   3.78613087E+19   7.34804430E+06   0.00000000E+00   4.01469695E+07   0.2751952       
  70               5.45356761E+00   8.74589805E+00   1528.43844685    1.62120246E-04   4.14459689E+19   7.34804430E+06   0.00000000E+00   3.81916242E+07   0.27353902      
  71               6.45195012E+00   9.83439214E+00   1572.11280449    1.77233352E-04   4.53095403E+19   7.34804430E+06   0.00000000E+00   3.61609577E+07   0.27197888      
  72               7.63310614E+00   1.10561165E+01   1615.24342190    1.93947771E-04   4.95781668E+19   7.34804430E+06   0.00000000E+00   3.40771103E+07   0.27026577      
  73               9.03049593E+00   1.23901914E+01   1663.76817292    2.11074870E-04   5.39400124E+19   7.34804431E+06   0.00000000E+00   3.19919640E+07   0.26863347      
  74               1.06837053E+01   1.37936675E+01   1711.97860341    2.28381212E-04   5.83589218E+19   6.86857186E+06   4.79475256E+05   2.99705244E+07   0.26682374      
  75               1.26395671E+01   1.52183793E+01   1757.59037666    2.45497549E-04   6.27157437E+19   6.08094750E+06   1.26711090E+06   2.80677662E+07   0.26497465      
  76               1.49534878E+01   1.65863662E+01   1797.69223476    2.61726727E-04   6.68285053E+19   5.15588743E+06   2.19220498E+06   2.63611034E+07   0.26327902      
  77               1.76910170E+01   1.77860020E+01   1831.23625016    2.75804737E-04   7.03493031E+19   4.23743682E+06   3.11076586E+06   2.49490367E+07   0.26197066      
  78               2.09297047E+01   1.87671343E+01   1856.81786821    2.87008003E-04   7.32073177E+19   3.72457064E+06   3.62371578E+06   2.38462795E+07   0.26072333      
  79               2.47612977E+01   1.98591184E+01   1884.63967222    2.99218982E-04   7.63233592E+19   3.55637889E+06   3.79189608E+06   2.26679276E+07   0.25962377      
  80               2.92943389E+01   2.10700446E+01   1913.46287525    3.12671681E-04   7.97574487E+19   3.19825420E+06   4.15011014E+06   2.14160005E+07   0.25849194      
  81               3.46572422E+01   2.20694581E+01   1936.75883229    3.23654243E-04   8.25357238E+19   2.68493473E+06   4.66373241E+06   2.04224794E+07   0.25780653      
  82               4.10019301E+01   2.28519248E+01   1953.93307132    3.32178839E-04   8.47108312E+19   2.39749750E+06   4.95054678E+06   1.96678402E+07   0.25691838      
  83               4.85081376E+01   2.37364130E+01   1973.33240967    3.41637861E-04   8.71245768E+19   2.30555984E+06   5.04248450E+06   1.88375629E+07   0.25622875      
  84               5.73885036E+01   2.47319191E+01   1993.91837409    3.52283950E-04   8.98413526E+19   2.19341630E+06   5.15462804E+06   1.79301297E+07   0.25507301      
  85               6.78945948E+01   2.58456979E+01   2016.65302120    3.63976583E-04   9.28288397E+19   1.94545843E+06   5.40258585E+06   1.69465354E+07   0.25445814      
  86               8.03240320E+01   2.66726164E+01   2032.61746403    3.72985238E-04   9.50464292E+19   1.61264781E+06   5.73539648E+06   1.62367482E+07   0.25390927      
  87               9.50289215E+01   2.72733972E+01   2044.37356735    3.79188519E-04   9.66284070E+19   1.44655969E+06   5.90464671E+06   1.57315722E+07   0.25346358      
  88               1.12425830E+02   2.79642937E+01   2057.12834789    3.86377746E-04   9.84619211E+19   1.39865504E+06   5.95442846E+06   1.51607782E+07   0.25274082      
  89               1.33007583E+02   2.87564086E+01   2071.91617751    3.94479646E-04   1.00528292E+20   1.35569366E+06   5.99685861E+06   1.45191700E+07   0.25221158      
  90               1.57357229E+02   2.96614147E+01   2087.92565447    4.03766020E-04   1.02896990E+20   1.30551673E+06   6.04813049E+06   1.38020787E+07   0.25130628      
  91               1.86164557E+02   3.06940468E+01   2106.14906379    4.14196796E-04   1.05557935E+20   1.26126896E+06   6.09185424E+06   1.30035740E+07   0.25061869      
  92               2.20245630E+02   3.18683173E+01   2125.81853760    4.26051083E-04   1.08582236E+20   1.20874471E+06   6.14566905E+06   1.21196110E+07   0.24941572      
  93               2.60565913E+02   3.31991840E+01   2147.76902117    4.39291571E-04   1.11960718E+20   1.15922443E+06   6.19472156E+06   1.11468022E+07   0.24866962      
  94               3.08267614E+02   3.47024612E+01   2171.33741788    4.54179724E-04   1.15760075E+20   1.10237573E+06   6.25319857E+06   1.00825391E+07   0.24712227      
  95               3.64702046E+02   3.63950706E+01   2197.10881768    4.70721362E-04   1.19982205E+20   1.04892673E+06   6.30530520E+06   8.92493191E+06   0.24631153      
  96               4.31467909E+02   3.82948648E+01   2224.66519309    4.89128678E-04   1.24681414E+20   9.88853225E+05   6.36399476E+06   7.67290570E+06   0.24429706      
  97               5.10456573E+02   4.04211761E+01   2254.15291147    5.09498039E-04   1.29882731E+20   9.33144007E+05   6.42839699E+06   6.32597740E+06   0.24343799      
  98               6.03905660E+02   4.27944252E+01   2285.65040075    5.31934840E-04   1.35613596E+20   8.71644835E+05   6.49039443E+06   4.88438196E+06   0.24092132      
  99               7.14462436E+02   4.54371699E+01   2318.58388156    5.56707310E-04   1.41943105E+20   8.10128758E+05   6.55504264E+06   3.34865798E+06   0.23870668      
  100              8.45258798E+02   4.83731225E+01   2353.49410763    5.83880660E-04   1.48873311E+20   7.48157091E+05   6.61822476E+06   1.72015856E+06   0.2360078       
  101              1.00000000E+03   5.16292935E+01   2389.55900732    6.13698682E-04   1.56496368E+20   7.13342254E+05   6.64211846E+06   0.00000000E+00   0.23344385      
