# ATMO pressure-temperature profile
# Effective temperature = 500.0K
# log(g) = 4.5cm/s^2
# M/H = 0.0
# Optical depth grid in band 17 (1.20-1.33microns)
# All parameters in cgs units
#
# Model Level      Optical Depth    Pressure         Temperature      Density          Number Density   Rad Flux         Conv Flux        Radial Extension Adiabatic Gradient
#                                   [Ba]             [K]              [g/cm^3]         [/cm^3]          [ergs/s/cm^2/sr] [ergs/s/cm^2/sr] [cm]             [K/Ba]          
  1                5.00000000E-05   1.00000000E-05   67.80863117      4.17950942E-09   1.06817119E+15   3.53705699E+06   0.00000000E+00   1.07353545E+07   0.34434109      
  2                5.91534807E-05   5.70654423E-04   93.48904846      1.72984331E-07   4.42118092E+16   3.53705699E+06   0.00000000E+00   1.00759845E+07   0.31484426      
  3                6.99826855E-05   1.15144102E-03   112.50247723     2.90037124E-07   7.41319549E+16   3.53705699E+06   0.00000000E+00   9.99398964E+06   0.32579215      
  4                8.27943887E-05   1.79698775E-03   125.47709891     4.05874150E-07   1.03730504E+17   3.53705699E+06   0.00000000E+00   9.93449125E+06   0.3257902       
  5                9.79515255E-05   2.53258623E-03   135.50500801     5.29687399E-07   1.35373836E+17   3.53705699E+06   0.00000000E+00   9.88432227E+06   0.3257106       
  6                1.15883473E-04   3.37813123E-03   145.01029651     6.60219597E-07   1.68734355E+17   3.53705700E+06   0.00000000E+00   9.83910725E+06   0.32557225      
  7                1.37098216E-04   4.35469754E-03   153.08610935     8.06181570E-07   2.06038344E+17   3.53705701E+06   0.00000000E+00   9.79677795E+06   0.32524878      
  8                1.62196734E-04   5.48573215E-03   161.47792810     9.62790631E-07   2.46063541E+17   3.53705702E+06   0.00000000E+00   9.75618099E+06   0.32486039      
  9                1.91890027E-04   6.79834354E-03   168.95283477     1.14037287E-06   2.91449600E+17   3.53705703E+06   0.00000000E+00   9.71656716E+06   0.32430635      
  10               2.27019260E-04   8.32384706E-03   176.96271001     1.33305881E-06   3.40696891E+17   3.53705706E+06   0.00000000E+00   9.67744119E+06   0.32369213      
  11               2.68579588E-04   1.00977908E-02   184.18138393     1.55362987E-06   3.97106026E+17   3.53705709E+06   0.00000000E+00   9.63846123E+06   0.32300238      
  12               3.17748350E-04   1.21608443E-02   192.08927960     1.79420356E-06   4.58549727E+17   3.53705714E+06   0.00000000E+00   9.59938606E+06   0.3222504       
  13               3.75918418E-04   1.45592238E-02   199.42531502     2.06767456E-06   5.28790661E+17   3.53705721E+06   0.00000000E+00   9.56000921E+06   0.32152153      
  14               4.44737657E-04   1.73485069E-02   207.28092334     2.37200713E-06   6.06217694E+17   3.53705730E+06   0.00000000E+00   9.52018075E+06   0.32078882      
  15               5.26155608E-04   2.05934957E-02   214.49982961     2.72092645E-06   6.95390832E+17   3.53705741E+06   0.00000000E+00   9.47978862E+06   0.32003633      
  16               6.22478712E-04   2.43690190E-02   222.26665335     3.10724187E-06   7.94126294E+17   3.53705755E+06   0.00000000E+00   9.43872746E+06   0.31928139      
  17               7.36435649E-04   2.87596430E-02   229.43879694     3.55246930E-06   9.07909319E+17   3.53705773E+06   0.00000000E+00   9.39693734E+06   0.3184402       
  18               8.71254639E-04   3.38636775E-02   237.09140452     4.04792088E-06   1.03453252E+18   3.53705796E+06   0.00000000E+00   9.35437433E+06   0.31742138      
  19               1.03075489E-03   3.97993121E-02   244.15979341     4.61971417E-06   1.18066654E+18   3.53705823E+06   0.00000000E+00   9.31096894E+06   0.31646312      
  20               1.21945479E-03   4.67020604E-02   251.80252377     5.25641529E-06   1.34338904E+18   3.53705856E+06   0.00000000E+00   9.26667242E+06   0.31543338      
  21               1.44269991E-03   5.47281567E-02   258.99791331     5.98864078E-06   1.53052488E+18   3.53705894E+06   0.00000000E+00   9.22143525E+06   0.31449151      
  22               1.70681442E-03   6.40590435E-02   266.85160376     6.80337392E-06   1.73874731E+18   3.53705939E+06   0.00000000E+00   9.17520815E+06   0.31308095      
  23               2.01928028E-03   7.49039310E-02   274.34558406     7.73785069E-06   1.97757278E+18   3.53705990E+06   0.00000000E+00   9.12794173E+06   0.31159316      
  24               2.38894914E-03   8.75037310E-02   282.59535498     8.77556853E-06   2.24278370E+18   3.53706051E+06   0.00000000E+00   9.07958958E+06   0.30996387      
  25               2.82629313E-03   1.02135852E-01   290.59318050     9.96108186E-06   2.54576691E+18   3.53706124E+06   0.00000000E+00   9.03009970E+06   0.30888418      
  26               3.34370152E-03   1.19123140E-01   299.35359361     1.12778254E-05   2.88228880E+18   3.53706212E+06   0.00000000E+00   8.97941719E+06   0.30768982      
  27               3.95583167E-03   1.38840015E-01   307.87362144     1.27807366E-05   3.26638980E+18   3.53706325E+06   0.00000000E+00   8.92748370E+06   0.30685384      
  28               4.68002425E-03   1.61720261E-01   317.20856340     1.44488488E-05   3.69271143E+18   3.53706464E+06   0.00000000E+00   8.87424026E+06   0.30587692      
  29               5.53679448E-03   1.88260115E-01   326.47449176     1.63426615E-05   4.17671561E+18   3.53706620E+06   0.00000000E+00   8.81962418E+06   0.30519802      
  30               6.55041330E-03   2.19023916E-01   336.76423398     1.84322901E-05   4.71076476E+18   3.53706784E+06   0.00000000E+00   8.76357246E+06   0.30440656      
  31               7.74959494E-03   2.54653550E-01   347.17741412     2.07879661E-05   5.31280787E+18   3.53706957E+06   0.00000000E+00   8.70601313E+06   0.3038162       
  32               9.16831029E-03   2.95885610E-01   358.69162075     2.33784835E-05   5.97486989E+18   3.53707144E+06   0.00000000E+00   8.64686775E+06   0.30312552      
  33               1.08467493E-02   3.43553552E-01   370.43035467     2.62846232E-05   6.71759342E+18   3.53707339E+06   0.00000000E+00   8.58605881E+06   0.30263726      
  34               1.28324595E-02   3.98587121E-01   383.44026675     2.94604534E-05   7.52924420E+18   3.53707478E+06   0.00000000E+00   8.52351893E+06   0.30214202      
  35               1.51816929E-02   4.62020641E-01   396.98389527     3.29839280E-05   8.42974291E+18   3.53707575E+06   0.00000000E+00   8.45916902E+06   0.30180396      
  36               1.79609996E-02   5.35010405E-01   412.15880896     3.67884361E-05   9.40207004E+18   3.53707616E+06   0.00000000E+00   8.39290846E+06   0.3014056       
  37               2.12491128E-02   6.18799302E-01   428.27311001     4.09494055E-05   1.04653763E+19   3.53707501E+06   0.00000000E+00   8.32464179E+06   0.30105704      
  38               2.51391797E-02   7.14748191E-01   446.71081412     4.53466505E-05   1.15891728E+19   3.53491030E+06   2.15992293E+03   8.25423030E+06   0.30068945      
  39               2.97413996E-02   8.24279297E-01   466.83570130     5.00413313E-05   1.27889877E+19   3.51743087E+06   1.96299994E+04   8.18151924E+06   0.30044423      
  40               3.51861462E-02   9.49176879E-01   486.45147405     5.53005152E-05   1.41329710E+19   3.49049018E+06   4.65649163E+04   8.10643894E+06   0.30024253      
  41               4.16276604E-02   1.09148630E+00   507.89854772     6.09061947E-05   1.55656463E+19   3.46051351E+06   7.65311974E+04   8.02889670E+06   0.30007483      
  42               4.92484201E-02   1.25352386E+00   528.79142410     6.71895591E-05   1.71701481E+19   3.42359848E+06   1.13432409E+05   7.94879497E+06   0.2998913       
  43               5.82643093E-02   1.43795112E+00   551.67327316     7.38781437E-05   1.88793926E+19   3.38039265E+06   1.56614932E+05   7.86601672E+06   0.29973814      
  44               6.89307339E-02   1.64759834E+00   573.94357724     8.13646536E-05   2.07925610E+19   3.33384383E+06   2.03125226E+05   7.78050745E+06   0.29961775      
  45               8.15498567E-02   1.88557815E+00   598.33906311     8.93203760E-05   2.28256429E+19   3.28536242E+06   2.51553948E+05   7.69223057E+06   0.29951963      
  46               9.64791575E-02   2.15551005E+00   622.04677279     9.82154908E-05   2.50987937E+19   3.23878775E+06   2.98066436E+05   7.60109478E+06   0.29937957      
  47               1.14141560E-01   2.46131488E+00   648.02631207     1.07653212E-04   2.75106199E+19   3.19348830E+06   3.43301726E+05   7.50704867E+06   0.29921118      
  48               1.35037411E-01   2.80749147E+00   673.22976973     1.18197137E-04   3.02051484E+19   3.15023607E+06   3.86490182E+05   7.41000198E+06   0.2990096       
  49               1.59758657E-01   3.19865232E+00   700.84207367     1.29359388E-04   3.30577058E+19   3.10467255E+06   4.32010087E+05   7.30996676E+06   0.29882058      
  50               1.89005613E-01   3.63959283E+00   727.53002770     1.41792167E-04   3.62349543E+19   3.05705757E+06   4.79622242E+05   7.20700999E+06   0.29858356      
  51               2.23606798E-01   4.13633590E+00   756.75779931     1.54920390E-04   3.95899299E+19   3.00592658E+06   5.30807311E+05   7.10102328E+06   0.29827751      
  52               2.64542408E-01   4.69584217E+00   784.98030951     1.69552410E-04   4.33291898E+19   2.95645077E+06   5.80377002E+05   6.99185443E+06   0.29781662      
  53               3.12972084E-01   5.32642760E+00   815.94977848     1.85022250E-04   4.72822831E+19   2.91160295E+06   6.25313708E+05   6.87926941E+06   0.29730793      
  54               3.70267763E-01   6.03639732E+00   845.83309423     2.02276079E-04   5.16914820E+19   2.87897699E+06   6.57972966E+05   6.76321659E+06   0.29667858      
  55               4.38052539E-01   6.83384127E+00   878.56281704     2.20467847E-04   5.63401382E+19   2.86167540E+06   6.75270126E+05   6.64380249E+06   0.29595659      
  56               5.18246648E-01   7.72722682E+00   909.96560157     2.40686394E-04   6.15069971E+19   2.86776270E+06   6.69192599E+05   6.52116012E+06   0.29500663      
  57               6.13121862E-01   8.72712929E+00   944.28831482     2.61950718E-04   6.69410675E+19   2.89906351E+06   6.37951915E+05   6.39523217E+06   0.29395853      
  58               7.25365844E-01   9.84557725E+00   977.13531751     2.85587989E-04   7.29814206E+19   2.95762721E+06   5.79434442E+05   6.26592097E+06   0.29271089      
  59               8.58158289E-01   1.10949445E+01   1013.02681120    3.10427351E-04   7.93286445E+19   3.03990027E+06   4.97131386E+05   6.13323029E+06   0.29145457      
  60               1.01526100E+00   1.24871742E+01   1047.22408844    3.37981749E-04   8.63675077E+19   3.14694336E+06   3.89961079E+05   5.99730956E+06   0.29001687      
  61               1.20112443E+00   1.40341834E+01   1084.47794322    3.66804437E-04   9.37329454E+19   3.27391998E+06   2.62808939E+05   5.85836901E+06   0.2886855       
  62               1.42101382E+00   1.57511389E+01   1119.83225409    3.98681882E-04   1.01879036E+20   3.41500121E+06   1.21493846E+05   5.71638856E+06   0.2872805       
  63               1.68115827E+00   1.76596119E+01   1158.48289346    4.32074181E-04   1.10412278E+20   3.53624464E+06   0.00000000E+00   5.57097876E+06   0.28600613      
  64               1.98892727E+00   1.97836005E+01   1194.62269524    4.69397544E-04   1.19950044E+20   3.53575984E+06   0.00000000E+00   5.42183584E+06   0.28464272      
  65               2.35303941E+00   2.21510020E+01   1229.42066970    5.10691985E-04   1.30502462E+20   3.53518848E+06   0.00000000E+00   5.26893072E+06   0.28343664      
  66               2.78380943E+00   2.47875709E+01   1263.46208671    5.56082329E-04   1.42101151E+20   3.53458227E+06   0.00000000E+00   5.11247548E+06   0.28213036      
  67               3.29344035E+00   2.77169635E+01   1297.35805353    6.05559465E-04   1.54743223E+20   3.53401915E+06   0.00000000E+00   4.95283989E+06   0.28096261      
  68               3.89636920E+00   3.09621797E+01   1331.46854607    6.59142952E-04   1.68432717E+20   3.53357648E+06   0.00000000E+00   4.79040639E+06   0.27965507      
  69               4.60967600E+00   3.45593245E+01   1366.22418625    7.17028076E-04   1.83218412E+20   3.53331389E+06   0.00000000E+00   4.62494354E+06   0.27847594      
  70               5.45356761E+00   3.85472881E+01   1401.82482735    7.79493196E-04   1.99170916E+20   3.53326627E+06   0.00000000E+00   4.45625804E+06   0.2771262       
  71               6.45195012E+00   4.29722332E+01   1438.58719624    8.46808065E-04   2.16360299E+20   3.53347522E+06   0.00000000E+00   4.28402738E+06   0.27586934      
  72               7.63310614E+00   4.78777852E+01   1476.62009126    9.19207605E-04   2.34850300E+20   3.53402064E+06   0.00000000E+00   4.10819851E+06   0.27440485      
  73               9.03049593E+00   5.33028861E+01   1516.14943158    9.96692836E-04   2.54644650E+20   3.53480285E+06   0.00000000E+00   3.92896370E+06   0.27307038      
  74               1.06837053E+01   5.92764635E+01   1557.19660679    1.07916015E-03   2.75717718E+20   3.53531290E+06   0.00000000E+00   3.74682036E+06   0.27154354      
  75               1.26395671E+01   6.58265785E+01   1599.87751667    1.16640881E-03   2.98016552E+20   3.53535342E+06   0.00000000E+00   3.56219836E+06   0.27014679      
  76               1.49534878E+01   7.29835193E+01   1644.11176689    1.25848051E-03   3.21528373E+20   3.53530454E+06   0.00000000E+00   3.37539388E+06   0.26856208      
  77               1.76910170E+01   8.07447623E+01   1690.08944314    1.35435742E-03   3.46043353E+20   3.39290035E+06   1.40531472E+05   3.18739968E+06   0.2671105       
  78               2.09297047E+01   8.90810617E+01   1734.01394774    1.45694572E-03   3.72099115E+20   3.20996695E+06   3.23451772E+05   2.99971885E+06   0.26544601      
  79               2.47612977E+01   9.79644909E+01   1779.07821398    1.56160735E-03   3.98840713E+20   3.00922139E+06   5.24221307E+05   2.81347763E+06   0.26405118      
  80               2.92943389E+01   1.07377932E+02   1821.69212857    1.67164542E-03   4.26939065E+20   2.78102384E+06   7.52281825E+05   2.62923348E+06   0.26246824      
  81               3.46572422E+01   1.17221955E+02   1864.88435098    1.78276782E-03   4.55284530E+20   2.52539617E+06   1.00781858E+06   2.44890782E+06   0.2611879       
  82               4.10019301E+01   1.27265394E+02   1904.36169403    1.89583397E-03   4.84046106E+20   2.23667287E+06   1.29684832E+06   2.27614794E+06   0.25975647      
  83               4.85081376E+01   1.37221688E+02   1942.77653968    2.00460602E-03   5.11594360E+20   2.01817521E+06   1.51605839E+06   2.11463980E+06   0.2585714       
  84               5.73885036E+01   1.47916749E+02   1979.86685232    2.12233099E-03   5.41136972E+20   1.80665700E+06   1.72871205E+06   1.95066221E+06   0.25724877      
  85               6.78945948E+01   1.58223227E+02   2015.26915109    2.23047890E-03   5.68673540E+20   1.55013280E+06   1.98748315E+06   1.80086242E+06   0.25633788      
  86               8.03240320E+01   1.67696558E+02   2044.59906676    2.33004172E-03   5.94075759E+20   1.38639661E+06   2.15351265E+06   1.66945426E+06   0.25510316      
  87               9.50289215E+01   1.78195982E+02   2077.32024627    2.43683723E-03   6.21327094E+20   1.31982509E+06   2.22140792E+06   1.53011580E+06   0.25408447      
  88               1.12425830E+02   1.89845404E+02   2110.07170556    2.55574498E-03   6.51671479E+20   1.17206902E+06   2.37118223E+06   1.38250005E+06   0.2529911       
  89               1.33007583E+02   1.99890915E+02   2138.58490689    2.65585699E-03   6.77005814E+20   9.62039979E+05   2.58441044E+06   1.26056470E+06   0.25241207      
  90               1.57357229E+02   2.07992631E+02   2159.25942839    2.73697540E-03   6.97700388E+20   8.44740438E+05   2.70365055E+06   1.16553936E+06   0.25147634      
  91               1.86164557E+02   2.17159460E+02   2183.61495516    2.82564410E-03   7.20325075E+20   8.12496353E+05   2.73611430E+06   1.06130155E+06   0.25076681      
  92               2.20245630E+02   2.27488134E+02   2208.32186804    2.92683416E-03   7.46143250E+20   7.69808818E+05   2.77889572E+06   9.47725429E+05   0.24967748      
  93               2.60565913E+02   2.39076942E+02   2236.67219162    3.03683438E-03   7.74214308E+20   7.33088096E+05   2.81557703E+06   8.24803439E+05   0.2488136       
  94               3.08267614E+02   2.52130465E+02   2265.56244877    3.16160795E-03   8.06074397E+20   6.45099206E+05   2.90486318E+06   6.91585302E+05   0.24790143      
  95               3.64702046E+02   2.62345185E+02   2288.76684727    3.25909179E-03   8.30228014E+20   5.21908266E+05   3.03069637E+06   5.90944724E+05   0.24753393      
  96               4.31467909E+02   2.70009611E+02   2304.31127500    3.33160936E-03   8.48718986E+20   4.53935476E+05   3.09983815E+06   5.17391051E+05   0.24317376      
  97               5.10456573E+02   2.78829239E+02   2322.93580040    3.41275671E-03   8.69414634E+20   4.41747980E+05   3.11209366E+06   4.34678633E+05   0.24306672      
  98               6.03905660E+02   2.88950054E+02   2342.59871926    3.50683732E-03   8.93409813E+20   4.11572550E+05   3.14196922E+06   3.42165122E+05   0.23492091      
  99               7.14462436E+02   3.00538503E+02   2364.21334745    3.61437522E-03   9.20744841E+20   3.93554796E+05   3.15997535E+06   2.39229562E+05   0.23382557      
  100              8.45258798E+02   3.13772762E+02   2388.18025306    3.73552166E-03   9.51642825E+20   3.75048951E+05   3.17843082E+06   1.25333786E+05   0.23260535      
  101              1.00000000E+03   3.28847251E+02   2414.23849402    3.87255979E-03   9.86597214E+20   3.64318886E+05   3.18925838E+06   0.00000000E+00   0.23127084      
