# ATMO pressure-temperature profile
# Effective temperature = 350.0K
# log(g) = 4.0cm/s^2
# M/H = 0.0
# Optical depth grid in band 17 (1.20-1.33microns)
# All parameters in cgs units
#
# Model Level      Optical Depth    Pressure         Temperature      Density          Number Density   Rad Flux         Conv Flux        Radial Extension Adiabatic Gradient
#                                   [Ba]             [K]              [g/cm^3]         [/cm^3]          [ergs/s/cm^2/sr] [ergs/s/cm^2/sr] [cm]             [K/Ba]          
  1                5.00000000E-05   1.00000000E-05   40.82204333      6.94355438E-09   1.77431654E+15   8.50753756E+05   0.00000000E+00   2.82471975E+07   0.34574463      
  2                5.91534807E-05   1.68087934E-04   52.44466564      9.08472526E-08   2.32145921E+16   8.50753756E+05   0.00000000E+00   2.76177610E+07   0.31479378      
  3                6.99826855E-05   3.54478534E-04   59.08184192      1.70064041E-07   4.34572014E+16   8.50753756E+05   0.00000000E+00   2.74678057E+07   0.31481916      
  4                8.27943887E-05   5.74323605E-04   64.27332413      2.53280926E-07   6.47219725E+16   8.50753756E+05   0.00000000E+00   2.73618781E+07   0.31483682      
  5                9.79515255E-05   8.33558331E-04   68.04904838      3.47208637E-07   8.87237275E+16   8.50753756E+05   0.00000000E+00   2.72744609E+07   0.31485116      
  6                1.15883473E-04   1.13918484E-03   72.04317920      4.48206250E-07   1.14532085E+17   8.50753756E+05   0.00000000E+00   2.71969868E+07   0.31486369      
  7                1.37098216E-04   1.49702824E-03   75.25315387      5.63873736E-07   1.44089099E+17   8.50753756E+05   0.00000000E+00   2.71258060E+07   0.31487511      
  8                1.62196734E-04   1.91245967E-03   79.05457625      6.85712161E-07   1.75223000E+17   8.50753756E+05   0.00000000E+00   2.70589966E+07   0.31488582      
  9                1.91890027E-04   2.39273510E-03   82.16929980      8.25394583E-07   2.10916654E+17   8.50753756E+05   0.00000000E+00   2.69951572E+07   0.31489601      
  10               2.27019260E-04   2.94701704E-03   86.09087448      9.70291234E-07   2.47942723E+17   8.50753756E+05   0.00000000E+00   2.69332204E+07   0.31490582      
  11               2.68579588E-04   3.58740018E-03   89.39809642      1.13743905E-06   2.90654729E+17   8.50753756E+05   0.00000000E+00   2.68722632E+07   0.31491536      
  12               3.17748350E-04   4.32837562E-03   93.60217691      1.31073704E-06   3.34938316E+17   8.50753756E+05   0.00000000E+00   2.68115781E+07   0.31492472      
  13               3.75918418E-04   5.18634202E-03   97.21094786      1.51224639E-06   3.86430872E+17   8.50753756E+05   0.00000000E+00   2.67506383E+07   0.31493399      
  14               4.44737657E-04   6.18020371E-03   101.87430268     1.71954897E-06   4.39403975E+17   8.50753756E+05   0.00000000E+00   2.66890061E+07   0.31494325      
  15               5.26155608E-04   7.33232442E-03   105.89129519     1.96271426E-06   5.01541935E+17   8.50753756E+05   0.00000000E+00   2.66262925E+07   0.31495256      
  16               6.22478712E-04   8.66898738E-03   111.03336194     2.21303814E-06   5.65510562E+17   8.50753756E+05   0.00000000E+00   2.65621569E+07   0.31496197      
  17               7.36435649E-04   1.02205787E-02   115.54357768     2.50722677E-06   6.40701165E+17   8.50753756E+05   0.00000000E+00   2.64962872E+07   0.31497153      
  18               8.71254639E-04   1.20218162E-02   121.37822051     2.80717877E-06   7.17389735E+17   8.50753756E+05   0.00000000E+00   2.64283919E+07   0.31802557      
  19               1.03075489E-03   1.41128077E-02   126.62068929     3.15926236E-06   8.07299325E+17   8.50753756E+05   0.00000000E+00   2.63581778E+07   0.32007221      
  20               1.21945479E-03   1.65401610E-02   133.27243489     3.51784021E-06   8.98928687E+17   8.50753756E+05   0.00000000E+00   2.62853660E+07   0.32284517      
  21               1.44269991E-03   1.93579392E-02   139.23819751     3.94073993E-06   1.00699327E+18   8.50753756E+05   0.00000000E+00   2.62096862E+07   0.32414811      
  22               1.70681442E-03   2.26290306E-02   146.65687842     4.37361503E-06   1.11760761E+18   8.50753756E+05   0.00000000E+00   2.61308939E+07   0.32598827      
  23               2.01928028E-03   2.64264314E-02   153.33774474     4.88502151E-06   1.24828942E+18   8.50753756E+05   0.00000000E+00   2.60487391E+07   0.32570764      
  24               2.38894914E-03   3.08357772E-02   161.41442324     5.41488890E-06   1.38368872E+18   8.50753756E+05   0.00000000E+00   2.59630065E+07   0.32504544      
  25               2.82629313E-03   3.59579681E-02   168.59891855     6.04528935E-06   1.54477843E+18   8.50753756E+05   0.00000000E+00   2.58734798E+07   0.3248244       
  26               3.34370152E-03   4.19092433E-02   177.20334473     6.70369034E-06   1.71302517E+18   8.50753756E+05   0.00000000E+00   2.57799943E+07   0.32436627      
  27               3.95583167E-03   4.88215398E-02   184.95593718     7.48196381E-06   1.91191700E+18   8.50753756E+05   0.00000000E+00   2.56823925E+07   0.32370764      
  28               4.68002425E-03   5.68445634E-02   194.22619855     8.29553593E-06   2.11985895E+18   8.50753756E+05   0.00000000E+00   2.55805550E+07   0.32220483      
  29               5.53679448E-03   6.61434617E-02   202.98788089     9.23522266E-06   2.36016655E+18   8.50753756E+05   0.00000000E+00   2.54743156E+07   0.32091294      
  30               6.55041330E-03   7.69132528E-02   212.48975721     1.02534679E-05   2.62173637E+18   8.50753756E+05   0.00000000E+00   2.53636409E+07   0.31866293      
  31               7.74959494E-03   8.93869461E-02   220.98640366     1.14653695E-05   2.92977578E+18   8.50753756E+05   0.00000000E+00   2.52485965E+07   0.31707872      
  32               9.16831029E-03   1.03842164E-01   229.95579992     1.27999828E-05   3.27080912E+18   8.50753756E+05   0.00000000E+00   2.51292730E+07   0.31491061      
  33               1.08467493E-02   1.20605301E-01   237.90126358     1.43696867E-05   3.67193924E+18   8.50753756E+05   0.00000000E+00   2.50056706E+07   0.31349419      
  34               1.28324595E-02   1.40051442E-01   246.51241033     1.61038174E-05   4.11504546E+18   8.50753756E+05   0.00000000E+00   2.48778369E+07   0.31168197      
  35               1.51816929E-02   1.62609497E-01   254.48897709     1.81116067E-05   4.62810039E+18   8.50753756E+05   0.00000000E+00   2.47457503E+07   0.31055463      
  36               1.79609996E-02   1.88786161E-01   263.60157773     2.03002870E-05   5.18737913E+18   8.50753756E+05   0.00000000E+00   2.46092339E+07   0.30910373      
  37               2.12491128E-02   2.19154586E-01   272.47363830     2.27984918E-05   5.82575090E+18   8.50753756E+05   0.00000000E+00   2.44680718E+07   0.3081273       
  38               2.51391797E-02   2.54369109E-01   282.69997178     2.55046079E-05   6.51725095E+18   8.50753756E+05   0.00000000E+00   2.43220360E+07   0.30681526      
  39               2.97413996E-02   2.95167093E-01   292.96132904     2.85586509E-05   7.29765756E+18   8.50753756E+05   0.00000000E+00   2.41708677E+07   0.30591024      
  40               3.51861462E-02   3.42380458E-01   305.17520233     3.18009266E-05   8.12616371E+18   8.50753761E+05   0.00000000E+00   2.40142012E+07   0.30481277      
  41               4.16276604E-02   3.96875426E-01   319.19774713     3.52431273E-05   9.00575713E+18   8.47466730E+05   3.28702819E+03   2.38514219E+07   0.30405487      
  42               4.92484201E-02   4.59654207E-01   333.76799621     3.90361157E-05   9.97498813E+18   8.39157576E+05   1.15961790E+04   2.36821665E+07   0.30317205      
  43               5.82643093E-02   5.31906118E-01   348.83303050     4.32212620E-05   1.10444279E+19   8.26488801E+05   2.42649548E+04   2.35062659E+07   0.30240601      
  44               6.89307339E-02   6.15008764E-01   364.48875484     4.78274500E-05   1.22214577E+19   8.09610423E+05   4.11433320E+04   2.33234864E+07   0.30175104      
  45               8.15498567E-02   7.10535693E-01   380.68284034     5.29057299E-05   1.35191205E+19   7.88552224E+05   6.22015320E+04   2.31335817E+07   0.30124466      
  46               9.64791575E-02   8.20223023E-01   397.51657922     5.84866352E-05   1.49452281E+19   7.63668195E+05   8.70855602E+04   2.29363953E+07   0.30086827      
  47               1.14141560E-01   9.46005059E-01   414.91945985     6.46270129E-05   1.65141222E+19   7.36239179E+05   1.14514576E+05   2.27318050E+07   0.30057033      
  48               1.35037411E-01   1.09007361E+00   432.99529904     7.13603707E-05   1.82346942E+19   7.08264335E+05   1.42489421E+05   2.25196597E+07   0.30032777      
  49               1.59758657E-01   1.25490702E+00   451.66848370     7.87546506E-05   2.01241526E+19   6.81208785E+05   1.69544971E+05   2.22997833E+07   0.30011911      
  50               1.89005613E-01   1.44320914E+00   471.04246887     8.68467624E-05   2.21919286E+19   6.54807311E+05   1.95946444E+05   2.20720952E+07   0.29996478      
  51               2.23606798E-01   1.65789611E+00   491.02045473     9.57073124E-05   2.44558954E+19   6.28309505E+05   2.22444251E+05   2.18366134E+07   0.29984545      
  52               2.64542408E-01   1.90226946E+00   511.71090700     1.05373971E-04   2.69260843E+19   6.04175838E+05   2.46577918E+05   2.15932728E+07   0.29972743      
  53               3.12972084E-01   2.18048621E+00   533.04793087     1.15959688E-04   2.96287222E+19   5.84957423E+05   2.65796333E+05   2.13415797E+07   0.299582        
  54               3.70267763E-01   2.49715729E+00   555.17221377     1.27508285E-04   3.25794700E+19   5.66474416E+05   2.84279339E+05   2.10811529E+07   0.29943204      
  55               4.38052539E-01   2.85703899E+00   577.97455441     1.40128867E-04   3.58041434E+19   5.46553843E+05   3.04199912E+05   2.08119208E+07   0.29929547      
  56               5.18246648E-01   3.26503393E+00   601.55934149     1.53861258E-04   3.93128983E+19   5.24670817E+05   3.26082938E+05   2.05340606E+07   0.29915786      
  57               6.13121862E-01   3.72628663E+00   625.77733694     1.68801505E-04   4.31302790E+19   5.02048474E+05   3.48705282E+05   2.02478498E+07   0.29897083      
  58               7.25365844E-01   4.24767385E+00   650.78889970     1.85025109E-04   4.72755800E+19   4.80626144E+05   3.70127612E+05   1.99528261E+07   0.2987367       
  59               8.58158289E-01   4.83700492E+00   676.49872768     2.02688383E-04   5.17887448E+19   4.61411895E+05   3.89341861E+05   1.96485067E+07   0.29848045      
  60               1.01526100E+00   5.50213043E+00   703.04556849     2.21853502E-04   5.66856650E+19   4.44390345E+05   4.06363410E+05   1.93348490E+07   0.29820397      
  61               1.20112443E+00   6.25095879E+00   730.26109964     2.42653661E-04   6.20003739E+19   4.29485176E+05   4.21268580E+05   1.90121068E+07   0.2978606       
  62               1.42101382E+00   7.09157089E+00   758.24807936     2.65123965E-04   6.77418370E+19   4.17185873E+05   4.33567882E+05   1.86806875E+07   0.29743326      
  63               1.68115827E+00   8.03499323E+00   786.88289268     2.89462850E-04   7.39607406E+19   4.08477867E+05   4.42275886E+05   1.83401341E+07   0.29692341      
  64               1.98892727E+00   9.09660074E+00   816.43152490     3.15846923E-04   8.07021690E+19   4.04168334E+05   4.46585422E+05   1.79890353E+07   0.29635176      
  65               2.35303941E+00   1.02913425E+01   846.76723276     3.44530138E-04   8.80306336E+19   4.04601643E+05   4.46159477E+05   1.76268569E+07   0.29569882      
  66               2.78380943E+00   1.16333019E+01   878.02638478     3.75592414E-04   9.59668573E+19   4.10054129E+05   4.40705782E+05   1.72538061E+07   0.29496074      
  67               3.29344035E+00   1.31352579E+01   909.95542772     4.09203559E-04   1.04554884E+20   4.20552006E+05   4.30204868E+05   1.68706912E+07   0.29412367      
  68               3.89636920E+00   1.48085460E+01   942.61551802     4.45346905E-04   1.13789889E+20   4.36250729E+05   4.14505223E+05   1.64787221E+07   0.29321126      
  69               4.60967600E+00   1.66723721E+01   975.85389583     4.84320976E-04   1.23748070E+20   4.56644700E+05   3.94109482E+05   1.60774032E+07   0.29221938      
  70               5.45356761E+00   1.87495603E+01   1009.90588960    5.26298182E-04   1.34473288E+20   4.79766368E+05   3.70987439E+05   1.56659756E+07   0.29116072      
  71               6.45195012E+00   2.10613377E+01   1044.56228181    5.71579026E-04   1.46041893E+20   5.02816644E+05   3.47937430E+05   1.52444808E+07   0.29000848      
  72               7.63310614E+00   2.36269480E+01   1079.94739699    6.20213607E-04   1.58464091E+20   5.24651516E+05   3.26111924E+05   1.48135744E+07   0.28878589      
  73               9.03049593E+00   2.64653426E+01   1115.78240395    6.72409291E-04   1.71800274E+20   5.47485144E+05   3.03271493E+05   1.43740476E+07   0.28748855      
  74               1.06837053E+01   2.95987733E+01   1152.22692162    7.28233795E-04   1.86063649E+20   5.71646643E+05   2.79110979E+05   1.39262644E+07   0.28615369      
  75               1.26395671E+01   3.30617837E+01   1189.14808271    7.88179294E-04   2.01379927E+20   5.95923345E+05   2.54830649E+05   1.34691700E+07   0.2847729       
  76               1.49534878E+01   3.68981902E+01   1226.87337098    8.52589358E-04   2.17836758E+20   6.19058908E+05   2.31695589E+05   1.30011739E+07   0.2833756       
  77               1.76910170E+01   4.11468390E+01   1265.20102376    9.21960677E-04   2.35560671E+20   6.39128369E+05   2.11630377E+05   1.25219651E+07   0.28193532      
  78               2.09297047E+01   4.58412027E+01   1304.28478798    9.96373112E-04   2.54571285E+20   6.54029098E+05   1.96728074E+05   1.20321754E+07   0.28046988      
  79               2.47612977E+01   5.10091088E+01   1343.78735174    1.07612347E-03   2.74943227E+20   6.62494493E+05   1.88261674E+05   1.15330923E+07   0.27898324      
  80               2.92943389E+01   5.66731464E+01   1383.79815968    1.16107456E-03   2.96640480E+20   6.64647255E+05   1.86108392E+05   1.10263751E+07   0.27751149      
  81               3.46572422E+01   6.28722639E+01   1424.07138372    1.25168777E-03   3.19781385E+20   6.63360286E+05   1.87395163E+05   1.05121507E+07   0.27600858      
  82               4.10019301E+01   6.96868270E+01   1465.04505318    1.34859060E-03   3.44528815E+20   6.60234353E+05   1.90521018E+05   9.98764392E+06   0.27447959      
  83               4.85081376E+01   7.71908946E+01   1506.57174209    1.45265407E-03   3.71109521E+20   6.54121640E+05   1.96633688E+05   9.45150546E+06   0.27294473      
  84               5.73885036E+01   8.54395209E+01   1548.84805514    1.56399097E-03   3.99554319E+20   6.43562348E+05   2.07191380E+05   8.90425636E+06   0.27143108      
  85               6.78945948E+01   9.44626322E+01   1591.44889106    1.68285213E-03   4.29925482E+20   6.27278734E+05   2.23475719E+05   8.34807285E+06   0.26993232      
  86               8.03240320E+01   1.04259037E+02   1634.35275006    1.80863075E-03   4.62055084E+20   6.04741071E+05   2.46019543E+05   7.78654305E+06   0.268478        
  87               9.50289215E+01   1.14804517E+02   1676.99784941    1.94085174E-03   4.95852274E+20   5.75480819E+05   2.75286033E+05   7.22368713E+06   0.26705064      
  88               1.12425830E+02   1.26042495E+02   1719.29996933    2.07937374E-03   5.30995908E+20   5.42258903E+05   3.08515965E+05   6.66421988E+06   0.26566221      
  89               1.33007583E+02   1.38013559E+02   1761.06588153    2.22284423E-03   5.67638694E+20   5.08832754E+05   3.41953228E+05   6.10740020E+06   0.26429506      
  90               1.57357229E+02   1.50778220E+02   1802.68371047    2.37232258E-03   6.05821828E+20   4.74285742E+05   3.76519708E+05   5.55153484E+06   0.26296223      
  91               1.86164557E+02   1.64280665E+02   1843.62491878    2.52740159E-03   6.45415994E+20   4.36532495E+05   4.14298963E+05   5.00010380E+06   0.26167548      
  92               2.20245630E+02   1.78380335E+02   1883.75336446    2.68598318E-03   6.85881002E+20   4.04407638E+05   4.46463693E+05   4.45894718E+06   0.26037824      
  93               2.60565913E+02   1.93560696E+02   1924.06397090    2.85386988E-03   7.28657614E+20   3.72819397E+05   4.78124976E+05   3.91064820E+06   0.25916509      
  94               3.08267614E+02   2.09258592E+02   1963.33135873    3.02445170E-03   7.71996863E+20   3.33888970E+05   5.16926733E+05   3.37631972E+06   0.2580781       
  95               3.64702046E+02   2.25159213E+02   2000.63637506    3.19498355E-03   8.15168523E+20   3.03485349E+05   5.47273668E+05   2.86479633E+06   0.25694716      
  96               4.31467909E+02   2.42416469E+02   2038.95242038    3.37793917E-03   8.61154091E+20   2.72408129E+05   5.79165941E+05   2.33947145E+06   0.25577608      
  97               5.10456573E+02   2.59094647E+02   2073.77916231    3.55004628E-03   9.04944144E+20   2.31953847E+05   6.20157062E+05   1.85784040E+06   0.2547522       
  98               6.03905660E+02   2.74313307E+02   2104.18250988    3.70416900E-03   9.44255036E+20   2.07538355E+05   6.44884074E+05   1.43816416E+06   0.25389478      
  99               7.14462436E+02   2.91345886E+02   2136.47868655    3.87459142E-03   9.87725270E+20   1.97991528E+05   6.54880757E+05   9.88568155E+05   0.25296748      
  100              8.45258798E+02   3.10368991E+02   2170.95301147    4.06191124E-03   1.03550867E+21   1.88304304E+05   6.64487450E+05   5.09051524E+05   0.2519719       
  101              1.00000000E+03   3.31563261E+02   2207.23556336    4.26760228E-03   1.08803673E+21   1.82944511E+05   6.67813393E+05   0.00000000E+00   0.25091464      
