# ATMO pressure-temperature profile
# Effective temperature = 1200.0K
# log(g) = 3.0cm/s^2
# M/H = 0.0
# Optical depth grid in band 17 (1.20-1.33microns)
# All parameters in cgs units
#
# Model Level      Optical Depth    Pressure         Temperature      Density          Number Density   Rad Flux         Conv Flux        Radial Extension Adiabatic Gradient
#                                   [Ba]             [K]              [g/cm^3]         [/cm^3]          [ergs/s/cm^2/sr] [ergs/s/cm^2/sr] [cm]             [K/Ba]          
  1                1.00000000E-05   1.00000000E-05   271.27761835     1.04504117E-09   2.67000378E+14   1.17570814E+08   0.00000000E+00   5.00841185E+08   0.29751568      
  2                1.20226443E-05   1.84915537E-05   321.47417189     1.63067232E-09   4.16632510E+14   1.17570814E+08   0.00000000E+00   4.94336337E+08   0.29747218      
  3                1.44543977E-05   2.78125216E-05   346.31711936     2.27669619E-09   5.81690866E+14   1.17570814E+08   0.00000000E+00   4.89498791E+08   0.29758729      
  4                1.73780083E-05   3.85522901E-05   361.19682815     3.02582040E-09   7.73093627E+14   1.17570814E+08   0.00000000E+00   4.85406931E+08   0.29766782      
  5                2.08929613E-05   5.10946113E-05   375.47571591     3.85804315E-09   9.85641738E+14   1.17570814E+08   0.00000000E+00   4.81735923E+08   0.29774458      
  6                2.51188643E-05   6.58307119E-05   385.28277303     4.84420747E-09   1.23758433E+15   1.17570814E+08   0.00000000E+00   4.78327232E+08   0.29779205      
  7                3.01995172E-05   8.32033281E-05   396.65913036     5.94698685E-09   1.51931940E+15   1.17570814E+08   0.00000000E+00   4.75090510E+08   0.29784054      
  8                3.63078055E-05   1.03718111E-04   405.10736185     7.25868925E-09   1.85442939E+15   1.17570814E+08   0.00000000E+00   4.71968105E+08   0.29786827      
  9                4.36515832E-05   1.27961154E-04   416.13294578     8.71806198E-09   2.22726498E+15   1.17570814E+08   0.00000000E+00   4.68920574E+08   0.29789607      
  10               5.24807460E-05   1.56603742E-04   425.15307832     1.04431452E-08   2.66798047E+15   1.17570814E+08   0.00000000E+00   4.65918739E+08   0.29790827      
  11               6.30957344E-05   1.90436571E-04   437.07273342     1.23530232E-08   3.15589452E+15   1.17570814E+08   0.00000000E+00   4.62939974E+08   0.29791688      
  12               7.58577575E-05   2.30441113E-04   445.40875201     1.46682340E-08   3.74737415E+15   1.17570814E+08   0.00000000E+00   4.59968077E+08   0.29791442      
  13               9.12010839E-05   2.77858630E-04   455.10560540     1.73096508E-08   4.42219149E+15   1.17570814E+08   0.00000000E+00   4.56992263E+08   0.2979034       
  14               1.09647820E-04   3.34107605E-04   462.66892987     2.04735251E-08   5.23048385E+15   1.17570814E+08   0.00000000E+00   4.54004307E+08   0.29788618      
  15               1.31825674E-04   4.00874097E-04   471.79199436     2.40898458E-08   6.15436525E+15   1.17570814E+08   0.00000000E+00   4.50997918E+08   0.29827536      
  16               1.58489319E-04   4.80159670E-04   478.87172080     2.84277889E-08   7.26260339E+15   1.17570814E+08   0.00000000E+00   4.47968176E+08   0.29821712      
  17               1.90546072E-04   5.74339215E-04   487.71330915     3.33872348E-08   8.52962038E+15   1.17570814E+08   0.00000000E+00   4.44911181E+08   0.29812794      
  18               2.29086765E-04   6.86223702E-04   494.63669271     3.93329005E-08   1.00485923E+16   1.17570814E+08   0.00000000E+00   4.41823718E+08   0.29806557      
  19               2.75422870E-04   8.19132532E-04   503.60308603     4.61150174E-08   1.17812570E+16   1.17570814E+08   0.00000000E+00   4.38702999E+08   0.29796811      
  20               3.31131121E-04   9.76988646E-04   510.71143227     5.42363586E-08   1.38560607E+16   1.17570814E+08   0.00000000E+00   4.35546578E+08   0.29789877      
  21               3.98107171E-04   1.16446842E-03   519.98735313     6.34909052E-08   1.62203707E+16   1.17570814E+08   0.00000000E+00   4.32351706E+08   0.29779008      
  22               4.78630092E-04   1.38714604E-03   527.30067808     7.45831018E-08   1.90541551E+16   1.17570814E+08   0.00000000E+00   4.29115766E+08   0.29771213      
  23               5.75439937E-04   1.65163322E-03   536.86105908     8.72224517E-08   2.22831993E+16   1.17570814E+08   0.00000000E+00   4.25836548E+08   0.29759107      
  24               6.91830971E-04   1.96577158E-03   544.38370959     1.02377499E-07   2.61549425E+16   1.17570814E+08   0.00000000E+00   4.22512214E+08   0.29750163      
  25               8.31763771E-04   2.33884390E-03   554.25039142     1.19638738E-07   3.05647655E+16   1.17570814E+08   0.00000000E+00   4.19141245E+08   0.29736291      
  26               1.00000000E-03   2.78180421E-03   562.12130391     1.40304988E-07   3.58444858E+16   1.17570814E+08   0.00000000E+00   4.15722298E+08   0.29725788      
  27               1.20226443E-03   3.30753591E-03   572.60297090     1.63767442E-07   4.18385679E+16   1.17570814E+08   0.00000000E+00   4.12254020E+08   0.29709946      
  28               1.44543977E-03   3.93119596E-03   581.11193408     1.91796860E-07   4.89993972E+16   1.17570814E+08   0.00000000E+00   4.08735068E+08   0.29697581      
  29               1.73780083E-03   4.67058437E-03   592.36689335     2.23540925E-07   5.71092271E+16   1.17570814E+08   0.00000000E+00   4.05164203E+08   0.29679072      
  30               2.08929613E-03   5.54651433E-03   601.71193701     2.61341338E-07   6.67663065E+16   1.17570814E+08   0.00000000E+00   4.01540215E+08   0.29664059      
  31               2.51188643E-03   6.58323332E-03   614.08240724     3.03940952E-07   7.76494585E+16   1.17570814E+08   0.00000000E+00   3.97861786E+08   0.29642285      
  32               3.01995172E-03   7.80892442E-03   624.66420019     3.54422449E-07   9.05462444E+16   1.17570814E+08   0.00000000E+00   3.94127343E+08   0.29624033      
  33               3.63078055E-03   9.25718048E-03   638.30684654     4.11174312E-07   1.05044923E+17   1.17570814E+08   0.00000000E+00   3.90333566E+08   0.29597893      
  34               4.36515832E-03   1.09674550E-02   650.16275703     4.78256070E-07   1.22182670E+17   1.17570814E+08   0.00000000E+00   3.86476806E+08   0.29575235      
  35               5.24807460E-03   1.29855807E-02   665.28986272     5.53385431E-07   1.41376202E+17   1.17570814E+08   0.00000000E+00   3.82553934E+08   0.29543947      
  36               6.30957344E-03   1.53644677E-02   678.78852900     6.41741555E-07   1.63949035E+17   1.17570814E+08   0.00000000E+00   3.78562032E+08   0.29516095      
  37               7.58577575E-03   1.81649240E-02   695.72126351     7.40249721E-07   1.89114204E+17   1.17570814E+08   0.00000000E+00   3.74498907E+08   0.29478248      
  38               9.12010839E-03   2.14556165E-02   711.30635018     8.55192910E-07   2.18479227E+17   1.17570814E+08   0.00000000E+00   3.70363044E+08   0.29444224      
  39               1.09647820E-02   2.53134037E-02   730.76676091     9.82096395E-07   2.50898231E+17   1.17570814E+08   0.00000000E+00   3.66153552E+08   0.29402036      
  40               1.31825674E-02   2.98234137E-02   749.20733250     1.12859331E-06   2.88324251E+17   1.17570814E+08   0.00000000E+00   3.61869727E+08   0.29365548      
  41               1.58489319E-02   3.50804727E-02   771.73321024     1.28878334E-06   3.29248713E+17   1.17570814E+08   0.00000000E+00   3.57510754E+08   0.29314629      
  42               1.90546072E-02   4.11990137E-02   793.41947441     1.47219345E-06   3.76105602E+17   1.17570814E+08   0.00000000E+00   3.53068786E+08   0.29265752      
  43               2.29086765E-02   4.83063438E-02   819.57118871     1.67107847E-06   4.26916878E+17   1.17570814E+08   0.00000000E+00   3.48537456E+08   0.29201318      
  44               2.75422870E-02   5.65373538E-02   845.23742216     1.89641680E-06   4.84487527E+17   1.17570814E+08   0.00000000E+00   3.43913774E+08   0.29130094      
  45               3.31131121E-02   6.60323436E-02   875.61764770     2.13803828E-06   5.46220563E+17   1.17570814E+08   0.00000000E+00   3.39198356E+08   0.29037836      
  46               3.98107171E-02   7.69267161E-02   905.74099154     2.40796959E-06   6.15175470E+17   1.17570814E+08   0.00000000E+00   3.34396926E+08   0.28955313      
  47               4.78630092E-02   8.93517577E-02   940.75291816     2.69271834E-06   6.87944441E+17   1.17570814E+08   0.00000000E+00   3.29517406E+08   0.28863683      
  48               5.75439937E-02   1.03485054E-01   975.59840809     3.00714601E-06   7.68302749E+17   1.17570814E+08   0.00000000E+00   3.24550671E+08   0.28772021      
  49               6.91830971E-02   1.19520284E-01   1015.65354591    3.33601017E-06   8.52357658E+17   1.17570814E+08   0.00000000E+00   3.19487943E+08   0.28661505      
  50               8.31763771E-02   1.37600351E-01   1057.54353161    3.68840645E-06   9.42425714E+17   1.17327238E+08   2.43584651E+05   3.14333671E+08   0.28556819      
  51               1.00000000E-01   1.57900022E-01   1099.72409628    4.07011034E-06   1.03997833E+18   1.16849618E+08   7.21214154E+05   3.09094450E+08   0.28436853      
  52               1.20226443E-01   1.80598578E-01   1142.57092197    4.48056144E-06   1.14487217E+18   1.16172320E+08   1.39852319E+06   3.03779133E+08   0.28311986      
  53               1.44543977E-01   2.05988589E-01   1185.70437213    4.92452103E-06   1.25832430E+18   1.15314380E+08   2.25647291E+06   2.98373895E+08   0.28157229      
  54               1.73780083E-01   2.34430036E-01   1229.67155972    5.40404357E-06   1.38086100E+18   1.14274553E+08   3.29630686E+06   2.92860611E+08   0.27996607      
  55               2.08929613E-01   2.66270015E-01   1274.06476894    5.92412046E-06   1.51375851E+18   1.13005277E+08   4.56558794E+06   2.87233292E+08   0.2784708       
  56               2.51188643E-01   3.01844772E-01   1319.35663708    6.48505560E-06   1.65709456E+18   1.11435110E+08   6.13575965E+06   2.81493802E+08   0.27728958      
  57               3.01995172E-01   3.41483327E-01   1365.07827513    7.09095627E-06   1.81191487E+18   1.09499405E+08   8.07145715E+06   2.75648472E+08   0.27564073      
  58               3.63078055E-01   3.85547348E-01   1411.45574773    7.74297748E-06   1.97850108E+18   1.07216040E+08   1.03547889E+07   2.69701729E+08   0.27376126      
  59               4.36515832E-01   4.34568136E-01   1458.22189461    8.44785960E-06   2.15854002E+18   1.04633337E+08   1.29374088E+07   2.63640548E+08   0.27153163      
  60               5.24807460E-01   4.88965788E-01   1505.55362675    9.20960130E-06   2.35238328E+18   1.01749122E+08   1.58215132E+07   2.57472875E+08   0.26949098      
  61               6.30957344E-01   5.48691662E-01   1552.82290301    1.00201280E-05   2.55936527E+18   9.84512583E+07   1.91191762E+07   2.51255498E+08   0.26771241      
  62               7.58577575E-01   6.12788035E-01   1599.36428605    1.08668138E-05   2.77516444E+18   9.45737072E+07   2.29968285E+07   2.45112840E+08   0.26623113      
  63               9.12010839E-01   6.78586972E-01   1643.21966180    1.17160976E-05   2.99113307E+18   8.99881384E+07   2.75841707E+07   2.39281193E+08   0.26478169      
  64               1.09647820E+00   7.40978640E-01   1681.88709421    1.25116431E-05   3.19105794E+18   8.48356033E+07   3.27435529E+07   2.34127386E+08   0.26337499      
  65               1.31825674E+00   7.93314336E-01   1712.25406226    1.31575515E-05   3.35585306E+18   7.99982561E+07   3.75750383E+07   2.30048387E+08   0.26201454      
  66               1.58489319E+00   8.52100726E-01   1744.62522979    1.38694713E-05   3.53764807E+18   7.50129493E+07   4.25696815E+07   2.25696681E+08   0.26093078      
  67               1.90546072E+00   8.98912332E-01   1769.02485037    1.44432259E-05   3.68052053E+18   7.04879347E+07   4.72525901E+07   2.22388725E+08   0.26007434      
  68               2.29086765E+00   9.32013983E-01   1785.79057336    1.48339205E-05   3.78022580E+18   6.70209989E+07   5.08862556E+07   2.20127259E+08   0.25909997      
  69               2.75422870E+00   9.69093464E-01   1803.83135084    1.52693783E-05   3.89130770E+18   6.36962838E+07   5.40155916E+07   2.17663516E+08   0.25800866      
  70               3.31131121E+00   1.01111208E+00   1823.73251006    1.57570923E-05   4.01572531E+18   6.02910263E+07   5.72853541E+07   2.14954615E+08   0.25674997      
  71               3.98107171E+00   1.05886553E+00   1845.34588284    1.63073816E-05   4.15612757E+18   5.67000555E+07   6.08748677E+07   2.11975584E+08   0.25531939      
  72               4.78630092E+00   1.11276672E+00   1868.90531034    1.69206625E-05   4.31263468E+18   5.28957284E+07   6.46788484E+07   2.08730709E+08   0.25368099      
  73               5.75439937E+00   1.17308335E+00   1893.94533714    1.76009864E-05   4.48628923E+18   4.90554564E+07   6.85153683E+07   2.05235603E+08   0.25191833      
  74               6.91830971E+00   1.24064164E+00   1920.84614712    1.83526192E-05   4.67820892E+18   4.55053702E+07   7.20544044E+07   2.01476695E+08   0.24994483      
  75               8.31763771E+00   1.31685591E+00   1949.49136811    1.91921564E-05   4.89263459E+18   4.22115798E+07   7.53401733E+07   1.97415759E+08   0.24771327      
  76               1.00000000E+01   1.40261769E+00   1980.15151599    2.01234124E-05   5.13058313E+18   3.90050518E+07   7.85441447E+07   1.93051787E+08   0.24514324      
  77               1.20226443E+01   1.49887009E+00   2012.37664604    2.11572809E-05   5.39486480E+18   3.58662143E+07   8.16807114E+07   1.88386999E+08   0.24236845      
  78               1.44543977E+01   1.60664796E+00   2046.43675079    2.22976824E-05   5.68654185E+18   3.28119618E+07   8.47330185E+07   1.83424835E+08   0.23928223      
  79               1.73780083E+01   1.72709028E+00   2081.81455838    2.35575097E-05   6.00895343E+18   2.98787995E+07   8.76645828E+07   1.78169672E+08   0.2359909       
  80               2.08929613E+01   1.86146115E+00   2118.80349359    2.49414725E-05   6.36339870E+18   2.71004537E+07   9.04416995E+07   1.72626207E+08   0.23242848      
  81               2.51188643E+01   2.01116277E+00   2156.83874941    2.64650833E-05   6.75391179E+18   2.44820863E+07   9.30591958E+07   1.66799393E+08   0.2287459       
  82               3.01995172E+01   2.17774697E+00   2196.26653303    2.81338432E-05   7.18204653E+18   2.20211431E+07   9.55195873E+07   1.60694399E+08   0.22468364      
  83               3.63078055E+01   2.36293709E+00   2236.40813448    2.99673834E-05   7.65291582E+18   1.97086395E+07   9.78318477E+07   1.54316437E+08   0.22040089      
  84               4.36515832E+01   2.56863189E+00   2277.67018945    3.19721841E-05   8.16839765E+18   1.75209620E+07   1.00019604E+08   1.47671112E+08   0.21583116      
  85               5.24807460E+01   2.79673493E+00   2319.28340357    3.41733781E-05   8.73420391E+18   1.54704295E+07   1.02070469E+08   1.40770029E+08   0.21130926      
  86               6.30957344E+01   3.04957103E+00   2361.81068221    3.65712187E-05   9.35232328E+18   1.36312659E+07   1.03910217E+08   1.33617992E+08   0.20666205      
  87               7.58577575E+01   3.32990528E+00   2404.46522807    3.91998225E-05   1.00308842E+19   1.19791544E+07   1.05563205E+08   1.26213947E+08   0.20203241      
  88               9.12010839E+01   3.64055565E+00   2447.88339001    4.20663206E-05   1.07721598E+19   1.05028582E+07   1.07040644E+08   1.18563836E+08   0.19746687      
  89               1.09647820E+02   3.98463122E+00   2491.24005007    4.52047982E-05   1.15850629E+19   9.16209955E+06   1.08382768E+08   1.10673422E+08   0.19298511      
  90               1.31825674E+02   4.36561028E+00   2535.22179702    4.86242730E-05   1.24725382E+19   7.97470356E+06   1.09571764E+08   1.02547208E+08   0.18852092      
  91               1.58489319E+02   4.78723832E+00   2578.95045916    5.23654688E-05   1.34452192E+19   6.93057926E+06   1.10617793E+08   9.41914352E+07   0.18421966      
  92               1.90546072E+02   5.25357526E+00   2623.20208860    5.64364402E-05   1.45060459E+19   6.02910657E+06   1.11521476E+08   8.56130770E+07   0.18013269      
  93               2.29086765E+02   5.76897889E+00   2667.09659943    6.08830918E-05   1.56670072E+19   5.23432547E+06   1.12318859E+08   7.68202997E+07   0.17616581      
  94               2.75422870E+02   6.33812060E+00   2711.39348490    6.57139958E-05   1.69314359E+19   4.54508581E+06   1.13011200E+08   6.78222099E+07   0.17233071      
  95               3.31131121E+02   6.96597660E+00   2755.19183695    7.09810876E-05   1.83128529E+19   3.94423138E+06   1.13615869E+08   5.86290043E+07   0.16886899      
  96               3.98107171E+02   7.65784034E+00   2799.40924612    7.66877476E-05   1.98137078E+19   3.42881946E+06   1.14136069E+08   4.92513578E+07   0.16562628      
  97               4.78630092E+02   8.41935390E+00   2843.04775946    8.28945986E-05   2.14496618E+19   2.97888771E+06   1.14592099E+08   3.97001335E+07   0.16261382      
  98               5.75439937E+02   9.25643928E+00   2887.06986391    8.96013036E-05   2.32226888E+19   2.59214577E+06   1.14986804E+08   2.99870445E+07   0.1597625       
  99               6.91830971E+02   1.01753060E+01   2930.41504587    9.68765394E-05   2.51503587E+19   2.25447223E+06   1.15335128E+08   2.01243913E+07   0.1572174       
  100              8.31763771E+02   1.11824369E+01   2974.16502082    1.04711295E-04   2.72331097E+19   1.96293700E+06   1.15641092E+08   1.01246692E+07   0.15478008      
  101              1.00000000E+03   1.22846556E+01   3017.12864543    1.13186825E-04   2.94913734E+19   1.81316889E+06   1.15801302E+08   0.00000000E+00   0.15255223      
