# ATMO pressure-temperature profile
# Effective temperature = 800.0K
# log(g) = 2.5cm/s^2
# M/H = 0.0
# Optical depth grid in band 17 (1.20-1.33microns)
# All parameters in cgs units
#
# Model Level      Optical Depth    Pressure         Temperature      Density          Number Density   Rad Flux         Conv Flux        Radial Extension Adiabatic Gradient
#                                   [Ba]             [K]              [g/cm^3]         [/cm^3]          [ergs/s/cm^2/sr] [ergs/s/cm^2/sr] [cm]             [K/Ba]          
  1                5.00000000E-04   1.00000000E-05   219.67195008     1.29046893E-09   3.29724512E+14   2.32236541E+07   0.00000000E+00   1.16461375E+09   0.31020339      
  2                5.78069831E-04   1.31447999E-04   264.44032862     1.40912150E-08   3.60041141E+15   2.32236541E+07   0.00000000E+00   1.07455159E+09   0.30564919      
  3                6.68329458E-04   2.58299773E-04   289.73834716     2.52720301E-08   6.45719477E+15   2.32236539E+07   0.00000000E+00   1.05329458E+09   0.30342419      
  4                7.72682194E-04   3.97724648E-04   303.20865083     3.71845838E-08   9.50094399E+15   2.32236536E+07   0.00000000E+00   1.03891193E+09   0.3026775       
  5                8.93328530E-04   5.53569263E-04   317.33364627     4.94512918E-08   1.26351873E+16   2.32236532E+07   0.00000000E+00   1.02741925E+09   0.30193011      
  6                1.03281254E-03   7.28848669E-04   326.65217080     6.32518813E-08   1.61613508E+16   2.32236527E+07   0.00000000E+00   1.01750852E+09   0.30160241      
  7                1.19407555E-03   9.26748148E-04   338.44495980     7.76237974E-08   1.98335071E+16   2.32236518E+07   0.00000000E+00   1.00857731E+09   0.30116913      
  8                1.38051810E-03   1.15072802E-03   346.23950719     9.42143415E-08   2.40725394E+16   2.32236507E+07   0.00000000E+00   1.00029497E+09   0.30098024      
  9                1.59607173E-03   1.40478488E-03   356.73699454     1.11630454E-07   2.85224952E+16   2.32236494E+07   0.00000000E+00   9.92461013E+08   0.30069843      
  10               1.84528182E-03   1.69337194E-03   363.64131555     1.32007894E-07   3.37291175E+16   2.32236478E+07   0.00000000E+00   9.84943303E+08   0.30057809      
  11               2.13340350E-03   2.02157777E-03   373.48877901     1.53437981E-07   3.92047540E+16   2.32236462E+07   0.00000000E+00   9.77650745E+08   0.30037873      
  12               2.46651240E-03   2.39509070E-03   380.02795168     1.78659522E-07   4.56491046E+16   2.32236445E+07   0.00000000E+00   9.70516860E+08   0.30029325      
  13               2.85163282E-03   2.82037121E-03   389.76313523     2.05127718E-07   5.24120748E+16   2.32236431E+07   0.00000000E+00   9.63491797E+08   0.30014274      
  14               3.29688580E-03   3.30464355E-03   396.43758878     2.36303883E-07   6.03775708E+16   2.32236422E+07   0.00000000E+00   9.56536071E+08   0.30007497      
  15               3.81166043E-03   3.85622616E-03   406.26614425     2.69074251E-07   6.87507916E+16   2.32236419E+07   0.00000000E+00   9.49618732E+08   0.29995451      
  16               4.40681180E-03   4.48451256E-03   413.06384832     3.07764190E-07   7.86364497E+16   2.32236424E+07   0.00000000E+00   9.42714545E+08   0.29989936      
  17               5.09488990E-03   5.20018355E-03   423.16310144     3.48361226E-07   8.90095737E+16   2.32236437E+07   0.00000000E+00   9.35802772E+08   0.29979806      
  18               5.89040429E-03   6.01531987E-03   430.45267489     3.96151120E-07   1.01218327E+17   2.32236456E+07   0.00000000E+00   9.28863940E+08   0.29974723      
  19               6.81013002E-03   6.94353158E-03   441.39073657     4.45948027E-07   1.13941791E+17   2.32236473E+07   0.00000000E+00   9.21880418E+08   0.29965653      
  20               7.87346142E-03   7.99944181E-03   450.04199098     5.03890793E-07   1.28745627E+17   2.32236485E+07   0.00000000E+00   9.14836451E+08   0.29960932      
  21               9.10282102E-03   9.20002443E-03   461.76000423     5.64808020E-07   1.44310691E+17   2.32236497E+07   0.00000000E+00   9.07719837E+08   0.29953663      
  22               1.05241324E-02   1.05664040E-02   469.90044959     6.37493450E-07   1.62872285E+17   2.32236505E+07   0.00000000E+00   9.00518937E+08   0.29956056      
  23               1.21673669E-02   1.21214084E-02   481.86036658     7.13158142E-07   1.82203920E+17   2.32236512E+07   0.00000000E+00   8.93226027E+08   0.29950868      
  24               1.40671754E-02   1.38902941E-02   490.54374433     8.02763265E-07   2.05097110E+17   2.32236518E+07   0.00000000E+00   8.85833157E+08   0.29943987      
  25               1.62636194E-02   1.59016658E-02   503.12427792     8.96026396E-07   2.28924982E+17   2.32236522E+07   0.00000000E+00   8.78333555E+08   0.29931092      
  26               1.88030155E-02   1.81871494E-02   512.59103391     1.00588175E-06   2.56991920E+17   2.32236524E+07   0.00000000E+00   8.70720758E+08   0.2992231       
  27               2.17389119E-02   2.07829548E-02   526.20424792     1.11971106E-06   2.86074261E+17   2.32236527E+07   0.00000000E+00   8.62986019E+08   0.29914398      
  28               2.51332183E-02   2.37293396E-02   536.95789733     1.25284774E-06   3.20089373E+17   2.32236532E+07   0.00000000E+00   8.55119414E+08   0.29910858      
  29               2.90575105E-02   2.70713767E-02   552.03340301     1.39026514E-06   3.55198256E+17   2.32236539E+07   0.00000000E+00   8.47111612E+08   0.29904596      
  30               3.35945403E-02   3.08586656E-02   564.31811156     1.55026404E-06   3.96076425E+17   2.32236546E+07   0.00000000E+00   8.38953742E+08   0.29898608      
  31               3.88399805E-02   3.51460823E-02   580.97677026     1.71502518E-06   4.38171366E+17   2.32236551E+07   0.00000000E+00   8.30638831E+08   0.29886822      
  32               4.49044419E-02   3.99922594E-02   595.10054070     1.90518797E-06   4.86756137E+17   2.32236551E+07   0.00000000E+00   8.22160798E+08   0.29875807      
  33               5.19158062E-02   4.54601089E-02   613.90629563     2.09932890E-06   5.36357336E+17   2.32236549E+07   0.00000000E+00   8.13514954E+08   0.29858482      
  34               6.00219227E-02   5.16150504E-02   630.62250967     2.32037881E-06   5.92833487E+17   2.32236546E+07   0.00000000E+00   8.04696261E+08   0.29843205      
  35               6.93937253E-02   5.85358178E-02   652.27588683     2.54414749E-06   6.50004264E+17   2.32236541E+07   0.00000000E+00   7.95688773E+08   0.29822084      
  36               8.02288381E-02   6.63064362E-02   672.07508736     2.79698291E-06   7.14601179E+17   2.32236531E+07   0.00000000E+00   7.86477078E+08   0.29800596      
  37               9.27557418E-02   7.50122015E-02   697.20962801     3.05014639E-06   7.79281517E+17   2.32236506E+07   0.00000000E+00   7.77051635E+08   0.29767101      
  38               1.07238592E-01   8.47207234E-02   722.90814095     3.32247223E-06   8.48852788E+17   2.31381322E+07   8.55178478E+04   7.67407513E+08   0.29728586      
  39               1.23982789E-01   9.55246871E-02   749.15985773     3.61490256E-06   9.23563933E+17   2.29893248E+07   2.34359346E+05   7.57549162E+08   0.29683209      
  40               1.43341420E-01   1.07523257E-01   775.90882045     3.92870272E-06   1.00373152E+18   2.27912266E+07   4.32491198E+05   7.47480845E+08   0.29637023      
  41               1.65722701E-01   1.20857878E-01   803.25556086     4.26558307E-06   1.08980065E+18   2.25587540E+07   6.65000586E+05   7.37180141E+08   0.2958451       
  42               1.91598587E-01   1.35675481E-01   831.17686474     4.62769458E-06   1.18231653E+18   2.23007331E+07   9.23059049E+05   7.26633687E+08   0.29529643      
  43               2.21514726E-01   1.52117472E-01   859.72216422     5.01622756E-06   1.28158323E+18   2.20225998E+07   1.20117482E+06   7.15842144E+08   0.29463867      
  44               2.56101960E-01   1.70318551E-01   888.78234561     5.43278695E-06   1.38800930E+18   2.17319376E+07   1.49172192E+06   7.04816665E+08   0.29392677      
  45               2.96089634E-01   1.90405811E-01   918.37433014     5.87785709E-06   1.50171079E+18   2.14402783E+07   1.78309895E+06   6.93575780E+08   0.29309556      
  46               3.42320969E-01   2.12521831E-01   948.36951162     6.35308178E-06   1.62312440E+18   2.11680128E+07   2.05492677E+06   6.82131049E+08   0.29224686      
  47               3.95770849E-01   2.36894661E-01   978.92664805     6.86046539E-06   1.75279434E+18   2.09271420E+07   2.29531015E+06   6.70456582E+08   0.29131105      
  48               4.57566375E-01   2.63750733E-01   1009.95744920    7.40332872E-06   1.89154396E+18   2.07166269E+07   2.50533612E+06   6.58539982E+08   0.2903874       
  49               5.29010634E-01   2.93302685E-01   1041.57363210    7.98269790E-06   2.03963240E+18   2.05302849E+07   2.69121864E+06   6.46383778E+08   0.28938435      
  50               6.11610175E-01   3.25752638E-01   1073.59647916    8.60118625E-06   2.19772173E+18   2.03642406E+07   2.85684669E+06   6.33999799E+08   0.28839254      
  51               7.07106781E-01   3.61294600E-01   1106.12842299    9.25884327E-06   2.36582032E+18   2.02168513E+07   3.00379568E+06   6.21405208E+08   0.28731598      
  52               8.17514195E-01   4.00123144E-01   1138.94515933    9.95824797E-06   2.54458346E+18   2.00998732E+07   3.12017076E+06   6.08617833E+08   0.28624856      
  53               9.45160584E-01   4.42561694E-01   1172.27680328    1.07011091E-05   2.73444687E+18   2.00267229E+07   3.19268532E+06   5.95617490E+08   0.28508098      
  54               1.09273764E+00   4.88993464E-01   1205.97536652    1.14932931E-05   2.93690878E+18   1.99934824E+07   3.22539566E+06   5.82377773E+08   0.28388383      
  55               1.26335732E+00   5.39787270E-01   1240.27223791    1.23362029E-05   3.15232841E+18   1.99760075E+07   3.24246534E+06   5.68888211E+08   0.28257889      
  56               1.46061751E+00   5.95301393E-01   1274.91803658    1.32351113E-05   3.38205350E+18   1.99510103E+07   3.26714858E+06   5.55149405E+08   0.28126792      
  57               1.68867783E+00   6.55885520E-01   1310.13387334    1.41900288E-05   3.62608689E+18   1.98968636E+07   3.32108328E+06   5.41169522E+08   0.27988422      
  58               1.95234742E+00   7.21884137E-01   1345.60894914    1.52061144E-05   3.88574656E+18   1.98008387E+07   3.41692284E+06   5.26961481E+08   0.2786548       
  59               2.25718628E+00   7.93636758E-01   1381.61856177    1.62818448E-05   4.16063343E+18   1.96573582E+07   3.56007454E+06   5.12541084E+08   0.2774806       
  60               2.60962258E+00   8.71641670E-01   1417.87471954    1.74250055E-05   4.45272593E+18   1.94665056E+07   3.75091858E+06   4.97896251E+08   0.27624462      
  61               3.01708817E+00   9.56496306E-01   1454.73007005    1.86372327E-05   4.76240933E+18   1.92025150E+07   4.01437378E+06   4.83006070E+08   0.27484796      
  62               3.48817529E+00   1.04865224E+00   1491.79022688    1.99261970E-05   5.09154482E+18   1.88196221E+07   4.39747366E+06   4.67883545E+08   0.27343792      
  63               4.03281780E+00   1.14833909E+00   1529.29458438    2.12917655E-05   5.43882192E+18   1.82515691E+07   4.96609204E+06   4.52578133E+08   0.27196371      
  64               4.66250061E+00   1.25517793E+00   1566.54309401    2.27196569E-05   5.80348396E+18   1.74341315E+07   5.78398464E+06   4.37216994E+08   0.27052029      
  65               5.39050188E+00   1.36809505E+00   1603.48359657    2.41951127E-05   6.17984509E+18   1.63212283E+07   6.89606635E+06   4.21987014E+08   0.26908534      
  66               6.23217301E+00   1.48450868E+00   1638.90567345    2.56902374E-05   6.56076712E+18   1.49126256E+07   8.30371045E+06   4.07221056E+08   0.26775479      
  67               7.20526240E+00   1.59848220E+00   1671.72106650    2.71300159E-05   6.92579812E+18   1.33104458E+07   9.90828146E+06   3.93568594E+08   0.26643595      
  68               8.33028963E+00   1.70239643E+00   1699.81740689    2.84360122E-05   7.25411219E+18   1.18657851E+07   1.13546565E+07   3.81737073E+08   0.26519409      
  69               9.63097823E+00   1.81187666E+00   1728.21226987    2.97669256E-05   7.59376906E+18   1.06490173E+07   1.25722093E+07   3.69837414E+08   0.26402776      
  70               1.11347559E+01   1.90976231E+00   1752.19840994    3.09543299E-05   7.89444997E+18   9.61643632E+06   1.36065466E+07   3.59639574E+08   0.2628739       
  71               1.28733329E+01   1.99114880E+00   1771.61473517    3.19195856E-05   8.14067227E+18   8.89557832E+06   1.43304920E+07   3.51451853E+08   0.26202683      
  72               1.48833708E+01   2.08093558E+00   1792.05898386    3.29780046E-05   8.41070063E+18   8.38139678E+06   1.48425656E+07   3.42700570E+08   0.2609772       
  73               1.72072553E+01   2.17974555E+00   1813.95748078    3.41250566E-05   8.70371247E+18   7.65322028E+06   1.55871106E+07   3.33386231E+08   0.2599978       
  74               1.98939903E+01   2.25501229E+00   1829.88781474    3.50270041E-05   8.92586445E+18   6.81997175E+06   1.64324475E+07   3.26501014E+08   0.25919868      
  75               2.30002312E+01   2.30942131E+00   1841.33524393    3.56487861E-05   9.08439779E+18   6.30841700E+06   1.69743602E+07   3.21631932E+08   0.25861965      
  76               2.65914795E+01   2.37045223E+00   1853.66997431    3.63469859E-05   9.26242344E+18   6.03373939E+06   1.72570010E+07   3.16270345E+08   0.25796946      
  77               3.07434641E+01   2.43871977E+00   1867.39682936    3.71183450E-05   9.45912841E+18   5.79326904E+06   1.74993458E+07   3.10392937E+08   0.25725159      
  78               3.55437382E+01   2.51483316E+00   1882.08256854    3.79775146E-05   9.67823905E+18   5.54578017E+06   1.77460640E+07   3.03982264E+08   0.25643         
  79               4.10935254E+01   2.59941639E+00   1898.20843703    3.89205233E-05   9.91876941E+18   5.30678621E+06   1.79846925E+07   2.97025107E+08   0.25554752      
  80               4.75098546E+01   2.69324656E+00   1915.34125963    3.99637168E-05   1.01848770E+19   5.04892043E+06   1.82357045E+07   2.89501599E+08   0.25457062      
  81               5.49280272E+01   2.79676728E+00   1933.90407813    4.11002292E-05   1.04748362E+19   4.75293769E+06   1.85188803E+07   2.81424184E+08   0.25349247      
  82               6.35044707E+01   2.91017108E+00   1953.32693658    4.23400810E-05   1.07911920E+19   4.44705679E+06   1.88153723E+07   2.72827521E+08   0.25231013      
  83               7.34200373E+01   3.03428158E+00   1974.09156227    4.36795485E-05   1.11330569E+19   4.19923481E+06   1.90519491E+07   2.63701239E+08   0.2509717       
  84               8.48838171E+01   3.17097012E+00   1995.86094737    4.51470964E-05   1.15076782E+19   3.98624669E+06   1.92531441E+07   2.53967528E+08   0.24952545      
  85               9.81375475E+01   3.32118075E+00   2019.10340711    4.67386404E-05   1.19140602E+19   3.77614819E+06   1.94503690E+07   2.43626872E+08   0.24790228      
  86               1.13460711E+02   3.48591972E+00   2043.27142346    4.84734037E-05   1.23571170E+19   3.56514436E+06   1.96496060E+07   2.32682093E+08   0.24621391      
  87               1.31176428E+02   3.66627006E+00   2068.85356064    5.03467351E-05   1.28357290E+19   3.35948138E+06   1.98429113E+07   2.21137461E+08   0.2442754       
  88               1.51658271E+02   3.86339857E+00   2095.24218606    5.23806495E-05   1.33555299E+19   3.15661321E+06   2.00347124E+07   2.08998571E+08   0.24231409      
  89               1.75338142E+02   4.07856207E+00   2122.97769773    5.45693453E-05   1.39151369E+19   2.96009489E+06   2.02272207E+07   1.96272054E+08   0.24011298      
  90               2.02715380E+02   4.31312459E+00   2151.38320157    5.69384691E-05   1.45211185E+19   2.76453417E+06   2.04154672E+07   1.82964990E+08   0.23769094      
  91               2.34367291E+02   4.56857291E+00   2181.01185985    5.94824689E-05   1.51721935E+19   2.57782321E+06   2.05990405E+07   1.69084439E+08   0.23519664      
  92               2.70961321E+02   4.84652500E+00   2211.20236277    6.22292174E-05   1.58755144E+19   2.39245961E+06   2.07818672E+07   1.54637380E+08   0.23230103      
  93               3.13269130E+02   5.14876167E+00   2242.43737083    6.51761980E-05   1.66306149E+19   2.21690345E+06   2.09597260E+07   1.39629933E+08   0.22941393      
  94               3.62182865E+02   5.47722557E+00   2274.14410583    6.83521657E-05   1.74449000E+19   2.04345471E+06   2.11355139E+07   1.24067823E+08   0.22605932      
  95               4.18733975E+02   5.83405925E+00   2306.68765711    7.17596440E-05   1.83192582E+19   1.87808668E+06   2.13072081E+07   1.07955756E+08   0.22294865      
  96               4.84114957E+02   6.22131256E+00   2339.65844680    7.54303828E-05   1.92599608E+19   1.71301914E+06   2.14779025E+07   9.13102748E+07   0.2192592       
  97               5.59704502E+02   6.64157612E+00   2373.19695770    7.93623641E-05   2.02704417E+19   1.56460834E+06   2.16401895E+07   7.41334317E+07   0.21600431      
  98               6.47096573E+02   7.09793480E+00   2407.23955496    8.35860379E-05   2.13569158E+19   1.42382913E+06   2.17906448E+07   5.64146278E+07   0.2119836       
  99               7.48134013E+02   7.59356776E+00   2441.55465657    8.81308644E-05   2.25270987E+19   1.29751856E+06   2.19319362E+07   3.81533270E+07   0.20871409      
  100              8.64947405E+02   8.13190112E+00   2476.54680926    9.30039853E-05   2.37832602E+19   1.17395845E+06   2.20644150E+07   1.93498074E+07   0.20441882      
  101              1.00000000E+03   8.71685471E+00   2511.39208353    9.82637753E-05   2.51403388E+19   1.10685701E+06   2.21083681E+07   0.00000000E+00   0.20113311      
