# ATMO pressure-temperature profile
# Effective temperature = 700.0K
# log(g) = 5.0cm/s^2
# M/H = 0.0
# Optical depth grid in band 17 (1.20-1.33microns)
# All parameters in cgs units
#
# Model Level      Optical Depth    Pressure         Temperature      Density          Number Density   Rad Flux         Conv Flux        Radial Extension Adiabatic Gradient
#                                   [Ba]             [K]              [g/cm^3]         [/cm^3]          [ergs/s/cm^2/sr] [ergs/s/cm^2/sr] [cm]             [K/Ba]          
  1                5.00000000E-07   1.00000000E-05   107.44304777     2.63754542E-09   6.74136001E+14   1.36131183E+07   0.00000000E+00   4.11789723E+06   0.34272511      
  2                6.19412983E-07   3.06758440E-05   128.18130018     6.78188006E-09   1.73339559E+15   1.36131183E+07   0.00000000E+00   4.06901081E+06   0.33027511      
  3                7.67344888E-07   5.50733510E-05   137.20749055     1.13747476E-08   2.90729781E+15   1.36131183E+07   0.00000000E+00   4.04123291E+06   0.33333099      
  4                9.50606773E-07   8.44613547E-05   148.19975211     1.61505877E-08   4.12796879E+15   1.36131183E+07   0.00000000E+00   4.01955062E+06   0.32775869      
  5                1.17763635E-06   1.20056968E-04   154.41422916     2.20326992E-08   5.63152339E+15   1.36131183E+07   0.00000000E+00   4.00068077E+06   0.33049496      
  6                1.45888650E-06   1.63335785E-04   163.68220613     2.82786216E-08   7.22779311E+15   1.36131183E+07   0.00000000E+00   3.98334224E+06   0.32494176      
  7                1.80730647E-06   2.16078675E-04   168.78565372     3.62720147E-08   9.27261476E+15   1.36131183E+07   0.00000000E+00   3.96687393E+06   0.32660811      
  8                2.23893819E-06   2.80468218E-04   177.48804964     4.47809804E-08   1.14456478E+16   1.36131183E+07   0.00000000E+00   3.95089739E+06   0.32276642      
  9                2.77365477E-06   3.59101342E-04   181.94041728     5.59012918E-08   1.42959718E+16   1.36131184E+07   0.00000000E+00   3.93518118E+06   0.32344174      
  10               3.43607555E-06   4.55201572E-04   189.89986654     6.79297918E-08   1.73622071E+16   1.36131184E+07   0.00000000E+00   3.91958625E+06   0.31970793      
  11               4.25669961E-06   5.72778293E-04   193.76611164     8.37702703E-08   2.14108824E+16   1.36131184E+07   0.00000000E+00   3.90399984E+06   0.32073113      
  12               5.27331001E-06   7.16760405E-04   201.24924573     1.00930154E-07   2.57967850E+16   1.36131184E+07   0.00000000E+00   3.88834123E+06   0.31689812      
  13               6.53271338E-06   8.93104406E-04   205.07336387     1.23416767E-07   3.15441491E+16   1.36131184E+07   0.00000000E+00   3.87254101E+06   0.31833541      
  14               8.09289496E-06   1.10914694E-03   212.45266195     1.47947660E-07   3.78140113E+16   1.36131184E+07   0.00000000E+00   3.85655286E+06   0.31472946      
  15               1.00256884E-05   1.37382605E-03   216.15357279     1.80115265E-07   4.60357444E+16   1.36131184E+07   0.00000000E+00   3.84033886E+06   0.31633973      
  16               1.24200832E-05   1.69816022E-03   223.32921516     2.15483645E-07   5.50755652E+16   1.36131185E+07   0.00000000E+00   3.82387581E+06   0.31302861      
  17               1.53863215E-05   2.09553691E-03   226.99150087     2.61617571E-07   6.68669568E+16   1.36131185E+07   0.00000000E+00   3.80713942E+06   0.31465264      
  18               1.90609746E-05   2.58230813E-03   234.27565459     3.12364803E-07   7.98374655E+16   1.36131186E+07   0.00000000E+00   3.79011155E+06   0.31154161      
  19               2.36132303E-05   3.17830807E-03   238.24620128     3.78051700E-07   9.66264102E+16   1.36131186E+07   0.00000000E+00   3.77276793E+06   0.31308138      
  20               2.92526829E-05   3.90785508E-03   245.92750968     4.50310972E-07   1.15095191E+17   1.36131186E+07   0.00000000E+00   3.75508634E+06   0.31014748      
  21               3.62389832E-05   4.80047930E-03   250.23510231     5.43647707E-07   1.38951171E+17   1.36131185E+07   0.00000000E+00   3.73704563E+06   0.31150789      
  22               4.48937934E-05   5.89228045E-03   258.21636837     6.46667197E-07   1.65281970E+17   1.36131184E+07   0.00000000E+00   3.71863179E+06   0.30875891      
  23               5.56155970E-05   7.22693124E-03   262.99349454     7.78735740E-07   1.99037430E+17   1.36131183E+07   0.00000000E+00   3.69982424E+06   0.30990524      
  24               6.88980457E-05   8.85780257E-03   271.44568893     9.24749783E-07   2.36357228E+17   1.36131182E+07   0.00000000E+00   3.68060605E+06   0.30737966      
  25               8.53526881E-05   1.08493030E-02   276.71074078     1.11110989E-06   2.83989093E+17   1.36131180E+07   0.00000000E+00   3.66095934E+06   0.30829051      
  26               1.05737126E-04   1.32799702E-02   285.59516955     1.31773303E-06   3.36799999E+17   1.36131177E+07   0.00000000E+00   3.64087150E+06   0.30604769      
  27               1.30989898E-04   1.62455367E-02   291.23610267     1.58077495E-06   4.04031005E+17   1.36131174E+07   0.00000000E+00   3.62032400E+06   0.30675765      
  28               1.62273687E-04   1.98632120E-02   300.36348050     1.87406021E-06   4.78991922E+17   1.36131168E+07   0.00000000E+00   3.59930545E+06   0.3048315       
  29               2.01028857E-04   2.42745067E-02   306.27005966     2.24608951E-06   5.74079064E+17   1.36131161E+07   0.00000000E+00   3.57780435E+06   0.30537749      
  30               2.49039768E-04   2.96514503E-02   315.81960920     2.66065179E-06   6.80037227E+17   1.36131150E+07   0.00000000E+00   3.55580915E+06   0.30372727      
  31               3.08516931E-04   3.62015198E-02   322.27726441     3.18330556E-06   8.13622546E+17   1.36131134E+07   0.00000000E+00   3.53330240E+06   0.30422854      
  32               3.82198786E-04   4.41752359E-02   332.52012116     3.76480203E-06   9.62247489E+17   1.36131113E+07   0.00000000E+00   3.51026940E+06   0.30288453      
  33               4.73477780E-04   5.38724098E-02   339.79017791     4.49300372E-06   1.14836890E+18   1.36131085E+07   0.00000000E+00   3.48669146E+06   0.30317489      
  34               5.86556569E-04   6.56571574E-02   350.89461088     5.30257218E-06   1.35528683E+18   1.36131050E+07   0.00000000E+00   3.46254750E+06   0.30210167      
  35               7.26641509E-04   7.99712921E-02   358.99303442     6.31290563E-06   1.61351843E+18   1.36131006E+07   0.00000000E+00   3.43780707E+06   0.302338        
  36               9.00182369E-04   9.73486650E-02   370.98692974     7.43622807E-06   1.90062847E+18   1.36130952E+07   0.00000000E+00   3.41244451E+06   0.30149968      
  37               1.11516929E-03   1.18424953E-01   380.19306893     8.82714654E-06   2.25613388E+18   1.36130888E+07   0.00000000E+00   3.38643048E+06   0.30163142      
  38               1.38150068E-03   1.43961608E-01   393.50920718     1.03674742E-05   2.64982767E+18   1.36130815E+07   0.00000000E+00   3.35973625E+06   0.30094777      
  39               1.71143891E-03   1.74854774E-01   404.16488952     1.22603638E-05   3.13360861E+18   1.36130732E+07   0.00000000E+00   3.33233469E+06   0.30102505      
  40               2.12017497E-03   2.12160610E-01   419.06811207     1.43471149E-05   3.66695837E+18   1.36130639E+07   0.00000000E+00   3.30420643E+06   0.30048754      
  41               2.62652780E-03   2.57126435E-01   431.48278882     1.68875917E-05   4.31627484E+18   1.36130533E+07   0.00000000E+00   3.27531850E+06   0.30051818      
  42               3.25381085E-03   3.11249608E-01   448.28915201     1.96759198E-05   5.02893963E+18   1.36130474E+07   0.00000000E+00   3.24562702E+06   0.30019916      
  43               4.03090537E-03   3.76254534E-01   462.94078735     2.30324788E-05   5.88683869E+18   1.36131394E+07   0.00000000E+00   3.21509128E+06   0.3002286       
  44               4.99359024E-03   4.54125914E-01   482.56526492     2.66689642E-05   6.81625872E+18   1.36138784E+07   0.00000000E+00   3.18367134E+06   0.2999234       
  45               6.18618926E-03   5.47147786E-01   500.48010642     3.09840967E-05   7.91851359E+18   1.36139090E+07   0.00000000E+00   3.15131033E+06   0.2998893       
  46               7.66361189E-03   6.58155460E-01   521.14933751     3.57921246E-05   9.14728347E+18   1.36139462E+07   0.00000000E+00   3.11797614E+06   0.2997131       
  47               9.49388141E-03   7.90392226E-01   541.66598434     4.13553886E-05   1.05690739E+19   1.36139896E+07   0.00000000E+00   3.08360512E+06   0.29970062      
  48               1.17612668E-02   9.47603751E-01   565.45043566     4.74955505E-05   1.21383056E+19   1.36140454E+07   0.00000000E+00   3.04813261E+06   0.29947051      
  49               1.45701627E-02   1.13419119E+00   589.51869857     5.45266673E-05   1.39352423E+19   1.36141176E+07   0.00000000E+00   3.01146763E+06   0.29939387      
  50               1.80498959E-02   1.35497857E+00   617.07828052     6.22317155E-05   1.59044262E+19   1.36142093E+07   0.00000000E+00   2.97356548E+06   0.29919602      
  51               2.23606798E-02   1.61516356E+00   645.14569851     7.09541072E-05   1.81336213E+19   1.36143156E+07   0.00000000E+00   2.93441045E+06   0.29912674      
  52               2.77009907E-02   1.92103858E+00   676.78486857     8.04457875E-05   2.05594403E+19   1.36144284E+07   0.00000000E+00   2.89392457E+06   0.29873519      
  53               3.43167066E-02   2.28010956E+00   708.87507532     9.11597108E-05   2.32976356E+19   1.36145279E+07   0.00000000E+00   2.85199434E+06   0.29854094      
  54               4.25124273E-02   2.70027381E+00   744.37715864     1.02808922E-04   2.62748718E+19   1.36145829E+07   0.00000000E+00   2.80859309E+06   0.29808094      
  55               5.26654988E-02   3.18974603E+00   780.20005444     1.15868580E-04   2.96125610E+19   1.36145672E+07   0.00000000E+00   2.76374645E+06   0.29778824      
  56               6.52433875E-02   3.75919500E+00   819.29767017     1.30038148E-04   3.32337213E+19   1.36144604E+07   0.00000000E+00   2.71735508E+06   0.29691597      
  57               8.08252026E-02   4.42208619E+00   858.62060587     1.45963985E-04   3.73036850E+19   1.36142645E+07   0.00000000E+00   2.66923963E+06   0.29644304      
  58               1.00128360E-01   5.19217524E+00   900.99876961     1.63321935E-04   4.17398596E+19   1.36140010E+07   0.00000000E+00   2.61936314E+06   0.2953261       
  59               1.24041612E-01   6.08239471E+00   943.15895638     1.82771778E-04   4.67106108E+19   1.36137595E+07   0.00000000E+00   2.56783786E+06   0.29459574      
  60               1.53665970E-01   7.10783135E+00   987.80552176     2.03932661E-04   5.21184516E+19   1.36136979E+07   0.00000000E+00   2.51472360E+06   0.29296075      
  61               1.90365394E-01   8.28805597E+00   1031.66442067    2.27689057E-04   5.81888885E+19   1.36140013E+07   0.00000000E+00   2.45995256E+06   0.29190947      
  62               2.35829593E-01   9.64748006E+00   1077.26709992    2.53819582E-04   6.48658827E+19   1.36141734E+07   0.00000000E+00   2.40340398E+06   0.28992191      
  63               2.92151824E-01   1.12120862E+01   1121.13098954    2.83441730E-04   7.24362422E+19   1.36137059E+07   0.00000000E+00   2.34507147E+06   0.28868856      
  64               3.61925265E-01   1.30109330E+01   1166.00212994    3.16258158E-04   8.08229943E+19   1.36132489E+07   0.00000000E+00   2.28498987E+06   0.28651319      
  65               4.48362417E-01   1.50776313E+01   1208.69309415    3.53548365E-04   9.03530708E+19   1.36128507E+07   0.00000000E+00   2.22318370E+06   0.2852383       
  66               5.55443005E-01   1.74576130E+01   1252.23900355    3.95120310E-04   1.00977235E+20   1.36125174E+07   0.00000000E+00   2.15950640E+06   0.28302432      
  67               6.88097217E-01   2.02024654E+01   1293.52688190    4.42653366E-04   1.13124000E+20   1.36122121E+07   0.00000000E+00   2.09387336E+06   0.28183744      
  68               8.52432700E-01   2.33621280E+01   1336.06203463    4.95599216E-04   1.26651872E+20   1.36119303E+07   0.00000000E+00   2.02641377E+06   0.2796877       
  69               1.05601576E+00   2.69835699E+01   1376.87602473    5.55482288E-04   1.41948369E+20   1.36116773E+07   0.00000000E+00   1.95739269E+06   0.27862418      
  70               1.30821975E+00   3.11198942E+01   1419.90616817    6.21261510E-04   1.58746554E+20   1.36114846E+07   0.00000000E+00   1.88698119E+06   0.27653404      
  71               1.62065660E+00   3.58654455E+01   1462.21440843    6.95321900E-04   1.77660553E+20   1.36113574E+07   0.00000000E+00   1.81477766E+06   0.27545152      
  72               2.00771148E+00   4.13247621E+01   1507.96947079    7.76870489E-04   1.98492295E+20   1.36113095E+07   0.00000000E+00   1.74049735E+06   0.27326046      
  73               2.48720511E+00   4.75853752E+01   1554.16724714    8.67957151E-04   2.21769382E+20   1.36113809E+07   0.00000000E+00   1.66425500E+06   0.2721096       
  74               3.08121427E+00   5.46995506E+01   1604.85571019    9.66181723E-04   2.46873007E+20   1.36115067E+07   0.00000000E+00   1.58656765E+06   0.269856        
  75               3.81708825E+00   6.26610081E+01   1656.73150278    1.07212274E-03   2.73949863E+20   1.36116164E+07   0.00000000E+00   1.50834254E+06   0.26855446      
  76               4.72870805E+00   7.14369869E+01   1713.71451656    1.18214663E-03   3.01932938E+20   1.36112577E+07   0.00000000E+00   1.43038025E+06   0.26617399      
  77               5.85804632E+00   8.10163110E+01   1772.91568098    1.29585639E-03   3.30986456E+20   1.27920746E+07   8.03636681E+05   1.35298282E+06   0.2646595       
  78               7.25709989E+00   9.12968772E+01   1828.66192069    1.41581246E-03   3.61616585E+20   1.15849572E+07   2.00446871E+06   1.27708290E+06   0.26230654      
  79               8.99028379E+00   1.02121225E+02   1883.91524079    1.53760108E-03   3.92627302E+20   1.02324322E+07   3.35427728E+06   1.20371782E+06   0.26096744      
  80               1.11373970E+01   1.13166246E+02   1934.06719519    1.66064333E-03   4.23809991E+20   8.71229104E+06   4.87314666E+06   1.13459454E+06   0.25878861      
  81               1.37972966E+01   1.23917755E+02   1980.63384693    1.77728194E-03   4.53163768E+20   7.25896201E+06   6.32452164E+06   1.07200854E+06   0.25771824      
  82               1.70924493E+01   1.33965666E+02   2020.02308321    1.88385595E-03   4.80355772E+20   6.32524589E+06   7.25921580E+06   1.01709561E+06   0.2558609       
  83               2.11745701E+01   1.45362873E+02   2063.19615922    2.00123887E-03   5.10315568E+20   5.51290597E+06   8.07238853E+06   9.58397237E+05   0.25483068      
  84               2.62316072E+01   1.55228278E+02   2097.29620781    2.10288622E-03   5.36089013E+20   4.39556978E+06   9.19019832E+06   9.10304619E+05   0.25318854      
  85               3.24963962E+01   1.63115891E+02   2124.27539975    2.18161205E-03   5.56174782E+20   3.79645962E+06   9.79117877E+06   8.73479063E+05   0.25248611      
  86               4.02573794E+01   1.72359960E+02   2153.47199782    2.27392172E-03   5.79726289E+20   3.58837035E+06   1.00008712E+07   8.31975345E+05   0.2512675       
  87               4.98718870E+01   1.83131584E+02   2186.96241261    2.37893980E-03   6.06523694E+20   3.38554650E+06   1.02052841E+07   7.85662424E+05   0.25020127      
  88               6.17825886E+01   1.95604202E+02   2222.72523259    2.49988043E-03   6.37409073E+20   2.92193113E+06   1.06714094E+07   7.34516993E+05   0.24858484      
  89               7.65378750E+01   2.05326425E+02   2250.04626714    2.59448208E-03   6.60966177E+20   2.31829942E+06   1.12789228E+07   6.96337194E+05   0.24775501      
  90               9.48171070E+01   2.12645816E+02   2269.20654591    2.66421134E-03   6.78748143E+20   2.01845116E+06   1.15811626E+07   6.68497438E+05   0.24680768      
  91               1.17461894E+02   2.21393555E+02   2292.27676509    2.74580079E-03   6.99558053E+20   1.93839739E+06   1.16617846E+07   6.36154672E+05   0.24589555      
  92               1.45514845E+02   2.31800266E+02   2317.84604779    2.84303718E-03   7.24361205E+20   1.83472026E+06   1.17660987E+07   5.98907957E+05   0.24458064      
  93               1.80267568E+02   2.44122871E+02   2347.72886877    2.95621233E-03   7.53158475E+20   1.73391840E+06   1.18675871E+07   5.56401195E+05   0.24337467      
  94               2.23320145E+02   2.58650207E+02   2380.50438787    3.08883069E-03   7.86990850E+20   1.61952709E+06   1.19827371E+07   5.08325942E+05   0.2415996       
  95               2.76654794E+02   2.75706840E+02   2417.76382147    3.24155193E-03   8.25960932E+20   1.51193042E+06   1.20911139E+07   4.54422017E+05   0.24007925      
  96               3.42727143E+02   2.95656179E+02   2458.16718746    3.41868039E-03   8.71166932E+20   1.39367558E+06   1.22102179E+07   3.94494885E+05   0.23769027      
  97               4.24579284E+02   3.18910537E+02   2502.88564400    3.62131416E-03   9.22897991E+20   1.28019041E+06   1.23245417E+07   3.28403791E+05   0.23576255      
  98               5.25979842E+02   3.45944718E+02   2550.90988897    3.85386954E-03   9.82284806E+20   1.15973373E+06   1.24458578E+07   2.56038095E+05   0.23260803      
  99               6.51597486E+02   3.77324431E+02   2602.74815105    4.11911991E-03   1.05004671E+21   1.04730916E+06   1.25590803E+07   1.77279198E+05   0.23030818      
  100              8.07215886E+02   4.13719527E+02   2658.21402117    4.42141582E-03   1.12730625E+21   9.31747471E+05   1.26754196E+07   9.19963584E+04   0.2262932       
  101              1.00000000E+03   4.55954312E+02   2716.65779026    4.76696431E-03   1.21566029E+21   8.72595241E+05   1.27347350E+07   0.00000000E+00   0.22373334      
