# ATMO pressure-temperature profile
# Effective temperature = 1200.0K
# log(g) = 5.0cm/s^2
# M/H = 0.0
# Optical depth grid in band 17 (1.20-1.33microns)
# All parameters in cgs units
#
# Model Level      Optical Depth    Pressure         Temperature      Density          Number Density   Rad Flux         Conv Flux        Radial Extension Adiabatic Gradient
#                                   [Ba]             [K]              [g/cm^3]         [/cm^3]          [ergs/s/cm^2/sr] [ergs/s/cm^2/sr] [cm]             [K/Ba]          
  1                1.00000000E-07   1.00000000E-05   325.37861668     8.70796483E-10   2.22605982E+14   1.17570814E+08   0.00000000E+00   6.01349328E+06   0.29986264      
  2                1.25892541E-07   1.64738665E-05   353.03235209     1.32216682E-09   3.37992355E+14   1.17570814E+08   0.00000000E+00   5.95315926E+06   0.29862497      
  3                1.58489319E-07   2.43150364E-05   366.64157324     1.87905010E-09   4.80351395E+14   1.17570814E+08   0.00000000E+00   5.90341207E+06   0.29831125      
  4                1.99526231E-07   3.40380289E-05   369.87484558     2.60744297E-09   6.66554163E+14   1.17570814E+08   0.00000000E+00   5.85948590E+06   0.29818226      
  5                2.51188643E-07   4.61368836E-05   379.90513839     3.44094699E-09   8.79627763E+14   1.17570814E+08   0.00000000E+00   5.81909367E+06   0.29802223      
  6                3.16227766E-07   6.11968032E-05   382.78004836     4.52992702E-09   1.15799126E+15   1.17570814E+08   0.00000000E+00   5.78094854E+06   0.29793404      
  7                3.98107171E-07   7.99555306E-05   392.21255610     5.77615370E-09   1.47656597E+15   1.17570814E+08   0.00000000E+00   5.74427622E+06   0.29781731      
  8                5.01187234E-07   1.03318943E-04   395.16876546     7.40813906E-09   1.89375234E+15   1.17570814E+08   0.00000000E+00   5.70856026E+06   0.29775113      
  9                6.30957344E-07   1.32428972E-04   404.27828762     9.28141825E-09   2.37262132E+15   1.17570814E+08   0.00000000E+00   5.67345430E+06   0.2976653       
  10               7.94328235E-07   1.68689646E-04   407.47033743     1.17301680E-08   2.99859813E+15   1.17570814E+08   0.00000000E+00   5.63870256E+06   0.29979992      
  11               1.00000000E-06   2.13862007E-04   416.56475870     1.45466089E-08   3.71857848E+15   1.17570814E+08   0.00000000E+00   5.60412137E+06   0.299735        
  12               1.25892541E-06   2.70113896E-04   420.16031443     1.82167754E-08   4.65647994E+15   1.17570814E+08   0.00000000E+00   5.56956524E+06   0.29969215      
  13               1.58489319E-06   3.40168101E-04   429.47318549     2.24438699E-08   5.73698047E+15   1.17570814E+08   0.00000000E+00   5.53491950E+06   0.29963372      
  14               1.99526231E-06   4.27372834E-04   433.65819820     2.79254036E-08   7.13814213E+15   1.17570814E+08   0.00000000E+00   5.50008646E+06   0.29959449      
  15               2.51188643E-06   5.35909085E-04   443.38907992     3.42490601E-08   8.75451249E+15   1.17570814E+08   0.00000000E+00   5.46499098E+06   0.29954027      
  16               3.16227766E-06   6.70921607E-04   448.15772864     4.24212502E-08   1.08434312E+16   1.17570814E+08   0.00000000E+00   5.42957021E+06   0.29950586      
  17               3.98107171E-06   8.38963214E-04   457.63678639     5.19474865E-08   1.32784637E+16   1.17570814E+08   0.00000000E+00   5.39377352E+06   0.29945725      
  18               5.01187234E-06   1.04805733E-03   462.72880326     6.41802043E-08   1.64053063E+16   1.17570814E+08   0.00000000E+00   5.35756098E+06   0.29942503      
  19               6.30957344E-06   1.30820234E-03   472.43203126     7.84653926E-08   2.00567899E+16   1.17570814E+08   0.00000000E+00   5.32090238E+06   0.29937834      
  20               7.94328235E-06   1.63179230E-03   477.69094667     9.67966838E-08   2.47425073E+16   1.17570814E+08   0.00000000E+00   5.28377232E+06   0.29934729      
  21               1.00000000E-05   2.03427439E-03   487.49414915     1.18244980E-07   3.02249759E+16   1.17570814E+08   0.00000000E+00   5.24615178E+06   0.29930338      
  22               1.25892541E-05   2.53480896E-03   492.76383962     1.45763586E-07   3.72590899E+16   1.17570814E+08   0.00000000E+00   5.20802605E+06   0.29927295      
  23               1.58489319E-05   3.15724941E-03   502.56275412     1.78016893E-07   4.55034611E+16   1.17570814E+08   0.00000000E+00   5.16938555E+06   0.29922861      
  24               1.99526231E-05   3.93114682E-03   507.86143674     2.19339429E-07   5.60660379E+16   1.17570814E+08   0.00000000E+00   5.13022089E+06   0.29919873      
  25               2.51188643E-05   4.89331051E-03   517.76789313     2.67799850E-07   6.84531596E+16   1.17570814E+08   0.00000000E+00   5.09052135E+06   0.2991546       
  26               3.16227766E-05   6.08957033E-03   523.08632872     3.29880023E-07   8.43216548E+16   1.17570814E+08   0.00000000E+00   5.05027353E+06   0.29912371      
  27               3.98107171E-05   7.57680339E-03   533.24732165     4.02624373E-07   1.02916065E+17   1.17570814E+08   0.00000000E+00   5.00946500E+06   0.2990772       
  28               5.01187234E-05   9.42550200E-03   538.73742980     4.95758465E-07   1.26722339E+17   1.17570814E+08   0.00000000E+00   4.96808590E+06   0.2990454       
  29               6.30957344E-05   1.17230058E-02   549.17071053     6.04887218E-07   1.54617075E+17   1.17570814E+08   0.00000000E+00   4.92613088E+06   0.29899608      
  30               7.94328235E-05   1.45772689E-02   554.94122307     7.44341187E-07   1.90263296E+17   1.17570814E+08   0.00000000E+00   4.88359349E+06   0.29897363      
  31               1.00000000E-04   1.81215335E-02   565.96941417     9.07287343E-07   2.31914458E+17   1.17570814E+08   0.00000000E+00   4.84046466E+06   0.29894675      
  32               1.25892541E-04   2.25196964E-02   572.23952495     1.11513547E-06   2.85043091E+17   1.17570814E+08   0.00000000E+00   4.79673913E+06   0.29886695      
  33               1.58489319E-04   2.79728341E-02   584.06339927     1.35712368E-06   3.46898416E+17   1.17570814E+08   0.00000000E+00   4.75241167E+06   0.2987779       
  34               1.99526231E-04   3.47272118E-02   591.28183251     1.66424941E-06   4.25403658E+17   1.17570814E+08   0.00000000E+00   4.70746821E+06   0.29874605      
  35               2.51188643E-04   4.30831585E-02   604.26307549     2.02034014E-06   5.16425070E+17   1.17570814E+08   0.00000000E+00   4.66189872E+06   0.29868223      
  36               3.16227766E-04   5.34044490E-02   612.66295391     2.47001112E-06   6.31366679E+17   1.17570814E+08   0.00000000E+00   4.61569549E+06   0.29860974      
  37               3.98107171E-04   6.61336612E-02   627.26577281     2.98754216E-06   7.63654324E+17   1.17570814E+08   0.00000000E+00   4.56883627E+06   0.29849394      
  38               5.01187234E-04   8.18110183E-02   637.34355767     3.63731844E-06   9.29745399E+17   1.17570814E+08   0.00000000E+00   4.52127810E+06   0.29839686      
  39               6.30957344E-04   1.01089644E-01   653.90265199     4.38063109E-06   1.11974571E+18   1.17570814E+08   0.00000000E+00   4.47298144E+06   0.29825885      
  40               7.94328235E-04   1.24755131E-01   666.08838802     5.30725192E-06   1.35660181E+18   1.17570814E+08   0.00000000E+00   4.42390057E+06   0.29813319      
  41               1.00000000E-03   1.53752550E-01   685.09968659     6.35933641E-06   1.62552779E+18   1.17570814E+08   0.00000000E+00   4.37398700E+06   0.29793411      
  42               1.25892541E-03   1.89188430E-01   699.90332672     7.65948808E-06   1.95786325E+18   1.17570814E+08   0.00000000E+00   4.32321346E+06   0.29771273      
  43               1.58489319E-03   2.32364570E-01   721.76612527     9.12257308E-06   2.33184271E+18   1.17570814E+08   0.00000000E+00   4.27156167E+06   0.29743778      
  44               1.99526231E-03   2.84810632E-01   739.78871872     1.09091850E-05   2.78852365E+18   1.17570814E+08   0.00000000E+00   4.21898924E+06   0.29720709      
  45               2.51188643E-03   3.48288274E-01   765.11467719     1.28990959E-05   3.29714585E+18   1.17570814E+08   0.00000000E+00   4.16547793E+06   0.29685594      
  46               3.16227766E-03   4.24869125E-01   787.00833144     1.52975785E-05   3.91022440E+18   1.17570814E+08   0.00000000E+00   4.11096127E+06   0.29644774      
  47               3.98107171E-03   5.17085196E-01   816.62814454     1.79426516E-05   4.58631205E+18   1.17570814E+08   0.00000000E+00   4.05530012E+06   0.29588867      
  48               5.01187234E-03   6.27804649E-01   843.36381164     2.10939730E-05   5.39182024E+18   1.17570814E+08   0.00000000E+00   3.99838843E+06   0.29531014      
  49               6.30957344E-03   7.60164047E-01   878.00235957     2.45335573E-05   6.27100984E+18   1.17570814E+08   0.00000000E+00   3.94020553E+06   0.29456462      
  50               7.94328235E-03   9.17431850E-01   910.07288108     2.85658420E-05   7.30169149E+18   1.17570814E+08   0.00000000E+00   3.88079873E+06   0.29375646      
  51               1.00000000E-02   1.10337244E+00   949.99139178     3.29120267E-05   8.41256244E+18   1.17570814E+08   0.00000000E+00   3.82015669E+06   0.29273172      
  52               1.25892541E-02   1.32250330E+00   987.41941482     3.79541490E-05   9.70109914E+18   1.17570814E+08   0.00000000E+00   3.75815580E+06   0.2916395       
  53               1.58489319E-02   1.57986753E+00   1032.26764397    4.33700588E-05   1.10854722E+19   1.17570814E+08   0.00000000E+00   3.69472157E+06   0.29032925      
  54               1.99526231E-02   1.88085678E+00   1074.08574085    4.96220763E-05   1.26836023E+19   1.17570814E+08   0.00000000E+00   3.62984041E+06   0.28894764      
  55               2.51188643E-02   2.23215361E+00   1122.53771893    5.63474994E-05   1.44028678E+19   1.17570814E+08   0.00000000E+00   3.56340500E+06   0.28732286      
  56               3.16227766E-02   2.64132050E+00   1167.19268901    6.41242881E-05   1.63909597E+19   1.17570814E+08   0.00000000E+00   3.49533559E+06   0.2856795       
  57               3.98107171E-02   3.11785414E+00   1217.84085472    7.25434435E-05   1.85434738E+19   1.17570814E+08   0.00000000E+00   3.42546676E+06   0.28389933      
  58               5.01187234E-02   3.67205108E+00   1264.22901598    8.23012462E-05   2.10382107E+19   1.17570814E+08   0.00000000E+00   3.35374318E+06   0.282202        
  59               6.30957344E-02   4.31689485E+00   1316.50093527    9.29101246E-05   2.37506849E+19   1.17570814E+08   0.00000000E+00   3.28000031E+06   0.28039287      
  60               7.94328235E-02   5.06708948E+00   1364.41637015    1.05224771E-04   2.68990840E+19   1.17570814E+08   0.00000000E+00   3.20412795E+06   0.2786477       
  61               1.00000000E-01   5.94039077E+00   1418.34405241    1.18667876E-04   3.03360661E+19   1.17570814E+08   0.00000000E+00   3.12597617E+06   0.27675609      
  62               1.25892541E-01   6.96356990E+00   1468.01571465    1.34398104E-04   3.43579366E+19   1.17570814E+08   0.00000000E+00   3.04495671E+06   0.27486075      
  63               1.58489319E-01   8.17464336E+00   1523.97049206    1.51974715E-04   3.88524219E+19   1.17570814E+08   0.00000000E+00   2.96021617E+06   0.27284625      
  64               1.99526231E-01   9.61110595E+00   1575.56140278    1.72829476E-04   4.41838821E+19   1.17570814E+08   0.00000000E+00   2.87158131E+06   0.27095677      
  65               2.51188643E-01   1.12813760E+01   1633.14473237    1.95788194E-04   5.00337713E+19   1.17570814E+08   0.00000000E+00   2.78077370E+06   0.26902032      
  66               3.16227766E-01   1.31513442E+01   1686.11482864    2.21075680E-04   5.64948469E+19   1.17570814E+08   0.00000000E+00   2.69089164E+06   0.26715623      
  67               3.98107171E-01   1.51456910E+01   1745.23638931    2.46026018E-04   6.28580166E+19   1.17570844E+08   0.00000000E+00   2.60537484E+06   0.26509729      
  68               5.01187234E-01   1.70923570E+01   1802.46726457    2.68988832E-04   6.86847638E+19   1.13081322E+08   4.48948572E+06   2.52969935E+06   0.26315653      
  69               6.30957344E-01   1.88475800E+01   1848.61106895    2.89520506E-04   7.38475150E+19   1.05530567E+08   1.20402423E+07   2.46679829E+06   0.26124091      
  70               7.94328235E-01   2.03370950E+01   1886.20112925    3.06168135E-04   7.80956341E+19   9.79614371E+07   1.96093719E+07   2.41676883E+06   0.25986699      
  71               1.00000000E+00   2.20547845E+01   1925.66678866    3.25211029E-04   8.29559455E+19   8.98772384E+07   2.76935884E+07   2.36233331E+06   0.25848465      
  72               1.25892541E+00   2.35407410E+01   1958.89100787    3.41329980E-04   8.70433697E+19   8.11302383E+07   3.64405702E+07   2.31773143E+06   0.25773983      
  73               1.58489319E+00   2.47566542E+01   1983.88852089    3.54428858E-04   9.03858664E+19   7.36164143E+07   4.43022084E+07   2.28277306E+06   0.25649575      
  74               1.99526231E+00   2.61823970E+01   2013.06600190    3.69396213E-04   9.42057105E+19   6.68690874E+07   5.07017297E+07   2.24336993E+06   0.25545772      
  75               2.51188643E+00   2.78574828E+01   2044.60728216    3.86943770E-04   9.86865137E+19   5.89375121E+07   5.86334139E+07   2.19906347E+06   0.25431829      
  76               3.16227766E+00   2.91755242E+01   2069.25380722    4.00763344E-04   1.02124688E+20   5.08981591E+07   6.66727338E+07   2.16558930E+06   0.2539567       
  77               3.98107171E+00   3.01855832E+01   2086.71235187    4.11160261E-04   1.04776244E+20   4.51787393E+07   7.23920696E+07   2.14070662E+06   0.25289185      
  78               5.01187234E+00   3.14012836E+01   2108.08732256    4.23371566E-04   1.07890857E+20   4.13622986E+07   7.62085105E+07   2.11156858E+06   0.25221081      
  79               6.30957344E+00   3.28548128E+01   2131.78874936    4.38029547E-04   1.11629935E+20   3.82355721E+07   7.93352369E+07   2.07781565E+06   0.25088534      
  80               7.94328235E+00   3.45861774E+01   2159.80700480    4.55111021E-04   1.15988107E+20   3.56380396E+07   8.19327694E+07   2.03903827E+06   0.24990922      
  81               1.00000000E+01   3.66352769E+01   2190.61193103    4.75270462E-04   1.21132274E+20   3.31350819E+07   8.44357271E+07   1.99497930E+06   0.24820454      
  82               1.25892541E+01   3.90455226E+01   2225.80977012    4.98494330E-04   1.27060054E+20   3.07899622E+07   8.67808469E+07   1.94546149E+06   0.24687625      
  83               1.58489319E+01   4.18638289E+01   2263.96575409    5.25423569E-04   1.33935263E+20   2.83503158E+07   8.92204933E+07   1.89039289E+06   0.24469115      
  84               1.99526231E+01   4.51418053E+01   2306.24805306    5.56116301E-04   1.41774703E+20   2.59743681E+07   9.15964407E+07   1.82975149E+06   0.24291674      
  85               2.51188643E+01   4.89350569E+01   2351.44916658    5.91239557E-04   1.50733694E+20   2.34976130E+07   9.40731958E+07   1.76359662E+06   0.24026305      
  86               3.16227766E+01   5.33072298E+01   2400.24354059    6.30866846E-04   1.60863178E+20   2.11794656E+07   9.63913431E+07   1.69200727E+06   0.23804859      
  87               3.98107171E+01   5.83300262E+01   2451.84282656    6.75644353E-04   1.72315913E+20   1.88978403E+07   9.86729683E+07   1.61507303E+06   0.23494804      
  88               5.01187234E+01   6.40841139E+01   2506.35926186    7.25967849E-04   1.85196553E+20   1.68148143E+07   1.00755994E+08   1.53291289E+06   0.23231343      
  89               6.30957344E+01   7.06620002E+01   2563.55969798    7.82386569E-04   1.99649548E+20   1.48609669E+07   1.02709842E+08   1.44563184E+06   0.22877248      
  90               7.94328235E+01   7.81752393E+01   2622.95734792    8.45667676E-04   2.15875736E+20   1.31095530E+07   1.04461257E+08   1.35326414E+06   0.22569145      
  91               1.00000000E+02   8.67535351E+01   2685.05592570    9.16361704E-04   2.34023615E+20   1.14880627E+07   1.06082747E+08   1.25581639E+06   0.22183816      
  92               1.25892541E+02   9.65500745E+01   2748.72053700    9.95715474E-04   2.54418018E+20   1.00210326E+07   1.07549777E+08   1.15325682E+06   0.21836127      
  93               1.58489319E+02   1.07743034E+02   2815.15317220    1.08427645E-03   2.77212629E+20   8.68923034E+06   1.08881579E+08   1.04553276E+06   0.2144273       
  94               1.99526231E+02   1.20540929E+02   2882.68993008    1.18384081E-03   3.02874314E+20   7.49668527E+06   1.10074126E+08   9.32571959E+05   0.21083717      
  95               2.51188643E+02   1.35183838E+02   2953.09481346    1.29496689E-03   3.31568468E+20   6.47083131E+06   1.11099982E+08   8.14306443E+05   0.2071993       
  96               3.16227766E+02   1.51943907E+02   3024.34919534    1.41996749E-03   3.63895926E+20   5.57085535E+06   1.11999961E+08   6.90707614E+05   0.20359782      
  97               3.98107171E+02   1.71112723E+02   3098.25746131    1.55938625E-03   4.00028227E+20   4.79478506E+06   1.12776039E+08   5.61886464E+05   0.20042975      
  98               5.01187234E+02   1.92980653E+02   3172.80197633    1.71547055E-03   4.40551459E+20   4.08813667E+06   1.13482705E+08   4.28181567E+05   0.19700046      
  99               6.30957344E+02   2.17878990E+02   3249.29881414    1.88891873E-03   4.85681477E+20   3.48773783E+06   1.14083148E+08   2.89862939E+05   0.19474451      
  100              7.94328235E+02   2.46183690E+02   3326.87578595    2.08184799E-03   5.35979934E+20   2.95006799E+06   1.14620935E+08   1.47126093E+05   0.19178576      
  101              1.00000000E+03   2.78351693E+02   3405.58539630    2.29634395E-03   5.92008487E+20   2.70315775E+06   1.14867971E+08   0.00000000E+00   0.19040329      
