# ATMO pressure-temperature profile
# Effective temperature = 800.0K
# log(g) = 3.0cm/s^2
# M/H = 0.0
# Optical depth grid in band 17 (1.20-1.33microns)
# All parameters in cgs units
#
# Model Level      Optical Depth    Pressure         Temperature      Density          Number Density   Rad Flux         Conv Flux        Radial Extension Adiabatic Gradient
#                                   [Ba]             [K]              [g/cm^3]         [/cm^3]          [ergs/s/cm^2/sr] [ergs/s/cm^2/sr] [cm]             [K/Ba]          
  1                1.00000000E-04   1.00000000E-05   210.80345144     1.34438525E-09   3.43596018E+14   2.32237225E+07   0.00000000E+00   3.83191170E+08   0.31148285      
  2                1.17489755E-04   1.04070480E-04   254.44822871     1.15912315E-08   2.96247004E+15   2.32237225E+07   0.00000000E+00   3.59361025E+08   0.30522557      
  3                1.38038426E-04   2.05196082E-04   272.68725979     2.13258159E-08   5.45042110E+15   2.32237225E+07   0.00000000E+00   3.52929062E+08   0.30457207      
  4                1.62181010E-04   3.18856632E-04   288.53819135     3.13179665E-08   8.00420104E+15   2.32237225E+07   0.00000000E+00   3.48531012E+08   0.30338068      
  5                1.90546072E-04   4.48344576E-04   297.39933518     4.27241370E-08   1.09193746E+16   2.32237225E+07   0.00000000E+00   3.44991072E+08   0.30286275      
  6                2.23872114E-04   5.96931581E-04   308.24584507     5.48818369E-08   1.40266243E+16   2.32237225E+07   0.00000000E+00   3.41922546E+08   0.30228214      
  7                2.63026799E-04   7.67999666E-04   314.73236254     6.91545734E-08   1.76744321E+16   2.32237225E+07   0.00000000E+00   3.39145748E+08   0.30199927      
  8                3.09029543E-04   9.65377533E-04   324.24040655     8.43783891E-08   2.15653192E+16   2.32237225E+07   0.00000000E+00   3.36561868E+08   0.3016073       
  9                3.63078055E-04   1.19335921E-03   330.06834519     1.02463330E-07   2.61874464E+16   2.32237225E+07   0.00000000E+00   3.34109983E+08   0.30141014      
  10               4.26579519E-04   1.45691332E-03   339.24493677     1.21708618E-07   3.11061440E+16   2.32237225E+07   0.00000000E+00   3.31749913E+08   0.30111578      
  11               5.01187234E-04   1.76169555E-03   345.06272129     1.44688381E-07   3.69792972E+16   2.32237225E+07   0.00000000E+00   3.29453171E+08   0.30096538      
  12               5.88843655E-04   2.11437201E-03   354.12793635     1.69208436E-07   4.32461104E+16   2.32237225E+07   0.00000000E+00   3.27199198E+08   0.30073912      
  13               6.91830971E-04   2.52263962E-03   359.82773535     1.98683217E-07   5.07792657E+16   2.32237225E+07   0.00000000E+00   3.24972541E+08   0.30062515      
  14               8.12830516E-04   2.99548074E-03   368.79800314     2.30185628E-07   5.88306722E+16   2.32237225E+07   0.00000000E+00   3.22761507E+08   0.30045196      
  15               9.54992586E-04   3.54322695E-03   374.52263008     2.68115848E-07   6.85246374E+16   2.32237225E+07   0.00000000E+00   3.20556655E+08   0.3003613       
  16               1.12201845E-03   4.17790070E-03   383.56488817     3.08688519E-07   7.88942057E+16   2.32237225E+07   0.00000000E+00   3.18350535E+08   0.30022362      
  17               1.31825674E-03   4.91330687E-03   389.42375685     3.57562838E-07   9.13854989E+16   2.32237225E+07   0.00000000E+00   3.16136978E+08   0.30015152      
  18               1.54881662E-03   5.76538406E-03   398.75633124     4.09752119E-07   1.04724065E+17   2.32237225E+07   0.00000000E+00   3.13910891E+08   0.30003704      
  19               1.81970086E-03   6.75243599E-03   404.98123165     4.72526102E-07   1.20767873E+17   2.32237225E+07   0.00000000E+00   3.11667698E+08   0.29997522      
  20               2.13796209E-03   7.89562621E-03   414.80085775     5.39443806E-07   1.37870952E+17   2.32237225E+07   0.00000000E+00   3.09403406E+08   0.29987872      
  21               2.51188643E-03   9.21918225E-03   421.54301132     6.19812519E-07   1.58407721E+17   2.32237225E+07   0.00000000E+00   3.07114429E+08   0.29982266      
  22               2.95120923E-03   1.07512068E-02   432.07031235     7.05199645E-07   1.80230641E+17   2.32237225E+07   0.00000000E+00   3.04797143E+08   0.2997809       
  23               3.46736850E-03   1.25234365E-02   439.81751505     8.06974507E-07   2.06241870E+17   2.32237225E+07   0.00000000E+00   3.02447867E+08   0.29976987      
  24               4.07380278E-03   1.45713913E-02   451.92376225     9.13791825E-07   2.33540219E+17   2.32237225E+07   0.00000000E+00   3.00062981E+08   0.29966454      
  25               4.78630092E-03   1.69353652E-02   460.86625116     1.04143153E-06   2.66161662E+17   2.32237225E+07   0.00000000E+00   2.97639701E+08   0.29954605      
  26               5.62341325E-03   1.96669284E-02   472.48468129     1.17966394E-06   3.01491202E+17   2.32237225E+07   0.00000000E+00   2.95175269E+08   0.29943851      
  27               6.60693448E-03   2.28218162E-02   481.92950557     1.34215176E-06   3.42998742E+17   2.32237225E+07   0.00000000E+00   2.92667963E+08   0.29940754      
  28               7.76247117E-03   2.64632675E-02   494.37628267     1.51712133E-06   3.87714175E+17   2.32237225E+07   0.00000000E+00   2.90116063E+08   0.29938132      
  29               9.12010839E-03   3.06626407E-02   504.85260180     1.72138934E-06   4.39917051E+17   2.32237225E+07   0.00000000E+00   2.87517491E+08   0.29935961      
  30               1.07151931E-02   3.55014173E-02   518.37199370     1.94105529E-06   4.96055195E+17   2.32237225E+07   0.00000000E+00   2.84870350E+08   0.29928741      
  31               1.25892541E-02   4.10733288E-02   530.09078927     2.19605439E-06   5.61223029E+17   2.32237225E+07   0.00000000E+00   2.82171594E+08   0.29922474      
  32               1.47910839E-02   4.74840774E-02   545.10835757     2.46887017E-06   6.30944273E+17   2.32237225E+07   0.00000000E+00   2.79418392E+08   0.29912674      
  33               1.73780083E-02   5.48511310E-02   558.64941551     2.78278117E-06   7.11167789E+17   2.32237225E+07   0.00000000E+00   2.76607752E+08   0.29904093      
  34               2.04173794E-02   6.33064905E-02   575.70596836     3.11659246E-06   7.96477197E+17   2.32237225E+07   0.00000000E+00   2.73736624E+08   0.29890352      
  35               2.39883292E-02   7.29932856E-02   591.51548172     3.49743038E-06   8.93804705E+17   2.32237225E+07   0.00000000E+00   2.70802587E+08   0.29878161      
  36               2.81838293E-02   8.40661496E-02   611.13536287     3.89866363E-06   9.96344623E+17   2.32237225E+07   0.00000000E+00   2.67803925E+08   0.29860592      
  37               3.31131121E-02   9.66866549E-02   630.00086044     4.34967912E-06   1.11160690E+18   2.32237225E+07   0.00000000E+00   2.64739209E+08   0.29844614      
  38               3.89045145E-02   1.11046476E-01   653.02896564     4.81952210E-06   1.23168081E+18   2.32237225E+07   0.00000000E+00   2.61602903E+08   0.29821111      
  39               4.57088190E-02   1.27359613E-01   675.57086918     5.34308843E-06   1.36548413E+18   2.32237225E+07   0.00000000E+00   2.58388211E+08   0.29794399      
  40               5.37031796E-02   1.45845615E-01   702.50944675     5.88400206E-06   1.50372024E+18   2.32237225E+07   0.00000000E+00   2.55091276E+08   0.29754625      
  41               6.30957344E-02   1.66692609E-01   731.00313567     6.46295967E-06   1.65166872E+18   2.31409640E+07   8.27598972E+04   2.51710689E+08   0.29711856      
  42               7.41310241E-02   1.90126498E-01   760.09136421     7.08943692E-06   1.81176844E+18   2.29826934E+07   2.41029093E+05   2.48248723E+08   0.29665807      
  43               8.70963590E-02   2.16429606E-01   789.88074341     7.76590596E-06   1.98463654E+18   2.27749919E+07   4.48730673E+05   2.44703811E+08   0.29614794      
  44               1.02329299E-01   2.45983495E-01   820.34297093     8.49859885E-06   2.17188260E+18   2.25441466E+07   6.79575911E+05   2.41065959E+08   0.29551567      
  45               1.20226443E-01   2.79162480E-01   851.58850997     9.29103215E-06   2.37439568E+18   2.23103875E+07   9.13356495E+05   2.37332104E+08   0.29479541      
  46               1.41253754E-01   3.16323406E-01   883.47978290     1.01477961E-05   2.59334653E+18   2.20884160E+07   1.13532429E+06   2.33505012E+08   0.29397155      
  47               1.65958691E-01   3.57800660E-01   916.04611724     1.10703911E-05   2.82910873E+18   2.18923215E+07   1.33143453E+06   2.29591713E+08   0.29310041      
  48               1.94984460E-01   4.03937668E-01   949.11968862     1.20626093E-05   3.08261446E+18   2.17384300E+07   1.48531222E+06   2.25599181E+08   0.29214383      
  49               2.29086765E-01   4.55280707E-01   982.85334376     1.31290285E-05   3.35518419E+18   2.16400599E+07   1.58367464E+06   2.21519326E+08   0.29113198      
  50               2.69153480E-01   5.12413362E-01   1017.18177328    1.42776160E-05   3.64878032E+18   2.15976344E+07   1.62610094E+06   2.17346403E+08   0.29007883      
  51               3.16227766E-01   5.75886100E-01   1052.19229829    1.55118653E-05   3.96430735E+18   2.16064459E+07   1.61727661E+06   2.13081319E+08   0.28897189      
  52               3.71535229E-01   6.46227791E-01   1087.72327464    1.68375059E-05   4.30321504E+18   2.16616004E+07   1.56212221E+06   2.08728786E+08   0.28783461      
  53               4.36515832E-01   7.23955106E-01   1123.82853527    1.82561584E-05   4.66592141E+18   2.17594323E+07   1.46429024E+06   2.04295454E+08   0.28660895      
  54               5.12861384E-01   8.09691664E-01   1160.34829240    1.97750799E-05   5.05425490E+18   2.19036746E+07   1.32004950E+06   1.99783108E+08   0.28534068      
  55               6.02559586E-01   9.04371532E-01   1197.49859412    2.14017306E-05   5.47013079E+18   2.20963042E+07   1.12741877E+06   1.95180815E+08   0.28397853      
  56               7.07945784E-01   1.00897954E+00   1235.17054751    2.31486103E-05   5.91672345E+18   2.23272397E+07   8.96482927E+05   1.90481028E+08   0.28261543      
  57               8.31763771E-01   1.12446383E+00   1273.53436259    2.50206117E-05   6.39529618E+18   2.25715565E+07   6.52166082E+05   1.85682461E+08   0.28119904      
  58               9.77237221E-01   1.25174420E+00   1312.37202526    2.70282033E-05   6.90851116E+18   2.28001378E+07   4.23585305E+05   1.80788010E+08   0.27981361      
  59               1.14815362E+00   1.39173008E+00   1351.83718354    2.91732949E-05   7.45686816E+18   2.29919952E+07   2.31759653E+05   1.75802804E+08   0.27843286      
  60               1.34896288E+00   1.54536282E+00   1391.67524842    3.14662949E-05   8.04300605E+18   2.31450838E+07   7.86453844E+04   1.70732097E+08   0.27712391      
  61               1.58489319E+00   1.71406096E+00   1432.17543198    3.39143345E-05   8.66873810E+18   2.32237223E+07   0.00000000E+00   1.65567975E+08   0.27566304      
  62               1.86208714E+00   1.89946396E+00   1472.89974953    3.65439026E-05   9.34079215E+18   2.32237223E+07   0.00000000E+00   1.60301512E+08   0.27421476      
  63               2.18776162E+00   2.10280734E+00   1514.57759478    3.93444044E-05   1.00561976E+19   2.30480925E+07   1.75692050E+05   1.54938786E+08   0.27268006      
  64               2.57039578E+00   2.32425974E+00   1556.23324379    4.23369451E-05   1.08177219E+19   2.25484103E+07   6.75312321E+05   1.49512453E+08   0.27115952      
  65               3.01995172E+00   2.56137520E+00   1597.80219695    4.54433094E-05   1.16111711E+19   2.15927706E+07   1.63095273E+06   1.44106571E+08   0.26959809      
  66               3.54813389E+00   2.80948404E+00   1637.85065112    4.86320133E-05   1.24244768E+19   2.01229374E+07   3.10079382E+06   1.38828796E+08   0.26818245      
  67               4.16869383E+00   3.05911013E+00   1675.73860690    5.17676601E-05   1.32225335E+19   1.81716910E+07   5.05290204E+06   1.33853634E+08   0.26670093      
  68               4.89778819E+00   3.29600554E+00   1709.12426655    5.47123574E-05   1.39681899E+19   1.60006643E+07   7.22354809E+06   1.29402198E+08   0.26542191      
  69               5.75439937E+00   3.50632197E+00   1737.54040045    5.72918371E-05   1.46164775E+19   1.41197564E+07   9.10490245E+06   1.25645520E+08   0.26417292      
  70               6.76082975E+00   3.72999994E+00   1765.89901453    5.99696075E-05   1.52992028E+19   1.24791382E+07   1.07457550E+07   1.21829492E+08   0.26302704      
  71               7.94328235E+00   3.92082739E+00   1789.36581937    6.22309456E-05   1.58710049E+19   1.09876715E+07   1.22382129E+07   1.18705632E+08   0.26193627      
  72               9.33254301E+00   4.07090737E+00   1806.82178364    6.39890510E-05   1.63193081E+19   1.00264355E+07   1.31998014E+07   1.16327331E+08   0.26124984      
  73               1.09647820E+01   4.23956639E+00   1826.28003638    6.59298060E-05   1.68143432E+19   9.45264513E+06   1.37713948E+07   1.13730666E+08   0.26034099      
  74               1.28824955E+01   4.42857583E+00   1846.87375576    6.81005175E-05   1.73681162E+19   8.91430214E+06   1.43096337E+07   1.10909897E+08   0.25957105      
  75               1.51356125E+01   4.63953532E+00   1869.52326170    7.04761880E-05   1.79750229E+19   8.03908002E+06   1.51907582E+07   1.07864788E+08   0.25846743      
  76               1.77827941E+01   4.79718568E+00   1885.43810141    7.23194438E-05   1.84289287E+19   7.01833146E+06   1.62053954E+07   1.05656282E+08   0.25771533      
  77               2.08929613E+01   4.91029496E+00   1897.05325547    7.35705080E-05   1.87479548E+19   6.40478048E+06   1.68194800E+07   1.04105613E+08   0.25726493      
  78               2.45470892E+01   5.03936722E+00   1909.48092383    7.50119786E-05   1.91155378E+19   6.10498937E+06   1.71196973E+07   1.02368150E+08   0.25665661      
  79               2.88403150E+01   5.18612968E+00   1923.85253993    7.66186513E-05   1.95252872E+19   5.85899412E+06   1.73657583E+07   1.00432251E+08   0.25606529      
  80               3.38844156E+01   5.35239556E+00   1939.17700474    7.84486555E-05   1.99920159E+19   5.59287482E+06   1.76318658E+07   9.82876667E+07   0.25529755      
  81               3.98107171E+01   5.53992661E+00   1956.54182310    8.04748076E-05   2.05088220E+19   5.32679030E+06   1.78981133E+07   9.59274569E+07   0.25453248      
  82               4.67735141E+01   5.75050228E+00   1974.91521957    8.27543345E-05   2.10903197E+19   5.04028300E+06   1.81846273E+07   9.33470809E+07   0.25355158      
  83               5.49540874E+01   5.98628920E+00   1995.36564932    8.52618619E-05   2.17300658E+19   4.76677967E+06   1.84583383E+07   9.05400503E+07   0.2525578       
  84               6.45654229E+01   6.24920940E+00   2016.83838421    8.80555836E-05   2.24429436E+19   4.50071541E+06   1.87244140E+07   8.75056817E+07   0.2513275       
  85               7.58577575E+01   6.54304383E+00   2040.46779953    9.11239054E-05   2.32260803E+19   4.27128987E+06   1.89528528E+07   8.42254209E+07   0.25010567      
  86               8.91250938E+01   6.87047309E+00   2065.21991200    9.45320043E-05   2.40960679E+19   4.02934695E+06   1.92022289E+07   8.06975536E+07   0.24865933      
  87               1.04712855E+02   7.23416918E+00   2092.05917820    9.82522024E-05   2.50461245E+19   3.79344641E+06   1.94726805E+07   7.69237564E+07   0.24691162      
  88               1.23026877E+02   7.63671771E+00   2119.84932871    1.02350804E-04   2.60932144E+19   3.54571544E+06   1.97198966E+07   7.29095274E+07   0.24451128      
  89               1.44543977E+02   8.08133973E+00   2149.48368217    1.06805769E-04   2.72317186E+19   3.31514366E+06   1.99599760E+07   6.86569842E+07   0.24246165      
  90               1.69824365E+02   8.57138790E+00   2180.03557840    1.11680628E-04   2.84782572E+19   3.07536041E+06   2.01999737E+07   6.41700106E+07   0.23950481      
  91               1.99526231E+02   9.11067088E+00   2212.10092098    1.16969847E-04   2.98312369E+19   2.85297945E+06   2.04362485E+07   5.94516415E+07   0.23702122      
  92               2.34422882E+02   9.70316113E+00   2245.07329423    1.22724729E-04   3.13046288E+19   2.62273767E+06   2.06686246E+07   5.45064888E+07   0.23323129      
  93               2.75422870E+02   1.03534670E+01   2279.07184493    1.28970764E-04   3.29043736E+19   2.40987462E+06   2.08160003E+07   4.93374777E+07   0.23036141      
  94               3.23593657E+02   1.10674097E+01   2314.15352900    1.35759381E-04   3.46401415E+19   2.20707287E+06   2.10168004E+07   4.39417859E+07   0.22775385      
  95               3.80189396E+02   1.18507222E+01   2350.27286322    1.43097125E-04   3.65218167E+19   2.01543403E+06   2.12214358E+07   3.83217822E+07   0.22475297      
  96               4.46683592E+02   1.27095402E+01   2387.24302593    1.51046416E-04   3.85619552E+19   1.83465065E+06   2.14005998E+07   3.24801722E+07   0.22134101      
  97               5.24807460E+02   1.36508190E+01   2425.00212859    1.59653657E-04   4.07729771E+19   1.66729043E+06   2.15718802E+07   2.64187299E+07   0.21821137      
  98               6.16595002E+02   1.46820431E+01   2463.59570450    1.68959673E-04   4.31661082E+19   1.50709857E+06   2.17296751E+07   2.01399572E+07   0.21448764      
  99               7.24435960E+02   1.58118701E+01   2502.66137292    1.79045779E-04   4.57622097E+19   1.36169317E+06   2.18808311E+07   1.36440294E+07   0.2112953       
  100              8.51138038E+02   1.70497344E+01   2542.66682320    1.89931847E-04   4.85684228E+19   1.22500004E+06   2.20140177E+07   6.93135769E+06   0.20727062      
  101              1.00000000E+03   1.84065876E+01   2582.73737459    2.01761251E-04   5.16201039E+19   1.15324484E+06   2.20725683E+07   0.00000000E+00   0.20419443      
