# ATMO pressure-temperature profile
# Effective temperature = 1800.0K
# log(g) = 3.5cm/s^2
# M/H = 0.0
# Optical depth grid in band 17 (1.20-1.33microns)
# All parameters in cgs units
#
# Model Level      Optical Depth    Pressure         Temperature      Density          Number Density   Rad Flux         Conv Flux        Radial Extension Adiabatic Gradient
#                                   [Ba]             [K]              [g/cm^3]         [/cm^3]          [ergs/s/cm^2/sr] [ergs/s/cm^2/sr] [cm]             [K/Ba]          
  1                3.00000000E-06   1.00000000E-05   438.21500021     6.46978187E-10   1.65286963E+14   5.95203342E+08   0.00000000E+00   2.32539868E+08   0.29800785      
  2                3.65048058E-06   1.62056882E-05   503.58156918     9.12377083E-10   2.33089919E+14   5.95203342E+08   0.00000000E+00   2.29985647E+08   0.29788512      
  3                4.44200282E-06   2.32204821E-05   534.56881024     1.23152651E-09   3.14625165E+14   5.95203342E+08   0.00000000E+00   2.27892952E+08   0.29763422      
  4                5.40514834E-06   3.14495528E-05   554.80735886     1.60711648E-09   4.10580293E+14   5.95203342E+08   0.00000000E+00   2.26043236E+08   0.29750832      
  5                6.57712968E-06   4.11901758E-05   574.26561904     2.03354271E-09   5.19525261E+14   5.95203342E+08   0.00000000E+00   2.24339365E+08   0.29719749      
  6                8.00322805E-06   5.27631114E-05   589.10939585     2.53923954E-09   6.48724482E+14   5.95203342E+08   0.00000000E+00   2.22728849E+08   0.29708106      
  7                9.73854285E-06   6.65435648E-05   605.21046565     3.11719816E-09   7.96389403E+14   5.95203342E+08   0.00000000E+00   2.21179925E+08   0.29671975      
  8                1.18501205E-05   8.29700685E-05   618.11425913     3.80551402E-09   9.72251285E+14   5.95203342E+08   0.00000000E+00   2.19671734E+08   0.29660247      
  9                1.44195449E-05   1.02567068E-04   632.99861085     4.59362621E-09   1.17362952E+15   5.95203342E+08   0.00000000E+00   2.18189540E+08   0.2966884       
  10               1.75460896E-05   1.25970450E-04   645.21741763     5.53489596E-09   1.41412707E+15   5.95203342E+08   0.00000000E+00   2.16721809E+08   0.29660916      
  11               2.13505531E-05   1.53938715E-04   659.69407673     6.61517762E-09   1.69017282E+15   5.95203342E+08   0.00000000E+00   2.15260170E+08   0.29630507      
  12               2.59799264E-05   1.87371245E-04   671.69641067     7.90789423E-09   2.02048558E+15   5.95203342E+08   0.00000000E+00   2.13798437E+08   0.29622528      
  13               3.16130723E-05   2.27341394E-04   685.99808297     9.39457891E-09   2.40038805E+15   5.95203342E+08   0.00000000E+00   2.12331989E+08   0.29589704      
  14               3.84676354E-05   2.75124000E-04   697.86497885     1.11756974E-08   2.85550492E+15   5.95203342E+08   0.00000000E+00   2.10857323E+08   0.29581345      
  15               4.68084520E-05   3.32237115E-04   712.09099046     1.32258327E-08   3.37939140E+15   5.95203342E+08   0.00000000E+00   2.09371773E+08   0.29545743      
  16               5.69577817E-05   4.00479368E-04   723.94929634     1.56812016E-08   4.00680158E+15   5.95203342E+08   0.00000000E+00   2.07873289E+08   0.29536834      
  17               6.93077586E-05   4.81985650E-04   738.25434087     1.85067688E-08   4.72883258E+15   5.95203342E+08   0.00000000E+00   2.06360298E+08   0.2949818       
  18               8.43355422E-05   5.79280260E-04   750.24133681     2.18870817E-08   5.59259770E+15   5.95203342E+08   0.00000000E+00   2.04831573E+08   0.29488476      
  19               1.02621753E-04   6.95366196E-04   764.73586396     2.57750905E-08   6.58609447E+15   5.95203342E+08   0.00000000E+00   2.03286013E+08   0.29446374      
  20               1.24872905E-04   8.33916845E-04   776.84238043     3.04288886E-08   7.77527352E+15   5.95203342E+08   0.00000000E+00   2.01721549E+08   0.29435929      
  21               1.51948705E-04   9.99318395E-04   791.53610068     3.57875695E-08   9.14447957E+15   5.95203342E+08   0.00000000E+00   2.00136543E+08   0.29390296      
  22               1.84895266E-04   1.19677976E-03   803.86022346     4.22018305E-08   1.07834949E+16   5.95203342E+08   0.00000000E+00   1.98529785E+08   0.2937887       
  23               2.24985526E-04   1.43245954E-03   818.92731862     4.95839888E-08   1.26695983E+16   5.95203342E+08   0.00000000E+00   1.96900540E+08   0.2932925       
  24               2.73768430E-04   1.71363262E-03   831.70305142     5.84053904E-08   1.49236572E+16   5.95203342E+08   0.00000000E+00   1.95248287E+08   0.29316707      
  25               3.33128779E-04   2.04891671E-03   847.33378752     6.85443232E-08   1.75144143E+16   5.95203342E+08   0.00000000E+00   1.93572569E+08   0.29262982      
  26               4.05360046E-04   2.44839161E-03   860.72007649     8.06343165E-08   2.06036797E+16   5.95203342E+08   0.00000000E+00   1.91873372E+08   0.29248987      
  27               4.93252992E-04   2.92388529E-03   877.06755607     9.44989194E-08   2.41464408E+16   5.95203342E+08   0.00000000E+00   1.90150824E+08   0.29190534      
  28               6.00203489E-04   3.48919339E-03   891.23860625     1.10976235E-07   2.83567785E+16   5.95203342E+08   0.00000000E+00   1.88405175E+08   0.29174581      
  29               7.30343727E-04   4.16040535E-03   908.47765364     1.29813309E-07   3.31701348E+16   5.95203342E+08   0.00000000E+00   1.86636756E+08   0.2911082       
  30               8.88701864E-04   4.95615903E-03   923.57945072     1.52113679E-07   3.88684133E+16   5.95203341E+08   0.00000000E+00   1.84846006E+08   0.29092061      
  31               1.08139630E-03   5.89889542E-03   941.82707199     1.77539890E-07   4.53654650E+16   5.95203341E+08   0.00000000E+00   1.83031919E+08   0.29021926      
  32               1.31587206E-03   7.01546780E-03   958.07697184     2.07564085E-07   5.30373814E+16   5.95203341E+08   0.00000000E+00   1.81192576E+08   0.28999277      
  33               1.60118847E-03   8.33711980E-03   977.68448511     2.41720004E-07   6.17651013E+16   5.95203341E+08   0.00000000E+00   1.79326691E+08   0.28935886      
  34               1.94836913E-03   9.89987795E-03   995.41177275     2.81917447E-07   7.20365504E+16   5.95203340E+08   0.00000000E+00   1.77433587E+08   0.28901804      
  35               2.37082789E-03   1.17450631E-02   1016.76572294    3.27437765E-07   8.36681751E+16   5.95203340E+08   0.00000000E+00   1.75513086E+08   0.28785252      
  36               2.88488706E-03   1.39193410E-02   1036.56472729    3.80641545E-07   9.72630953E+16   5.95203340E+08   0.00000000E+00   1.73565518E+08   0.28739185      
  37               3.51040806E-03   1.64752258E-02   1060.29023025    4.40453483E-07   1.12546620E+17   5.95203339E+08   0.00000000E+00   1.71591581E+08   0.2862167       
  38               4.27155881E-03   1.94709255E-02   1082.61655502    5.09806059E-07   1.30268007E+17   5.95203339E+08   0.00000000E+00   1.69592430E+08   0.28579229      
  39               5.19774750E-03   2.29705558E-02   1109.10481583    5.87072193E-07   1.50011568E+17   5.95203339E+08   0.00000000E+00   1.67569532E+08   0.2846617       
  40               6.32475876E-03   2.70434589E-02   1134.47017465    6.75711631E-07   1.72661295E+17   5.95203338E+08   0.00000000E+00   1.65524605E+08   0.28424402      
  41               7.69613634E-03   3.17752633E-02   1164.19511805    7.73669029E-07   1.97692058E+17   5.95203338E+08   0.00000000E+00   1.63455091E+08   0.28319325      
  42               9.36486541E-03   3.72644190E-02   1192.94883138    8.85449989E-07   2.26255100E+17   5.95203338E+08   0.00000000E+00   1.61357861E+08   0.28259738      
  43               1.13954198E-02   4.36174719E-02   1226.45287029    1.00809349E-06   2.57593835E+17   5.95203338E+08   0.00000000E+00   1.59231436E+08   0.28117155      
  44               1.38662528E-02   5.09453610E-02   1259.46781959    1.14659093E-06   2.92983666E+17   5.95203339E+08   0.00000000E+00   1.57076054E+08   0.28013672      
  45               1.68728289E-02   5.93620085E-02   1297.75904936    1.29659999E-06   3.31314437E+17   5.95203339E+08   0.00000000E+00   1.54893162E+08   0.27834276      
  46               2.05313114E-02   6.89778932E-02   1335.96721013    1.46354946E-06   3.73972757E+17   5.95203340E+08   0.00000000E+00   1.52685751E+08   0.27726988      
  47               2.49830512E-02   7.98942402E-02   1379.88130140    1.64127471E-06   4.19372145E+17   5.95203342E+08   0.00000000E+00   1.50458412E+08   0.27505836      
  48               3.04000477E-02   9.22085445E-02   1424.68177163    1.83478140E-06   4.68790863E+17   5.95203355E+08   0.00000000E+00   1.48214361E+08   0.27254198      
  49               3.69915946E-02   1.05939611E-01   1479.33422291    2.03080843E-06   5.18701984E+17   5.94641263E+08   5.75538249E+05   1.45964757E+08   0.2700247       
  50               4.50123658E-02   1.20857855E-01   1532.67189560    2.23638872E-06   5.71151772E+17   5.92632929E+08   2.57162407E+06   1.43751062E+08   0.26779779      
  51               5.47722558E-02   1.36521277E-01   1583.31600755    2.44704454E-06   6.24537584E+17   5.89546621E+08   5.66035157E+06   1.41633505E+08   0.26600497      
  52               6.66483519E-02   1.51603076E-01   1627.94778639    2.64432525E-06   6.74517749E+17   5.85913532E+08   9.31113006E+06   1.39758538E+08   0.26440898      
  53               8.10995048E-02   1.64746342E-01   1664.00840912    2.81414793E-06   7.17110536E+17   5.82329118E+08   1.29986443E+07   1.38234632E+08   0.26297319      
  54               9.86840557E-02   1.75055982E-01   1690.73422674    2.94289246E-06   7.49941610E+17   5.79217771E+08   1.61214492E+07   1.37101753E+08   0.26156555      
  55               1.20081410E-01   1.86704137E-01   1719.39400164    3.08626779E-06   7.86510227E+17   5.75422432E+08   1.97919689E+07   1.35879521E+08   0.26005067      
  56               1.46118284E-01   1.99883814E-01   1750.09812120    3.24598943E-06   8.27258176E+17   5.70689216E+08   2.45266964E+07   1.34562735E+08   0.25836856      
  57               1.77800653E-01   2.14692815E-01   1782.61730117    3.42263917E-06   8.72338888E+17   5.64800150E+08   3.04196292E+07   1.33157748E+08   0.25644807      
  58               2.16352610E-01   2.31158669E-01   1816.61538818    3.61584810E-06   9.21664874E+17   5.57619140E+08   3.76037732E+07   1.31677618E+08   0.2543318       
  59               2.63263667E-01   2.49196880E-01   1851.53226869    3.82406948E-06   9.74848560E+17   5.49353453E+08   4.58592821E+07   1.30143613E+08   0.25193286      
  60               3.20346302E-01   2.69079741E-01   1887.53840269    4.04984400E-06   1.03254989E+18   5.40317478E+08   5.48825214E+07   1.28545901E+08   0.24916291      
  61               3.89805984E-01   2.91421655E-01   1925.23112395    4.29946001E-06   1.09638929E+18   5.30079681E+08   6.51175081E+07   1.26852747E+08   0.24599614      
  62               4.74326391E-01   3.16477167E-01   1964.46299336    4.57482833E-06   1.16687509E+18   5.18112118E+08   7.70802419E+07   1.25066212E+08   0.24245664      
  63               5.77173093E-01   3.44531620E-01   2005.05890766    4.87814471E-06   1.24459425E+18   5.04048045E+08   9.11378505E+07   1.23188235E+08   0.23840172      
  64               7.02319722E-01   3.75907274E-01   2046.81456962    5.21197117E-06   1.33023408E+18   4.87609182E+08   1.07569308E+08   1.21220492E+08   0.23378208      
  65               8.54601502E-01   4.10972794E-01   2089.53138534    5.57926230E-06   1.42459040E+18   4.68658567E+08   1.26511111E+08   1.19164150E+08   0.22870379      
  66               1.03990206E+00   4.50147905E-01   2133.03880540    5.98332657E-06   1.52855939E+18   4.47194042E+08   1.47966253E+08   1.17019996E+08   0.22328641      
  67               1.26538076E+00   4.93905361E-01   2177.17437127    6.42785794E-06   1.64314680E+18   4.23271752E+08   1.71878670E+08   1.14788717E+08   0.21754725      
  68               1.53974930E+00   5.42775455E-01   2221.76135314    6.91702884E-06   1.76949211E+18   3.97007394E+08   1.98132093E+08   1.12471017E+08   0.21154962      
  69               1.87360830E+00   5.97349622E-01   2266.64744246    7.45538974E-06   1.90884409E+18   3.68556273E+08   2.26572146E+08   1.10067761E+08   0.20527793      
  70               2.27985690E+00   6.58281367E-01   2311.62814145    8.04810688E-06   2.06262097E+18   3.38119769E+08   2.56998412E+08   1.07580220E+08   0.19861712      
  71               2.77419111E+00   7.26265400E-01   2356.45911670    8.70131041E-06   2.23234485E+18   3.06192838E+08   2.88915751E+08   1.05011073E+08   0.19195479      
  72               3.37571026E+00   8.02131480E-01   2401.12015683    9.41982973E-06   2.41967761E+18   2.73553235E+08   3.21546189E+08   1.02361087E+08   0.1856258       
  73               4.10765492E+00   8.86846758E-01   2445.58523099    1.02112512E-05   2.62658597E+18   2.40862792E+08   3.54228392E+08   9.96295256E+07   0.17939059      
  74               4.99830483E+00   9.81438621E-01   2489.71918534    1.10833542E-05   2.85521369E+18   2.08803613E+08   3.86280441E+08   9.68176942E+07   0.17346482      
  75               6.08207157E+00   1.08701027E+00   2533.56776496    1.20433862E-05   3.10761325E+18   1.78218957E+08   4.16858136E+08   9.39280241E+07   0.16798704      
  76               7.40082804E+00   1.20481005E+00   2577.07914123    1.31000808E-05   3.38623166E+18   1.50142907E+08   4.44928392E+08   9.09622081E+07   0.16273852      
  77               9.00552635E+00   1.33619775E+00   2620.21104645    1.42627548E-05   3.69368880E+18   1.25362179E+08   4.69704913E+08   8.79225333E+07   0.15784179      
  78               1.09581663E+01   1.48264448E+00   2662.97806897    1.55409319E-05   4.03269407E+18   1.04299253E+08   4.90765088E+08   8.48118876E+07   0.15342628      
  79               1.33341911E+01   1.64573086E+00   2705.41495016    1.69444097E-05   4.40606366E+18   8.68447779E+07   5.08217575E+08   8.16337185E+07   0.14928117      
  80               1.62254019E+01   1.82716746E+00   2747.43158767    1.84845488E-05   4.81700729E+18   7.26510792E+07   5.22411477E+08   7.83916804E+07   0.14545586      
  81               1.97435049E+01   2.02881300E+00   2789.11022052    2.01721916E-05   5.26868436E+18   6.12135077E+07   5.33851126E+08   7.50893664E+07   0.14208972      
  82               2.40244270E+01   2.25266766E+00   2830.45865930    2.20193111E-05   5.76455978E+18   5.19031325E+07   5.43164966E+08   7.17304575E+07   0.13914263      
  83               2.92335681E+01   2.50088582E+00   2871.55680977    2.40378044E-05   6.30815405E+18   4.41952762E+07   5.50877379E+08   6.83185708E+07   0.13648576      
  84               3.55721908E+01   2.77580180E+00   2912.35550335    2.62416753E-05   6.90350915E+18   3.77403232E+07   5.57339373E+08   6.48570508E+07   0.13410313      
  85               4.32851972E+01   3.07995131E+00   2952.94748582    2.86443489E-05   7.55464336E+18   3.23136013E+07   5.62776431E+08   6.13488723E+07   0.13200565      
  86               5.26705906E+01   3.41609110E+00   2993.30826449    3.12616003E-05   8.26616060E+18   2.77202842E+07   5.67384297E+08   5.77966152E+07   0.13011963      
  87               6.40909893E+01   3.78723300E+00   3033.50614863    3.41092569E-05   9.04280122E+18   2.38255108E+07   5.71299015E+08   5.42023712E+07   0.12843018      
  88               7.79876373E+01   4.19652627E+00   3073.51017190    3.72045989E-05   9.88965475E+18   2.05065590E+07   5.74645477E+08   5.05690049E+07   0.12694414      
  89               9.48974517E+01   4.64737749E+00   3113.39681088    4.05643545E-05   1.08118326E+19   1.76735524E+07   5.77514766E+08   4.68989594E+07   0.12568278      
  90               1.15473768E+02   5.14353119E+00   3153.16681754    4.42080876E-05   1.18151780E+19   1.52451937E+07   5.79989361E+08   4.31938448E+07   0.12462041      
  91               1.40511583E+02   5.68911039E+00   3192.90309774    4.81556099E-05   1.29057861E+19   1.31581850E+07   5.82133473E+08   3.94545315E+07   0.12371343      
  92               1.70978268E+02   6.28866576E+00   3232.59576721    5.24305478E-05   1.40907125E+19   1.13567664E+07   5.84004136E+08   3.56812274E+07   0.12292833      
  93               2.08050949E+02   6.94722989E+00   3272.32278021    5.70568896E-05   1.53773456E+19   9.80274939E+06   5.85640341E+08   3.18735528E+07   0.12225013      
  94               2.53161982E+02   7.67038298E+00   3312.07682760    6.20631548E-05   1.67742259E+19   8.46490591E+06   5.87073570E+08   2.80305819E+07   0.12166551      
  95               3.08054300E+02   8.46432033E+00   3351.93989110    6.74784005E-05   1.82903370E+19   7.31458377E+06   5.88332306E+08   2.41509134E+07   0.12117519      
  96               3.74848746E+02   9.33588477E+00   3391.91205780    7.33366672E-05   1.99359409E+19   6.32063733E+06   5.89447759E+08   2.02329166E+07   0.12077516      
  97               4.56126023E+02   1.02926358E+01   3432.07856395    7.96723808E-05   2.17217707E+19   5.46075401E+06   5.90440931E+08   1.62747695E+07   0.12046937      
  98               5.55026396E+02   1.13429191E+01   3472.44505337    8.65256484E-05   2.36600300E+19   4.71458921E+06   5.91330492E+08   1.22745162E+07   0.12025203      
  99               6.75371026E+02   1.24959508E+01   3513.09701090    9.39371129E-05   2.57635083E+19   4.06728877E+06   5.92129075E+08   8.23008432E+06   0.1201251       
  100              8.21809604E+02   1.37619030E+01   3554.04313012    1.01953904E-04   2.80466915E+19   3.50544560E+06   5.92847202E+08   4.13932370E+06   0.12007653      
  101              1.00000000E+03   1.51520121E+01   3595.36396028    1.10624098E-04   3.05248324E+19   3.24542285E+06   5.93238427E+08   0.00000000E+00   0.1200989       
