# ATMO pressure-temperature profile
# Effective temperature = 1300.0K
# log(g) = 3.0cm/s^2
# M/H = 0.0
# Optical depth grid in band 17 (1.20-1.33microns)
# All parameters in cgs units
#
# Model Level      Optical Depth    Pressure         Temperature      Density          Number Density   Rad Flux         Conv Flux        Radial Extension Adiabatic Gradient
#                                   [Ba]             [K]              [g/cm^3]         [/cm^3]          [ergs/s/cm^2/sr] [ergs/s/cm^2/sr] [cm]             [K/Ba]          
  1                1.00000000E-05   1.00000000E-05   294.14259578     9.63874741E-10   2.46245282E+14   1.61937781E+08   0.00000000E+00   5.37374631E+08   0.29747326      
  2                1.20226443E-05   1.79747756E-05   352.73480095     1.44474211E-09   3.69097418E+14   1.61937781E+08   0.00000000E+00   5.30616712E+08   0.29778064      
  3                1.44543977E-05   2.67210340E-05   378.09729116     2.00366324E-09   5.11888689E+14   1.61937781E+08   0.00000000E+00   5.25476101E+08   0.29787451      
  4                1.73780083E-05   3.68025963E-05   396.75282861     2.62986485E-09   6.71868479E+14   1.61937781E+08   0.00000000E+00   5.21084238E+08   0.29794844      
  5                2.08929613E-05   4.85578121E-05   411.80424030     3.34305452E-09   8.54071314E+14   1.61937781E+08   0.00000000E+00   5.17119703E+08   0.29796433      
  6                2.51188643E-05   6.23219401E-05   426.76137569     4.14031883E-09   1.05774674E+15   1.61937781E+08   0.00000000E+00   5.13420052E+08   0.29796358      
  7                3.01995172E-05   7.84885627E-05   439.25885270     5.06598355E-09   1.29423069E+15   1.61937781E+08   0.00000000E+00   5.09890086E+08   0.29794348      
  8                3.63078055E-05   9.75789177E-05   449.12897192     6.15974658E-09   1.57365949E+15   1.61937781E+08   0.00000000E+00   5.06472648E+08   0.29789936      
  9                4.36515832E-05   1.20163114E-04   459.87656589     7.40811665E-09   1.89258649E+15   1.61937781E+08   0.00000000E+00   5.03129394E+08   0.29785971      
  10               5.24807460E-05   1.46903927E-04   468.92315105     8.88197706E-09   2.26912056E+15   1.61937781E+08   0.00000000E+00   4.99832797E+08   0.2977827       
  11               6.30957344E-05   1.78584326E-04   479.17126403     1.05664837E-08   2.69946943E+15   1.61937781E+08   0.00000000E+00   4.96562625E+08   0.29772797      
  12               7.58577575E-05   2.16131667E-04   487.79105830     1.25621068E-08   3.20930068E+15   1.61937781E+08   0.00000000E+00   4.93303638E+08   0.29785443      
  13               9.12010839E-05   2.60650436E-04   497.58753303     1.48513823E-08   3.79415269E+15   1.61937781E+08   0.00000000E+00   4.90044307E+08   0.29779264      
  14               1.09647820E-04   3.13453176E-04   505.72765585     1.75725135E-08   4.48933290E+15   1.61937781E+08   0.00000000E+00   4.86775750E+08   0.29766466      
  15               1.31825674E-04   3.76102322E-04   515.14181784     2.06993699E-08   5.28816561E+15   1.61937781E+08   0.00000000E+00   4.83490869E+08   0.29760061      
  16               1.58489319E-04   4.50466867E-04   523.04255153     2.44176436E-08   6.23809050E+15   1.61937781E+08   0.00000000E+00   4.80183097E+08   0.29746305      
  17               1.90546072E-04   5.38765571E-04   532.38904565     2.86911959E-08   7.32987491E+15   1.61937781E+08   0.00000000E+00   4.76847081E+08   0.29739401      
  18               2.29086765E-04   6.43627806E-04   540.27361205     3.37752814E-08   8.62873004E+15   1.61937781E+08   0.00000000E+00   4.73478513E+08   0.29724371      
  19               2.75422870E-04   7.68170467E-04   549.71318656     3.96186238E-08   1.01215562E+16   1.61937781E+08   0.00000000E+00   4.70073891E+08   0.29716815      
  20               3.31131121E-04   9.16090091E-04   557.66674239     4.65737682E-08   1.18984196E+16   1.61937781E+08   0.00000000E+00   4.66630349E+08   0.29700432      
  21               3.98107171E-04   1.09177269E-03   567.19621100     5.45728781E-08   1.39419893E+16   1.61937781E+08   0.00000000E+00   4.63145615E+08   0.29692028      
  22               4.78630092E-04   1.30041784E-03   575.19327033     6.40983854E-08   1.63755148E+16   1.61937781E+08   0.00000000E+00   4.59617877E+08   0.29673847      
  23               5.75439937E-04   1.54817003E-03   584.92680996     7.50403914E-08   1.91709206E+16   1.61937781E+08   0.00000000E+00   4.56045589E+08   0.29664266      
  24               6.91830971E-04   1.84227786E-03   593.20947899     8.80491240E-08   2.24943211E+16   1.61937781E+08   0.00000000E+00   4.52427356E+08   0.29644133      
  25               8.31763771E-04   2.19127810E-03   603.38835955     1.02962374E-07   2.63042794E+16   1.61937781E+08   0.00000000E+00   4.48761935E+08   0.29633226      
  26               1.00000000E-03   2.60519878E-03   612.19504278     1.20650502E-07   3.08231413E+16   1.61937781E+08   0.00000000E+00   4.45048179E+08   0.29610692      
  27               1.20226443E-03   3.09580534E-03   623.06536064     1.40869862E-07   3.59886766E+16   1.61937781E+08   0.00000000E+00   4.41284958E+08   0.29597826      
  28               1.44543977E-03   3.67706495E-03   632.67773418     1.64777171E-07   4.20963644E+16   1.61937781E+08   0.00000000E+00   4.37469799E+08   0.29572269      
  29               1.73780083E-03   4.36556521E-03   644.37841537     1.92078045E-07   4.90710482E+16   1.61937781E+08   0.00000000E+00   4.33599748E+08   0.29557073      
  30               2.08929613E-03   5.18077667E-03   654.83501936     2.24306540E-07   5.73045115E+16   1.61937781E+08   0.00000000E+00   4.29672299E+08   0.29527997      
  31               2.51188643E-03   6.14545295E-03   667.58490368     2.60991401E-07   6.66765669E+16   1.61937781E+08   0.00000000E+00   4.25685287E+08   0.29509624      
  32               3.01995172E-03   7.28606255E-03   679.27180383     3.04109891E-07   7.76917935E+16   1.61937781E+08   0.00000000E+00   4.21636648E+08   0.29476098      
  33               3.63078055E-03   8.63337994E-03   693.35356575     3.53026316E-07   9.01886612E+16   1.61937781E+08   0.00000000E+00   4.17524667E+08   0.29453899      
  34               4.36515832E-03   1.02229420E-02   706.42849345     4.10290179E-07   1.04817435E+17   1.61937781E+08   0.00000000E+00   4.13348010E+08   0.29415049      
  35               5.24807460E-03   1.20954501E-02   722.19853050     4.74841326E-07   1.21308512E+17   1.61937781E+08   0.00000000E+00   4.09105685E+08   0.29387818      
  36               6.30957344E-03   1.42970675E-02   737.26817915     5.49799147E-07   1.40458270E+17   1.61937781E+08   0.00000000E+00   4.04796794E+08   0.29343606      
  37               7.58577575E-03   1.68799834E-02   755.23947550     6.33678606E-07   1.61887447E+17   1.61937781E+08   0.00000000E+00   4.00420830E+08   0.29327678      
  38               9.12010839E-03   1.99042179E-02   772.52235303     7.30490429E-07   1.86620738E+17   1.61937781E+08   0.00000000E+00   3.95975810E+08   0.29282637      
  39               1.09647820E-02   2.34417782E-02   792.94475285     8.38158071E-07   2.14128001E+17   1.61937781E+08   0.00000000E+00   3.91454819E+08   0.29241218      
  40               1.31825674E-02   2.75731943E-02   813.07928538     9.61456108E-07   2.45629217E+17   1.61937781E+08   0.00000000E+00   3.86852557E+08   0.29180333      
  41               1.58489319E-02   3.23874442E-02   836.68056295     1.09745751E-06   2.80377292E+17   1.61937781E+08   0.00000000E+00   3.82165825E+08   0.29128965      
  42               1.90546072E-02   3.79802253E-02   860.17740722     1.25180016E-06   3.19812434E+17   1.61937781E+08   0.00000000E+00   3.77394195E+08   0.29047434      
  43               2.29086765E-02   4.44511366E-02   887.55659597     1.41988886E-06   3.62754371E+17   1.61937781E+08   0.00000000E+00   3.72540504E+08   0.28976318      
  44               2.75422870E-02   5.19012206E-02   915.19598921     1.60774998E-06   4.10761095E+17   1.61937781E+08   0.00000000E+00   3.67609618E+08   0.2888341       
  45               3.31131121E-02   6.04378332E-02   946.91447103     1.80941905E-06   4.62300084E+17   1.61937781E+08   0.00000000E+00   3.62604585E+08   0.2881217       
  46               3.98107171E-02   7.02012019E-02   978.90947547     2.03296774E-06   5.19430988E+17   1.61937781E+08   0.00000000E+00   3.57514031E+08   0.28717387      
  47               4.78630092E-02   8.13357003E-02   1015.28072089    2.27097430E-06   5.80257698E+17   1.61937781E+08   0.00000000E+00   3.52332005E+08   0.28634742      
  48               5.75439937E-02   9.39716405E-02   1052.47603278    2.53100649E-06   6.46711276E+17   1.61937780E+08   0.00000000E+00   3.47061465E+08   0.28523393      
  49               6.91830971E-02   1.08205341E-01   1095.66209816    2.79945923E-06   7.15315933E+17   1.61813140E+08   1.25719169E+05   3.41714168E+08   0.28423367      
  50               8.31763771E-02   1.24107684E-01   1139.06679712    3.08850014E-06   7.89178635E+17   1.61308896E+08   6.29367619E+05   3.36305997E+08   0.28290359      
  51               1.00000000E-01   1.41877408E-01   1182.95157103    3.39971154E-06   8.68704598E+17   1.60518088E+08   1.41983711E+06   3.30822142E+08   0.28162871      
  52               1.20226443E-01   1.61767638E-01   1227.34489391    3.73610741E-06   9.54664700E+17   1.59435925E+08   2.50207791E+06   3.25241179E+08   0.27985438      
  53               1.44543977E-01   1.84020025E-01   1272.27830941    4.09992941E-06   1.04763211E+18   1.58044024E+08   3.89407522E+06   3.19555545E+08   0.27848588      
  54               1.73780083E-01   2.08866592E-01   1317.88742181    4.49245641E-06   1.14793291E+18   1.56294929E+08   5.64330434E+06   3.13766105E+08   0.27716301      
  55               2.08929613E-01   2.36540312E-01   1363.98914900    4.91574854E-06   1.25608806E+18   1.54132464E+08   7.80594456E+06   3.07877240E+08   0.27567373      
  56               2.51188643E-01   2.67284163E-01   1410.62571733    5.37118968E-06   1.37242073E+18   1.51500432E+08   1.04381747E+07   3.01894068E+08   0.27346677      
  57               3.01995172E-01   3.01445392E-01   1457.52574270    5.86311673E-06   1.49802222E+18   1.48399133E+08   1.35399681E+07   2.95806551E+08   0.27131357      
  58               3.63078055E-01   3.39242981E-01   1504.91445132    6.39243513E-06   1.63276957E+18   1.44777926E+08   1.71623623E+07   2.89632223E+08   0.26927097      
  59               4.36515832E-01   3.80433755E-01   1551.81795082    6.95229379E-06   1.77567759E+18   1.40575003E+08   2.13686005E+07   2.83453391E+08   0.26754471      
  60               5.24807460E-01   4.24086146E-01   1597.56224815    7.53033713E-06   1.92274697E+18   1.35756662E+08   2.61980350E+07   2.77420110E+08   0.26605087      
  61               6.30957344E-01   4.68150813E-01   1639.92068805    8.10167677E-06   2.06770595E+18   1.30435506E+08   3.15638095E+07   2.71778360E+08   0.26461028      
  62               7.58577575E-01   5.10058615E-01   1677.56358137    8.63544797E-06   2.20225162E+18   1.24933283E+08   3.70181840E+07   2.66767668E+08   0.26319109      
  63               9.12010839E-01   5.46270554E-01   1707.92874742    9.08388516E-06   2.31666844E+18   1.19983113E+08   4.19806974E+07   2.62679075E+08   0.26207538      
  64               1.09647820E+00   5.87000260E-01   1740.51268726    9.57795187E-06   2.44279454E+18   1.14692268E+08   4.75838884E+07   2.58312515E+08   0.26117792      
  65               1.31825674E+00   6.22029524E-01   1766.88176296    1.00066096E-05   2.54993641E+18   1.09793289E+08   5.23623780E+07   2.54734008E+08   0.26013842      
  66               1.58489319E+00   6.50132841E-01   1787.40547080    1.03383667E-05   2.63454039E+18   1.05731815E+08   5.61285724E+07   2.51970961E+08   0.25895338      
  67               1.90546072E+00   6.82082059E-01   1809.57652972    1.07132078E-05   2.73014373E+18   1.01457980E+08   6.04096815E+07   2.48935149E+08   0.2576374       
  68               2.29086765E+00   7.18219307E-01   1833.88584447    1.11308435E-05   2.83668177E+18   9.67435820E+07   6.51321113E+07   2.45625884E+08   0.25613995      
  69               2.75422870E+00   7.58856935E-01   1859.72064851    1.15967184E-05   2.95554812E+18   9.14693583E+07   7.04155328E+07   2.42049063E+08   0.25443322      
  70               3.31131121E+00   8.04225552E-01   1887.45296612    1.21087473E-05   3.08622489E+18   8.56111496E+07   7.62796100E+07   2.38220472E+08   0.25249724      
  71               3.98107171E+00   8.54304723E-01   1916.22104911    1.26687605E-05   3.22918585E+18   7.94803720E+07   8.24078224E+07   2.34177123E+08   0.25039774      
  72               4.78630092E+00   9.09647267E-01   1946.60405301    1.32777078E-05   3.38470821E+18   7.37468549E+07   8.81405339E+07   2.29910037E+08   0.24806074      
  73               5.75439937E+00   9.71611495E-01   1978.39881516    1.39527047E-05   3.55717016E+18   6.84093388E+07   9.34834236E+07   2.25357523E+08   0.24538834      
  74               6.91830971E+00   1.04083350E+00   2012.06355611    1.46946502E-05   3.74684223E+18   6.31641019E+07   9.87337305E+07   2.20523188E+08   0.24241189      
  75               8.31763771E+00   1.11801700E+00   2046.90266016    1.55130869E-05   3.95618923E+18   5.79735834E+07   1.03928916E+08   2.15411112E+08   0.23911031      
  76               1.00000000E+01   1.20394428E+00   2083.37030727    1.64095880E-05   4.18567745E+18   5.28959450E+07   1.09010852E+08   2.10025499E+08   0.23559235      
  77               1.20226443E+01   1.29948310E+00   2120.77008709    1.73951436E-05   4.43815931E+18   4.79629539E+07   1.13947732E+08   2.04370672E+08   0.23176601      
  78               1.44543977E+01   1.40560058E+00   2159.53837439    1.84723834E-05   4.71440447E+18   4.32477542E+07   1.18666308E+08   1.98450774E+08   0.22778956      
  79               1.73780083E+01   1.52337089E+00   2199.00302420    1.96539454E-05   5.01771126E+18   3.87604181E+07   1.23156757E+08   1.92269861E+08   0.2235249       
  80               2.08929613E+01   1.65399154E+00   2239.56846463    2.09439430E-05   5.34927320E+18   3.45534761E+07   1.27366677E+08   1.85831706E+08   0.2190211       
  81               2.51188643E+01   1.79879670E+00   2280.55410579    2.23574747E-05   5.71304362E+18   3.06299790E+07   1.31293837E+08   1.79139835E+08   0.21417905      
  82               3.01995172E+01   1.95926949E+00   2322.33939384    2.39005493E-05   6.11074734E+18   2.70136481E+07   1.34913141E+08   1.72197737E+08   0.20932374      
  83               3.63078055E+01   2.13687874E+00   2364.30335518    2.55906300E-05   6.54639972E+18   2.36901023E+07   1.38237073E+08   1.65015851E+08   0.20446989      
  84               4.36515832E+01   2.33342842E+00   2406.85863119    2.74305703E-05   7.02214414E+18   2.07518325E+07   1.41175626E+08   1.57597284E+08   0.19964374      
  85               5.24807460E+01   2.55107066E+00   2449.45557391    2.94437300E-05   7.54360190E+18   1.81327085E+07   1.43796145E+08   1.49938932E+08   0.19481567      
  86               6.30957344E+01   2.79198644E+00   2492.50098096    3.16390660E-05   8.11341715E+18   1.57810760E+07   1.46149104E+08   1.42045543E+08   0.19018448      
  87               7.58577575E+01   3.05857311E+00   2535.47920075    3.40385822E-05   8.73744899E+18   1.36787609E+07   1.48252645E+08   1.33921960E+08   0.18566012      
  88               9.12010839E+01   3.35346267E+00   2578.78142390    3.66532956E-05   9.41899968E+18   1.18558903E+07   1.50076664E+08   1.25573154E+08   0.18120486      
  89               1.09647820E+02   3.67954987E+00   2621.86577055    3.95094967E-05   1.01650631E+19   1.02743035E+07   1.51659319E+08   1.17004081E+08   0.17701819      
  90               1.31825674E+02   4.03999808E+00   2665.24333907    4.26184383E-05   1.09791857E+19   8.91322572E+06   1.53021313E+08   1.08219903E+08   0.17302224      
  91               1.58489319E+02   4.43820187E+00   2708.32056246    4.60107873E-05   1.18695109E+19   7.72396385E+06   1.54211250E+08   9.92273164E+07   0.1691607       
  92               1.90546072E+02   4.87779460E+00   2751.59540780    4.96987032E-05   1.28399926E+19   6.69709152E+06   1.55238367E+08   9.00343374E+07   0.16549387      
  93               2.29086765E+02   5.36264280E+00   2794.48606584    5.37160079E-05   1.38996147E+19   5.80656799E+06   1.56128562E+08   8.06503053E+07   0.16221787      
  94               2.75422870E+02   5.89682870E+00   2837.61343994    5.80719584E-05   1.50518929E+19   5.03906007E+06   1.56895016E+08   7.10857304E+07   0.15918666      
  95               3.31131121E+02   6.48467022E+00   2880.30699816    6.28052734E-05   1.63070332E+19   4.36893163E+06   1.57563189E+08   6.13518237E+07   0.15639383      
  96               3.98107171E+02   7.13074322E+00   2923.21367837    6.79238769E-05   1.76685160E+19   3.79264253E+06   1.58136425E+08   5.14599006E+07   0.15378453      
  97               4.78630092E+02   7.83996397E+00   2965.62853611    7.34723081E-05   1.91479883E+19   3.29435627E+06   1.58630403E+08   4.14202970E+07   0.151452        
  98               5.75439937E+02   8.61756923E+00   3008.28803015    7.94558950E-05   2.07487150E+19   2.86641261E+06   1.59052658E+08   3.12427598E+07   0.14924217      
  99               6.91830971E+02   9.46900747E+00   3050.38701811    8.59266978E-05   2.24840921E+19   2.49163970E+06   1.59420398E+08   2.09380888E+07   0.14721471      
  100              8.31763771E+02   1.03997089E+01   3092.70939729    9.28832225E-05   2.43561089E+19   2.16696707E+06   1.59737078E+08   1.05200508E+07   0.14533302      
  101              1.00000000E+03   1.14155111E+01   3134.41246373    1.00383241E-04   2.63794087E+19   2.00422562E+06   1.59893658E+08   0.00000000E+00   0.14370521      
