# ATMO pressure-temperature profile
# Effective temperature = 1300.0K
# log(g) = 4.5cm/s^2
# M/H = 0.0
# Optical depth grid in band 17 (1.20-1.33microns)
# All parameters in cgs units
#
# Model Level      Optical Depth    Pressure         Temperature      Density          Number Density   Rad Flux         Conv Flux        Radial Extension Adiabatic Gradient
#                                   [Ba]             [K]              [g/cm^3]         [/cm^3]          [ergs/s/cm^2/sr] [ergs/s/cm^2/sr] [cm]             [K/Ba]          
  1                5.00000000E-06   1.00000000E-05   389.03449368     7.28413823E-10   1.86182017E+14   1.61937783E+08   0.00000000E+00   1.97931517E+07   0.29797706      
  2                6.05313423E-06   1.25260810E-04   452.85616999     7.83834555E-09   2.00346041E+15   1.61937783E+08   0.00000000E+00   1.82677586E+07   0.29950476      
  3                7.32808679E-06   2.55657446E-04   471.76839949     1.53567421E-08   3.92514259E+15   1.61937783E+08   0.00000000E+00   1.78919172E+07   0.29939375      
  4                8.87157859E-06   4.08877139E-04   492.09010237     2.35460298E-08   6.01830285E+15   1.61937783E+08   0.00000000E+00   1.76371132E+07   0.29929349      
  5                1.07401712E-05   5.90175807E-04   501.63556616     3.33397687E-08   8.52155638E+15   1.61937783E+08   0.00000000E+00   1.74324902E+07   0.29924224      
  6                1.30023396E-05   8.05593940E-04   516.58128473     4.41923425E-08   1.12954454E+16   1.61937783E+08   0.00000000E+00   1.72550191E+07   0.29917153      
  7                1.57409813E-05   1.06217961E-03   523.15982187     5.75351285E-08   1.47058258E+16   1.61937783E+08   0.00000000E+00   1.70941057E+07   0.29913504      
  8                1.90564546E-05   1.36838343E-03   536.06615828     7.23367391E-08   1.84890780E+16   1.61937783E+08   0.00000000E+00   1.69440113E+07   0.29907197      
  9                2.30702555E-05   1.73413524E-03   541.48554894     9.07539669E-08   2.31964718E+16   1.61937783E+08   0.00000000E+00   1.68012619E+07   0.29903907      
  10               2.79294706E-05   2.17132425E-03   553.65942748     1.11135170E-07   2.84058522E+16   1.61937783E+08   0.00000000E+00   1.66636010E+07   0.29897647      
  11               3.38121669E-05   2.69407803E-03   558.52576901     1.36689923E-07   3.49375779E+16   1.61937783E+08   0.00000000E+00   1.65294780E+07   0.29894424      
  12               4.09339169E-05   3.31934968E-03   570.31250451     1.64933798E-07   4.21566364E+16   1.61937783E+08   0.00000000E+00   1.63977901E+07   0.29887768      
  13               4.95556987E-05   4.06732288E-03   574.88569088     2.00491845E-07   5.12451761E+16   1.61937783E+08   0.00000000E+00   1.62677184E+07   0.2988439       
  14               5.99934592E-05   4.96219649E-03   586.46702290     2.39772804E-07   6.12852836E+16   1.61937783E+08   0.00000000E+00   1.61386520E+07   0.29877385      
  15               7.26296922E-05   6.03275178E-03   590.85426831     2.89337455E-07   7.39538723E+16   1.61937783E+08   0.00000000E+00   1.60101213E+07   0.29873774      
  16               8.79274551E-05   7.31334867E-03   602.53082173     3.43958944E-07   8.79149738E+16   1.61937783E+08   0.00000000E+00   1.58817533E+07   0.29865904      
  17               1.06447338E-04   8.84484588E-03   606.95655839     4.12954565E-07   1.05550064E+17   1.61937783E+08   0.00000000E+00   1.57532507E+07   0.29861878      
  18               1.28868005E-04   1.06760875E-02   618.70398556     4.88988706E-07   1.24984181E+17   1.61937783E+08   0.00000000E+00   1.56243827E+07   0.29851828      
  19               1.56011066E-04   1.28652645E-02   623.09780087     5.85102745E-07   1.49550663E+17   1.61937783E+08   0.00000000E+00   1.54949586E+07   0.29851769      
  20               1.88871184E-04   1.54822673E-02   635.21042316     6.90695520E-07   1.76539863E+17   1.61937783E+08   0.00000000E+00   1.53647784E+07   0.29841082      
  21               2.28652526E-04   1.86101864E-02   639.86790842     8.24195241E-07   2.10662014E+17   1.61937783E+08   0.00000000E+00   1.52336801E+07   0.29833543      
  22               2.76812886E-04   2.23472188E-02   652.61837573     9.70362308E-07   2.48021896E+17   1.61937783E+08   0.00000000E+00   1.51015369E+07   0.2982275       
  23               3.35117111E-04   2.68092583E-02   657.88866398     1.15478809E-06   2.95160499E+17   1.61937783E+08   0.00000000E+00   1.49682414E+07   0.298177        
  24               4.05701771E-04   3.21332374E-02   671.73732026     1.35557920E-06   3.46482134E+17   1.61937783E+08   0.00000000E+00   1.48336793E+07   0.29804629      
  25               4.91153455E-04   3.84800054E-02   677.93183628     1.60849264E-06   4.11125993E+17   1.61937783E+08   0.00000000E+00   1.46977602E+07   0.29796517      
  26               5.94603558E-04   4.60378017E-02   692.98489741     1.88261527E-06   4.81190061E+17   1.61937783E+08   0.00000000E+00   1.45604176E+07   0.29781253      
  27               7.19843029E-04   5.50255117E-02   700.39067864     2.22635545E-06   5.69048879E+17   1.61937783E+08   0.00000000E+00   1.44215916E+07   0.29771095      
  28               8.71461295E-04   6.56995635E-02   717.06970557     2.59640259E-06   6.63631434E+17   1.61937783E+08   0.00000000E+00   1.42811984E+07   0.29748051      
  29               1.05501444E-03   7.83546539E-02   726.01719659     3.05837515E-06   7.81706510E+17   1.61937783E+08   0.00000000E+00   1.41391834E+07   0.29730288      
  30               1.27722880E-03   9.33294071E-02   744.48957474     3.55249490E-06   9.07999743E+17   1.61937783E+08   0.00000000E+00   1.39955195E+07   0.29701536      
  31               1.54624747E-03   1.11006902E-01   755.35451016     4.16459382E-06   1.06444934E+18   1.61937783E+08   0.00000000E+00   1.38501854E+07   0.29681183      
  32               1.87192870E-03   1.31841935E-01   776.15665923     4.81370936E-06   1.23035382E+18   1.61937783E+08   0.00000000E+00   1.37030327E+07   0.29648134      
  33               2.26620714E-03   1.56362970E-01   789.46615886     5.61275415E-06   1.43458482E+18   1.61937783E+08   0.00000000E+00   1.35538526E+07   0.29623694      
  34               2.74353120E-03   1.85169654E-01   812.97090622     6.45461502E-06   1.64975955E+18   1.61937783E+08   0.00000000E+00   1.34025069E+07   0.29583711      
  35               3.32139252E-03   2.18920234E-01   829.33064904     7.48055232E-06   1.91198300E+18   1.61937783E+08   0.00000000E+00   1.32489111E+07   0.29547819      
  36               4.02096694E-03   2.58370968E-01   856.18601683     8.55167144E-06   2.18575470E+18   1.61937783E+08   0.00000000E+00   1.30929333E+07   0.29488759      
  37               4.86789053E-03   3.04326125E-01   876.13320871     9.84338913E-06   2.51590903E+18   1.61937783E+08   0.00000000E+00   1.29345401E+07   0.2943531       
  38               5.89319895E-03   3.57643775E-01   906.64243405     1.11786941E-05   2.85719886E+18   1.61937783E+08   0.00000000E+00   1.27738078E+07   0.29358971      
  39               7.13446485E-03   4.19170491E-01   930.58912070     1.27647251E-05   3.26256047E+18   1.61937783E+08   0.00000000E+00   1.26109297E+07   0.2928973       
  40               8.63717467E-03   4.89976916E-01   965.11977232     1.43873913E-05   3.67722536E+18   1.61937783E+08   0.00000000E+00   1.24457042E+07   0.2919556       
  41               1.04563955E-02   5.71290283E-01   993.32202006     1.62986288E-05   4.16574435E+18   1.61937783E+08   0.00000000E+00   1.22777869E+07   0.29109307      
  42               1.26587931E-02   6.64407955E-01   1031.79460615    1.82481683E-05   4.66409524E+18   1.61937783E+08   0.00000000E+00   1.21070423E+07   0.28997114      
  43               1.53250748E-02   7.70578172E-01   1063.93065773    2.05245477E-05   5.24601127E+18   1.61937783E+08   0.00000000E+00   1.19335595E+07   0.28892848      
  44               1.85529469E-02   8.91121295E-01   1105.82588934    2.28354038E-05   5.83681473E+18   1.61937783E+08   0.00000000E+00   1.17574830E+07   0.28759806      
  45               2.24606956E-02   1.02751657E+00   1141.09662593    2.55161099E-05   6.52217205E+18   1.61937784E+08   0.00000000E+00   1.15787981E+07   0.28634739      
  46               2.71915211E-02   1.18181413E+00   1185.65362270    2.82440222E-05   7.21966733E+18   1.61937784E+08   0.00000000E+00   1.13970421E+07   0.28481394      
  47               3.29187854E-02   1.35622264E+00   1223.46144631    3.14098693E-05   8.02909397E+18   1.61937784E+08   0.00000000E+00   1.12118717E+07   0.28341463      
  48               3.98523653E-02   1.55303362E+00   1270.20309256    3.46436001E-05   8.85591687E+18   1.61937784E+08   0.00000000E+00   1.10232008E+07   0.2817788       
  49               4.82463432E-02   1.77452640E+00   1309.90744985    3.83840026E-05   9.81222940E+18   1.61937784E+08   0.00000000E+00   1.08311248E+07   0.28031278      
  50               5.84083183E-02   2.02352017E+00   1358.30520267    4.22096606E-05   1.07903620E+19   1.61937784E+08   0.00000000E+00   1.06355074E+07   0.27866363      
  51               7.07106781E-02   2.30313770E+00   1399.56060090    4.66256590E-05   1.19193902E+19   1.61937784E+08   0.00000000E+00   1.04361895E+07   0.27719655      
  52               8.56042452E-02   2.61802874E+00   1449.58222205    5.11710390E-05   1.30814955E+19   1.61937784E+08   0.00000000E+00   1.02323274E+07   0.27544532      
  53               1.03634797E-01   2.97248234E+00   1492.62162417    5.64235315E-05   1.44243215E+19   1.61937784E+08   0.00000000E+00   1.00237253E+07   0.27383264      
  54               1.25463068E-01   3.37027463E+00   1544.25954509    6.18374334E-05   1.58077783E+19   1.61937785E+08   0.00000000E+00   9.81076097E+06   0.27198981      
  55               1.51888958E-01   3.81089431E+00   1588.85952268    6.79797930E-05   1.73726969E+19   1.61937785E+08   0.00000000E+00   9.59584204E+06   0.27031744      
  56               1.83880850E-01   4.28557579E+00   1641.77411095    7.39866545E-05   1.89069561E+19   1.61553368E+08   3.84417367E+05   9.38418215E+06   0.2684519       
  57               2.22611093E-01   4.77438175E+00   1687.96892213    8.01879114E-05   2.04870079E+19   1.58822251E+08   3.11553417E+06   9.18349746E+06   0.26670478      
  58               2.69498965E-01   5.24671816E+00   1732.81199958    8.58779006E-05   2.19311865E+19   1.54128052E+08   7.80973193E+06   9.00349884E+06   0.26513319      
  59               3.26262682E-01   5.67509254E+00   1767.11508093    9.11831268E-05   2.32612985E+19   1.48440605E+08   1.34971905E+07   8.85040300E+06   0.26381783      
  60               3.94982361E-01   6.04096108E+00   1798.46747775    9.53740328E-05   2.43292818E+19   1.42675906E+08   1.92618848E+07   8.72633689E+06   0.26237981      
  61               4.78176250E-01   6.45266936E+00   1827.66903568    1.00246109E-04   2.55721767E+19   1.36494333E+08   2.54434407E+07   8.59318697E+06   0.26133285      
  62               5.78893005E-01   6.81667750E+00   1856.15672907    1.04303327E-04   2.66001413E+19   1.30010149E+08   3.19276263E+07   8.48061173E+06   0.26048856      
  63               7.00823412E-01   7.12137631E+00   1875.22576155    1.07856129E-04   2.75065558E+19   1.24128670E+08   3.78091165E+07   8.38976708E+06   0.25963438      
  64               8.48435636E-01   7.47061946E+00   1900.83585263    1.11618815E-04   2.84667469E+19   1.17894863E+08   4.40429237E+07   8.28911170E+06   0.25856364      
  65               1.02713896E+00   7.86875990E+00   1924.24843757    1.16130110E-04   2.96190409E+19   1.10403384E+08   5.15344591E+07   8.17852692E+06   0.25744366      
  66               1.24348200E+00   8.16493965E+00   1944.83062975    1.19327920E-04   3.04086425E+19   1.02875416E+08   5.90626279E+07   8.09895409E+06   0.25614293      
  67               1.50539269E+00   8.37594978E+00   1955.28609685    1.21755045E-04   3.10277006E+19   9.69948865E+07   6.49431069E+07   8.04359500E+06   0.25521165      
  68               1.82246880E+00   8.62052713E+00   1971.97053220    1.24247375E-04   3.16635235E+19   9.17564352E+07   7.01813548E+07   7.98071258E+06   0.25452348      
  69               2.20632965E+00   8.90511061E+00   1986.01528799    1.27438868E-04   3.24774984E+19   8.66311689E+07   7.53066211E+07   7.90919460E+06   0.25372444      
  70               2.67104190E+00   9.23473594E+00   2006.71231264    1.30789112E-04   3.33322942E+19   8.17158373E+07   8.02219521E+07   7.82845547E+06   0.2528166       
  71               3.23363503E+00   9.61454791E+00   2024.88112029    1.34942419E-04   3.43918214E+19   7.68073834E+07   8.51304021E+07   7.73804708E+06   0.25178332      
  72               3.91472538E+00   1.00523382E+01   2050.04009093    1.39349046E-04   3.55165341E+19   7.22005869E+07   8.97371948E+07   7.63708920E+06   0.25063986      
  73               4.73927163E+00   1.05548266E+01   2072.79803548    1.44701691E-04   3.68824663E+19   6.75202207E+07   9.44175596E+07   7.52518729E+06   0.24932132      
  74               5.73748947E+00   1.11291717E+01   2102.72437325    1.50394070E-04   3.83359591E+19   6.30177292E+07   9.89200497E+07   7.40206938E+06   0.24787379      
  75               6.94595877E+00   1.17830145E+01   2130.13826365    1.57169786E-04   4.00658590E+19   5.84107319E+07   1.03527045E+08   7.26758435E+06   0.24623428      
  76               8.40896415E+00   1.25246238E+01   2164.79016725    1.64371468E-04   4.19058566E+19   5.40426844E+07   1.07895091E+08   7.12167665E+06   0.24451419      
  77               1.01801177E+01   1.33628888E+01   2196.69744188    1.72807856E-04   4.40611623E+19   4.95942989E+07   1.12343475E+08   6.96439172E+06   0.24251821      
  78               1.23243238E+01   1.43075529E+01   2235.80946181    1.81761441E-04   4.63507119E+19   4.54880572E+07   1.16449715E+08   6.79583502E+06   0.24039634      
  79               1.49201573E+01   1.53692378E+01   2271.83132765    1.92124262E-04   4.90006776E+19   4.13073518E+07   1.20630418E+08   6.61617363E+06   0.23793114      
  80               1.80627429E+01   1.65592397E+01   2314.93485181    2.03124679E-04   5.18116543E+19   3.75582728E+07   1.24379495E+08   6.42567578E+06   0.23544869      
  81               2.18672415E+01   1.78904770E+01   2354.56034749    2.15715826E-04   5.50348685E+19   3.38202258E+07   1.28117540E+08   6.22456528E+06   0.23259079      
  82               2.64730696E+01   1.93779177E+01   2401.14427356    2.29052837E-04   5.84540612E+19   3.06508977E+07   1.31286862E+08   6.01295670E+06   0.22975259      
  83               3.20490087E+01   2.10379099E+01   2443.88750817    2.44255145E-04   6.23515451E+19   2.73598858E+07   1.34577868E+08   5.79102543E+06   0.22624373      
  84               3.87993903E+01   2.28889120E+01   2493.33692896    2.60376454E-04   6.64920953E+19   2.46652087E+07   1.37272545E+08   5.55891891E+06   0.22364014      
  85               4.69715834E+01   2.49507848E+01   2538.92574905    2.78627452E-04   7.11803386E+19   2.17958619E+07   1.40141892E+08   5.31684284E+06   0.21978498      
  86               5.68650599E+01   2.72463165E+01   2590.69327729    2.98033492E-04   7.61759079E+19   1.95413998E+07   1.42396360E+08   5.06493437E+06   0.21712295      
  87               6.88423680E+01   2.98004561E+01   2638.75851621    3.19872238E-04   8.17992088E+19   1.71784988E+07   1.44759255E+08   4.80334064E+06   0.21290167      
  88               8.33424188E+01   3.26421310E+01   2692.30064367    3.43189039E-04   8.78174431E+19   1.53688381E+07   1.46568916E+08   4.53211913E+06   0.21034884      
  89               1.00896570E+02   3.58022629E+01   2742.60200652    3.69271158E-04   9.45526112E+19   1.34808694E+07   1.48456885E+08   4.25140125E+06   0.20583734      
  90               1.22148096E+02   3.93174462E+01   2797.41893657    3.97272844E-04   1.01801372E+20   1.20166775E+07   1.49921078E+08   3.96117534E+06   0.20330905      
  91               1.47875764E+02   4.32276725E+01   2849.73683812    4.28424078E-04   1.09870964E+20   1.05066652E+07   1.51431096E+08   3.66144866E+06   0.19885949      
  92               1.79022369E+02   4.75785731E+01   2905.55470320    4.62060815E-04   1.18606420E+20   9.32045213E+06   1.52617324E+08   3.35220665E+06   0.19668571      
  93               2.16729286E+02   5.24176253E+01   2959.85973515    4.99236555E-04   1.28272055E+20   8.11881254E+06   1.53819005E+08   3.03359390E+06   0.19247545      
  94               2.62378292E+02   5.78111377E+01   3016.56843601    5.39708033E-04   1.38811093E+20   7.12439324E+06   1.54813686E+08   2.70501125E+06   0.1892917       
  95               3.17642204E+02   6.38482677E+01   3072.47758287    5.84654437E-04   1.50517236E+20   6.20644956E+06   1.55733011E+08   2.36514652E+06   0.18545638      
  96               3.84546179E+02   7.06366817E+01   3130.77575699    6.34159325E-04   1.63419609E+20   5.47332322E+06   1.56472223E+08   2.01259410E+06   0.18313868      
  97               4.65541927E+02   7.83125214E+01   3189.55721889    6.89505405E-04   1.77838853E+20   4.79615589E+06   1.57170870E+08   1.64551377E+06   0.17993754      
  98               5.63597555E+02   8.70524036E+01   3250.73748069    7.51418741E-04   1.93965597E+20   4.24686958E+06   1.57765997E+08   1.26154285E+06   0.17855948      
  99               6.82306330E+02   9.70347883E+01   3314.01219951    8.20898683E-04   2.12079748E+20   3.74523433E+06   1.58351223E+08   8.59612182E+05   0.1770199       
  100              8.26018359E+02   1.08448416E+02   3379.69542548    8.98882877E-04   2.32418924E+20   3.28800360E+06   1.58975945E+08   4.39437642E+05   0.17528309      
  101              1.00000000E+03   1.21535935E+02   3447.41226502    9.86782195E-04   2.55350859E+20   3.06444785E+06   1.59350754E+08   0.00000000E+00   0.17411488      
