# ATMO pressure-temperature profile
# Effective temperature = 1700.0K
# log(g) = 5.0cm/s^2
# M/H = 0.0
# Optical depth grid in band 17 (1.20-1.33microns)
# All parameters in cgs units
#
# Model Level      Optical Depth    Pressure         Temperature      Density          Number Density   Rad Flux         Conv Flux        Radial Extension Adiabatic Gradient
#                                   [Ba]             [K]              [g/cm^3]         [/cm^3]          [ergs/s/cm^2/sr] [ergs/s/cm^2/sr] [cm]             [K/Ba]          
  1                1.00000000E-07   1.00000000E-05   468.81382129     6.04575204E-10   1.54498915E+14   4.73556715E+08   0.00000000E+00   7.63052078E+06   0.29800255      
  2                1.25892541E-07   1.82184554E-05   499.85054961     1.03305173E-09   2.63995922E+14   4.73556715E+08   0.00000000E+00   7.52652779E+06   0.2979949       
  3                1.58489319E-07   2.82152731E-05   514.39855231     1.55465918E-09   3.97292494E+14   4.73556715E+08   0.00000000E+00   7.44764485E+06   0.29795721      
  4                1.99526231E-07   4.05536413E-05   526.80315668     2.18188646E-09   5.57580178E+14   4.73556715E+08   0.00000000E+00   7.38065267E+06   0.29793451      
  5                2.51188643E-07   5.58287663E-05   537.80971892     2.94225312E-09   7.51891584E+14   4.73556715E+08   0.00000000E+00   7.32036498E+06   0.29785385      
  6                3.16227766E-07   7.47664216E-05   548.59543942     3.86282495E-09   9.87143391E+14   4.73556715E+08   0.00000000E+00   7.26419119E+06   0.29782808      
  7                3.98107171E-07   9.82623418E-05   558.71449143     4.98480040E-09   1.27386385E+15   4.73556715E+08   0.00000000E+00   7.21064655E+06   0.2977063       
  8                5.01187234E-07   1.27426154E-04   568.96942765     6.34775590E-09   1.62216671E+15   4.73556715E+08   0.00000000E+00   7.15880114E+06   0.29767471      
  9                6.30957344E-07   1.63631456E-04   578.81930868     8.01261538E-09   2.04762123E+15   4.73556715E+08   0.00000000E+00   7.10803491E+06   0.29773024      
  10               7.94328235E-07   2.08579722E-04   588.95986512     1.00377623E-08   2.56514680E+15   4.73556715E+08   0.00000000E+00   7.05791534E+06   0.29770528      
  11               1.00000000E-06   2.64375878E-04   598.83825581     1.25130366E-08   3.19770304E+15   4.73556715E+08   0.00000000E+00   7.00812965E+06   0.29751953      
  12               1.25892541E-06   3.33623371E-04   609.11320416     1.55242029E-08   3.96720179E+15   4.73556715E+08   0.00000000E+00   6.95844547E+06   0.29748969      
  13               1.58489319E-06   4.19538711E-04   619.20988448     1.92037048E-08   4.90749650E+15   4.73556715E+08   0.00000000E+00   6.90868625E+06   0.29728566      
  14               1.99526231E-06   5.26115891E-04   629.72988400     2.36797755E-08   6.05135952E+15   4.73556715E+08   0.00000000E+00   6.85870778E+06   0.2972499       
  15               2.51188643E-06   6.58347143E-04   640.05701339     2.91533523E-08   7.45010055E+15   4.73556715E+08   0.00000000E+00   6.80838074E+06   0.29702722      
  16               3.16227766E-06   8.22425934E-04   650.78852699     3.58186700E-08   9.15340647E+15   4.73556715E+08   0.00000000E+00   6.75760531E+06   0.29698456      
  17               3.98107171E-06   1.02602921E-03   661.28385608     4.39768261E-08   1.12382230E+16   4.73556715E+08   0.00000000E+00   6.70630522E+06   0.29673834      
  18               5.01187234E-06   1.27866924E-03   672.14915473     5.39192540E-08   1.37790223E+16   4.73556715E+08   0.00000000E+00   6.65442303E+06   0.29668782      
  19               6.30957344E-06   1.59211824E-03   682.77896363     6.60918828E-08   1.68896646E+16   4.73556715E+08   0.00000000E+00   6.60191555E+06   0.29641705      
  20               7.94328235E-06   1.98093353E-03   693.82471553     8.09230490E-08   2.06797830E+16   4.73556715E+08   0.00000000E+00   6.54874965E+06   0.29635906      
  21               1.00000000E-05   2.46308965E-03   704.65555439     9.90728735E-08   2.53179874E+16   4.73556715E+08   0.00000000E+00   6.49490108E+06   0.29606184      
  22               1.25892541E-05   3.06077161E-03   715.91893938     1.21176249E-07   3.09665563E+16   4.73556715E+08   0.00000000E+00   6.44035243E+06   0.29599443      
  23               1.58489319E-05   3.80135330E-03   726.97476247     1.48206958E-07   3.78743110E+16   4.73556715E+08   0.00000000E+00   6.38509001E+06   0.29566799      
  24               1.99526231E-05   4.71861614E-03   738.40078838     1.81121966E-07   4.62858599E+16   4.73556716E+08   0.00000000E+00   6.32910472E+06   0.29559222      
  25               2.51188643E-05   5.85424291E-03   749.51138018     2.21381066E-07   5.65741903E+16   4.73556716E+08   0.00000000E+00   6.27239208E+06   0.2952378       
  26               3.16227766E-05   7.25972809E-03   760.97205252     2.70394948E-07   6.90999109E+16   4.73556716E+08   0.00000000E+00   6.21494648E+06   0.2951546       
  27               3.98107171E-05   8.99950943E-03   772.14164982     3.30345452E-07   8.44204566E+16   4.73556717E+08   0.00000000E+00   6.15673466E+06   0.29477153      
  28               5.01187234E-05   1.11534469E-02   783.70896366     4.03366475E-07   1.03081358E+17   4.73556717E+08   0.00000000E+00   6.09772827E+06   0.29468108      
  29               6.30957344E-05   1.38199072E-02   795.13932850     4.92614558E-07   1.25888985E+17   4.73556718E+08   0.00000000E+00   6.03791030E+06   0.29426828      
  30               7.94328235E-05   1.71197544E-02   807.26325042     6.01072202E-07   1.53606003E+17   4.73556718E+08   0.00000000E+00   5.97726783E+06   0.29416481      
  31               1.00000000E-04   2.12011458E-02   819.31285254     7.33422388E-07   1.87428403E+17   4.73556719E+08   0.00000000E+00   5.91579717E+06   0.29380167      
  32               1.25892541E-04   2.62453300E-02   832.13713331     8.93923863E-07   2.28445694E+17   4.73556719E+08   0.00000000E+00   5.85350068E+06   0.29367404      
  33               1.58489319E-04   3.24731651E-02   845.22251421     1.08892571E-06   2.78278339E+17   4.73556719E+08   0.00000000E+00   5.79037764E+06   0.29322755      
  34               1.99526231E-04   4.01527167E-02   859.21096330     1.32451905E-06   3.38486198E+17   4.73556718E+08   0.00000000E+00   5.72643249E+06   0.29310953      
  35               2.51188643E-04   4.96066903E-02   873.61564310     1.60941087E-06   4.11287670E+17   4.73556716E+08   0.00000000E+00   5.66168064E+06   0.29257905      
  36               3.16227766E-04   6.12228864E-02   889.29592913     1.95124707E-06   4.98647144E+17   4.73556713E+08   0.00000000E+00   5.59613039E+06   0.29232964      
  37               3.98107171E-04   7.54638860E-02   905.65380980     2.36172160E-06   6.03535453E+17   4.73556708E+08   0.00000000E+00   5.52979115E+06   0.29162343      
  38               5.01187234E-04   9.28752369E-02   923.49894693     2.85044258E-06   7.28432593E+17   4.73556701E+08   0.00000000E+00   5.46268505E+06   0.29138045      
  39               6.30957344E-04   1.14113189E-01   942.31911206     3.43228633E-06   8.77129425E+17   4.73556691E+08   0.00000000E+00   5.39478584E+06   0.29071037      
  40               7.94328235E-04   1.39975685E-01   963.15793964     4.11904366E-06   1.05264257E+18   4.73556678E+08   0.00000000E+00   5.32600293E+06   0.29038637      
  41               1.00000000E-03   1.71392524E-01   985.30873401     4.93010585E-06   1.25992700E+18   4.73556662E+08   0.00000000E+00   5.25628633E+06   0.28948969      
  42               1.25892541E-03   2.09428848E-01   1009.87824719    5.87757499E-06   1.50208091E+18   4.73556640E+08   0.00000000E+00   5.18562669E+06   0.289035        
  43               1.58489319E-03   2.55307762E-01   1036.18681888    6.98313402E-06   1.78464482E+18   4.73556615E+08   0.00000000E+00   5.11401418E+06   0.28810188      
  44               1.99526231E-03   3.10402042E-01   1065.33354227    8.25763989E-06   2.11040015E+18   4.73556582E+08   0.00000000E+00   5.04146150E+06   0.28757878      
  45               2.51188643E-03   3.76193527E-01   1096.50003987    9.72327033E-06   2.48501209E+18   4.73556546E+08   0.00000000E+00   4.96803791E+06   0.28643117      
  46               3.16227766E-03   4.54260264E-01   1130.75528045    1.13851333E-05   2.90979212E+18   4.73556503E+08   0.00000000E+00   4.89384013E+06   0.28565981      
  47               3.98107171E-03   5.46528247E-01   1167.27302731    1.32689104E-05   3.39129838E+18   4.73556461E+08   0.00000000E+00   4.81877047E+06   0.28420538      
  48               5.01187234E-03   6.55299141E-01   1207.20824337    1.53831743E-05   3.93172601E+18   4.73556418E+08   0.00000000E+00   4.74263759E+06   0.28312396      
  49               6.30957344E-03   7.82954228E-01   1249.68081311    1.77549905E-05   4.53798558E+18   4.73556386E+08   0.00000000E+00   4.66539532E+06   0.28129235      
  50               7.94328235E-03   9.31943154E-01   1295.53274777    2.03854179E-05   5.21034963E+18   4.73556362E+08   0.00000000E+00   4.58708228E+06   0.27993297      
  51               1.00000000E-02   1.10496988E+00   1343.50607935    2.33069819E-05   5.95712405E+18   4.73556371E+08   0.00000000E+00   4.50770238E+06   0.278097        
  52               1.25892541E-02   1.30478710E+00   1394.27297533    2.65194777E-05   6.77825160E+18   4.73556408E+08   0.00000000E+00   4.42732983E+06   0.27671848      
  53               1.58489319E-02   1.53510239E+00   1446.66759700    3.00706373E-05   7.68589478E+18   4.73556489E+08   0.00000000E+00   4.34577117E+06   0.27448972      
  54               1.99526231E-02   1.79940627E+00   1501.42878270    3.39636692E-05   8.68061173E+18   4.73556615E+08   0.00000000E+00   4.26306639E+06   0.27277609      
  55               2.51188643E-02   2.10006657E+00   1557.02901297    3.82354753E-05   9.76927187E+18   4.73556798E+08   0.00000000E+00   4.17962723E+06   0.27045391      
  56               3.16227766E-02   2.43374500E+00   1613.95942577    4.27505940E-05   1.09221541E+19   4.73559302E+08   0.00000000E+00   4.09709392E+06   0.26876817      
  57               3.98107171E-02   2.78106324E+00   1672.61300767    4.71488592E-05   1.20431816E+19   4.72051382E+08   1.51101825E+06   4.01973104E+06   0.26640218      
  58               5.01187234E-02   3.12208686E+00   1724.68490500    5.13677001E-05   1.31117620E+19   4.68097580E+08   5.52979355E+06   3.95043081E+06   0.26439227      
  59               6.30957344E-02   3.43036082E+00   1768.03181923    5.50848035E-05   1.40532110E+19   4.62827535E+08   1.09620354E+07   3.89247644E+06   0.2626945       
  60               7.94328235E-02   3.70048737E+00   1803.43814541    5.82739893E-05   1.48622141E+19   4.57016966E+08   1.71050662E+07   3.84479690E+06   0.2611065       
  61               1.00000000E-01   3.92594388E+00   1831.44134122    6.08789841E-05   1.55266196E+19   4.51304694E+08   2.32392193E+07   3.80694463E+06   0.25970056      
  62               1.25892541E-01   4.18966034E+00   1862.53879820    6.38800456E-05   1.62929351E+19   4.44098006E+08   3.04924149E+07   3.76465623E+06   0.25836275      
  63               1.58489319E-01   4.39471225E+00   1885.60338362    6.62458190E-05   1.68813018E+19   4.37298277E+08   3.67631358E+07   3.73313106E+06   0.25743545      
  64               1.99526231E-01   4.54743073E+00   1902.25009464    6.79468032E-05   1.73150726E+19   4.31507652E+08   4.20501403E+07   3.71036814E+06   0.25666266      
  65               2.51188643E-01   4.73107536E+00   1921.63954985    6.99758892E-05   1.78325634E+19   4.25057787E+08   4.84858251E+07   3.68373517E+06   0.25579769      
  66               3.16227766E-01   4.95027534E+00   1944.00850353    7.23733694E-05   1.84440816E+19   4.17575920E+08   5.59544934E+07   3.65293330E+06   0.25472139      
  67               3.98107171E-01   5.20972883E+00   1969.40288601    7.51816382E-05   1.91604802E+19   4.08778013E+08   6.47208240E+07   3.61775988E+06   0.25349268      
  68               5.01187234E-01   5.51408305E+00   1997.90205082    7.84349336E-05   1.99905595E+19   3.98573209E+08   7.48545155E+07   3.57812577E+06   0.25198905      
  69               6.30957344E-01   5.86997793E+00   2029.52614603    8.21911110E-05   2.09492103E+19   3.87074405E+08   8.62879983E+07   3.53380012E+06   0.25031045      
  70               7.94328235E-01   6.28590604E+00   2064.51200214    8.65163741E-05   2.20534385E+19   3.74060627E+08   9.92593104E+07   3.48447622E+06   0.24831906      
  71               1.00000000E+00   6.76934534E+00   2102.66598155    9.14701393E-05   2.33185865E+19   3.59120712E+08   1.14152603E+08   3.43013190E+06   0.24610152      
  72               1.25892541E+00   7.32851865E+00   2143.98653857    9.71046233E-05   2.47582522E+19   3.42004454E+08   1.31220127E+08   3.37080002E+06   0.24354644      
  73               1.58489319E+00   7.97260970E+00   2188.15363198    1.03489508E-04   2.63905555E+19   3.22604730E+08   1.50569017E+08   3.30654888E+06   0.24078877      
  74               1.99526231E+00   8.71187385E+00   2235.15165954    1.10684658E-04   2.82312704E+19   3.00838785E+08   1.72283130E+08   3.23747562E+06   0.23761093      
  75               2.51188643E+00   9.55784426E+00   2284.51971374    1.18777543E-04   3.03033665E+19   2.76733991E+08   1.96338110E+08   3.16369421E+06   0.2341309       
  76               3.16227766E+00   1.05229893E+01   2336.22849877    1.27849077E-04   3.26249347E+19   2.50594182E+08   2.22430222E+08   3.08537059E+06   0.2302961       
  77               3.98107171E+00   1.16220056E+01   2389.76478110    1.37984675E-04   3.52250617E+19   2.23353210E+08   2.49628114E+08   3.00262519E+06   0.22627815      
  78               5.01187234E+00   1.28719570E+01   2445.22704466    1.49288344E-04   3.81286324E+19   1.95963500E+08   2.76981762E+08   2.91553496E+06   0.22199395      
  79               6.30957344E+00   1.42915785E+01   2502.03471706    1.61899206E-04   4.13725897E+19   1.69341006E+08   3.03573625E+08   2.82421986E+06   0.21759444      
  80               7.94328235E+00   1.59025621E+01   2560.36887411    1.75928080E-04   4.49873487E+19   1.44617656E+08   3.28275011E+08   2.72876295E+06   0.21296606      
  81               1.00000000E+01   1.77294519E+01   2619.59027582    1.91557753E-04   4.90216336E+19   1.22800353E+08   3.50082134E+08   2.62924492E+06   0.20830624      
  82               1.25892541E+01   1.98000175E+01   2680.00774083    2.08920988E-04   5.35125154E+19   1.04179209E+08   3.68704493E+08   2.52574125E+06   0.20369273      
  83               1.58489319E+01   2.21454017E+01   2741.00994710    2.28238482E-04   5.85192553E+19   8.83777621E+07   3.84518322E+08   2.41833321E+06   0.19892521      
  84               1.99526231E+01   2.48004694E+01   2802.80281855    2.49683673E-04   6.40904314E+19   7.50769533E+07   3.97838761E+08   2.30711010E+06   0.19443531      
  85               2.51188643E+01   2.78036939E+01   2865.01602073    2.73495434E-04   7.02912527E+19   6.37560690E+07   4.09184753E+08   2.19218176E+06   0.1901735       
  86               3.16227766E+01   3.11972961E+01   2927.83796675    2.99872928E-04   7.71783973E+19   5.41390671E+07   4.18830983E+08   2.07367931E+06   0.1860631       
  87               3.98107171E+01   3.50271274E+01   2990.83004013    3.29093048E-04   8.48278828E+19   4.59893038E+07   4.27014260E+08   1.95176294E+06   0.18221592      
  88               5.01187234E+01   3.93426342E+01   3054.26448659    3.61362340E-04   9.33002124E+19   3.89982292E+07   4.34044569E+08   1.82661843E+06   0.17849758      
  89               6.30957344E+01   4.41922028E+01   3117.53470551    3.96965448E-04   1.02673932E+20   3.29281183E+07   4.40160249E+08   1.69857238E+06   0.17503702      
  90               7.94328235E+01   4.96268167E+01   3180.98262751    4.36066840E-04   1.13000655E+20   2.77114626E+07   4.45428025E+08   1.56794720E+06   0.17191556      
  91               1.00000000E+02   5.57021355E+01   3244.10429395    4.78975957E-04   1.24366347E+20   2.32190635E+07   4.49977774E+08   1.43500995E+06   0.16903018      
  92               1.25892541E+02   6.24796775E+01   3307.26843320    5.25894913E-04   1.36834363E+20   1.94437832E+07   4.53817916E+08   1.29996544E+06   0.16642132      
  93               1.58489319E+02   7.00265292E+01   3370.05329250    5.77185235E-04   1.50505258E+20   1.63064647E+07   4.57028754E+08   1.16298152E+06   0.16414909      
  94               1.99526231E+02   7.84169457E+01   3432.94879518    6.33067834E-04   1.65450634E+20   1.36997645E+07   4.59719428E+08   1.02417443E+06   0.16209161      
  95               2.51188643E+02   8.77346370E+01   3495.48873600    6.94005657E-04   1.81797964E+20   1.15096753E+07   4.62006251E+08   8.83598059E+05   0.16027243      
  96               3.16227766E+02   9.80743631E+01   3558.26249476    7.60276822E-04   1.99638066E+20   9.67489722E+06   4.63952026E+08   7.41249750E+05   0.15867276      
  97               3.98107171E+02   1.09543554E+02   3620.82282136    8.32466578E-04   2.19131793E+20   8.11627104E+06   4.65637053E+08   5.97080079E+05   0.1572337       
  98               5.01187234E+02   1.22264735E+02   3683.77567169    9.10947866E-04   2.40399673E+20   6.80564437E+06   4.67090796E+08   4.50994372E+05   0.15594941      
  99               6.30957344E+02   1.36376351E+02   3746.68240911    9.96457035E-04   2.63644080E+20   5.71078554E+06   4.68345091E+08   3.02875302E+05   0.15486939      
  100              7.94328235E+02   1.52033783E+02   3810.22352801    1.08943773E-03   2.89011742E+20   4.80510333E+06   4.69424987E+08   1.52595551E+05   0.15393643      
  101              1.00000000E+03   1.69413984E+02   3873.91260770    1.19081418E-03   3.16756311E+20   4.38071478E+06   4.69978887E+08   0.00000000E+00   0.15314272      
