# ATMO pressure-temperature profile
# Effective temperature = 1200.0K
# log(g) = 5.5cm/s^2
# M/H = 0.0
# Optical depth grid in band 17 (1.20-1.33microns)
# All parameters in cgs units
#
# Model Level      Optical Depth    Pressure         Temperature      Density          Number Density   Rad Flux         Conv Flux        Radial Extension Adiabatic Gradient
#                                   [Ba]             [K]              [g/cm^3]         [/cm^3]          [ergs/s/cm^2/sr] [ergs/s/cm^2/sr] [cm]             [K/Ba]          
  1                1.00000000E-07   1.00000000E-05   321.49729954     8.81236765E-10   2.25293421E+14   1.17581510E+08   0.00000000E+00   1.98698051E+06   0.30052969      
  2                1.25892541E-07   2.35017398E-05   363.39906601     1.83225312E-09   4.68427137E+14   1.17581510E+08   0.00000000E+00   1.95337962E+06   0.29880297      
  3                1.58489319E-07   3.98017407E-05   367.20149372     3.07091010E-09   7.85097269E+14   1.17581510E+08   0.00000000E+00   1.93164954E+06   0.29859899      
  4                1.99526231E-07   6.00045766E-05   381.53407771     4.45574259E-09   1.13913942E+15   1.17581510E+08   0.00000000E+00   1.91437849E+06   0.29825223      
  5                2.51188643E-07   8.51268273E-05   381.42251207     6.32321378E-09   1.61653817E+15   1.17581510E+08   0.00000000E+00   1.89941163E+06   0.29821479      
  6                3.16227766E-07   1.16425687E-04   393.83339983     8.37556134E-09   2.14122401E+15   1.17581510E+08   0.00000000E+00   1.88581120E+06   0.29798596      
  7                3.98107171E-07   1.55419792E-04   393.53164050     1.11893404E-08   2.86056951E+15   1.17581510E+08   0.00000000E+00   1.87307353E+06   0.30011149      
  8                5.01187234E-07   2.04035148E-04   405.30777250     1.42625700E-08   3.64624541E+15   1.17581511E+08   0.00000000E+00   1.86090404E+06   0.29997959      
  9                6.30957344E-07   2.64614859E-04   405.42502648     1.84919010E-08   4.72747796E+15   1.17581511E+08   0.00000000E+00   1.84910797E+06   0.29996662      
  10               7.94328235E-07   3.40120839E-04   417.07534571     2.31044980E-08   5.90669523E+15   1.17581511E+08   0.00000000E+00   1.83755636E+06   0.29985746      
  11               1.00000000E-06   4.34159296E-04   417.87182509     2.94363654E-08   7.52543925E+15   1.17581511E+08   0.00000000E+00   1.82615347E+06   0.29984248      
  12               1.25892541E-06   5.51302126E-04   429.60925358     3.63574386E-08   9.29483918E+15   1.17581511E+08   0.00000000E+00   1.81483006E+06   0.29974886      
  13               1.58489319E-06   6.97145548E-04   431.13981137     4.58151891E-08   1.17120029E+16   1.17581511E+08   0.00000000E+00   1.80352978E+06   0.29973134      
  14               1.99526231E-06   8.78725388E-04   443.13838049     5.61850468E-08   1.43628177E+16   1.17581511E+08   0.00000000E+00   1.79221221E+06   0.29965092      
  15               2.51188643E-06   1.10458606E-03   445.58687690     7.02383371E-08   1.79553141E+16   1.17581511E+08   0.00000000E+00   1.78084266E+06   0.29963322      
  16               3.16227766E-06   1.38579269E-03   456.84901805     8.59473620E-08   2.19710802E+16   1.17581512E+08   0.00000000E+00   1.76939749E+06   0.29956441      
  17               3.98107171E-06   1.73581721E-03   459.51035067     1.07032529E-07   2.73611615E+16   1.17581512E+08   0.00000000E+00   1.75785700E+06   0.29954854      
  18               5.01187234E-06   2.17153688E-03   470.79252713     1.30690699E-07   3.34090009E+16   1.17581512E+08   0.00000000E+00   1.74620698E+06   0.29948781      
  19               6.30957344E-06   2.71379228E-03   473.58482318     1.62362594E-07   4.15054060E+16   1.17581513E+08   0.00000000E+00   1.73443529E+06   0.29947258      
  20               7.94328235E-06   3.38863430E-03   484.89461966     1.98008773E-07   5.06177896E+16   1.17581513E+08   0.00000000E+00   1.72253338E+06   0.29941504      
  21               1.00000000E-05   4.22829509E-03   487.74561286     2.45628719E-07   6.27910516E+16   1.17581514E+08   0.00000000E+00   1.71049350E+06   0.29940002      
  22               1.25892541E-05   5.27292196E-03   499.14793192     2.99315524E-07   7.65152334E+16   1.17581516E+08   0.00000000E+00   1.69831042E+06   0.29934557      
  23               1.58489319E-05   6.57210715E-03   502.09399261     3.70874460E-07   9.48081015E+16   1.17581517E+08   0.00000000E+00   1.68597957E+06   0.29933075      
  24               1.99526231E-05   8.18741275E-03   513.82425884     4.51480862E-07   1.15413848E+17   1.17581520E+08   0.00000000E+00   1.67349650E+06   0.2992757       
  25               2.51188643E-05   1.01953157E-02   516.93415701     5.58821191E-07   1.42853632E+17   1.17581523E+08   0.00000000E+00   1.66085535E+06   0.29926017      
  26               3.16227766E-05   1.26909054E-02   528.96168702     6.79791544E-07   1.73777774E+17   1.17581527E+08   0.00000000E+00   1.64805125E+06   0.29920451      
  27               3.98107171E-05   1.57919497E-02   532.26271799     8.40653913E-07   2.14899569E+17   1.17581531E+08   0.00000000E+00   1.63507912E+06   0.29923289      
  28               5.01187234E-05   1.96445566E-02   544.63101564     1.02199165E-06   2.61255655E+17   1.17581537E+08   0.00000000E+00   1.62193527E+06   0.29916608      
  29               6.30957344E-05   2.44290381E-02   548.07775603     1.26290842E-06   3.22842001E+17   1.17581543E+08   0.00000000E+00   1.60861769E+06   0.29908973      
  30               7.94328235E-05   3.03683101E-02   560.91106066     1.53403137E-06   3.92150219E+17   1.17581551E+08   0.00000000E+00   1.59512402E+06   0.29901288      
  31               1.00000000E-04   3.77362677E-02   564.85033674     1.89292482E-06   4.83895287E+17   1.17581561E+08   0.00000000E+00   1.58145104E+06   0.29902171      
  32               1.25892541E-04   4.68677136E-02   578.64733619     2.29492006E-06   5.86658880E+17   1.17581572E+08   0.00000000E+00   1.56759659E+06   0.29897144      
  33               1.58489319E-04   5.81697600E-02   583.63555576     2.82399203E-06   7.21907194E+17   1.17581585E+08   0.00000000E+00   1.55355742E+06   0.29894308      
  34               1.99526231E-04   7.21393748E-02   598.96976699     3.41252103E-06   8.72355115E+17   1.17581601E+08   0.00000000E+00   1.53932709E+06   0.29883678      
  35               2.51188643E-04   8.93750969E-02   605.43324454     4.18271512E-06   1.06924222E+18   1.17581618E+08   0.00000000E+00   1.52490053E+06   0.29878076      
  36               3.16227766E-04   1.10601987E-01   622.38849641     5.03511392E-06   1.28714423E+18   1.17581638E+08   0.00000000E+00   1.51027362E+06   0.29865234      
  37               3.98107171E-04   1.36701584E-01   630.50551989     6.14317254E-06   1.57040075E+18   1.17581658E+08   0.00000000E+00   1.49543366E+06   0.29858718      
  38               5.01187234E-04   1.68757560E-01   649.24296603     7.36485060E-06   1.88270304E+18   1.17581680E+08   0.00000000E+00   1.48036305E+06   0.29844884      
  39               6.30957344E-04   2.08056990E-01   659.28328606     8.94166308E-06   2.28578872E+18   1.17581703E+08   0.00000000E+00   1.46504882E+06   0.29834798      
  40               7.94328235E-04   2.56157692E-01   680.18545647     1.06705807E-05   2.72775839E+18   1.17581723E+08   0.00000000E+00   1.44947669E+06   0.29810672      
  41               1.00000000E-03   3.14899321E-01   692.80045049     1.28786874E-05   3.29222420E+18   1.17581734E+08   0.00000000E+00   1.43363081E+06   0.29796007      
  42               1.25892541E-03   3.86461932E-01   716.38950070     1.52850111E-05   3.90735930E+18   1.17581738E+08   0.00000000E+00   1.41750144E+06   0.29773666      
  43               1.58489319E-03   4.73357791E-01   732.01596208     1.83221826E-05   4.68376199E+18   1.17581730E+08   0.00000000E+00   1.40108127E+06   0.29754902      
  44               1.99526231E-03   5.78594864E-01   758.75947864     2.16062575E-05   5.52327013E+18   1.17581711E+08   0.00000000E+00   1.38435533E+06   0.29715752      
  45               2.51188643E-03   7.05625112E-01   777.98127189     2.56989781E-05   6.56947593E+18   1.17581684E+08   0.00000000E+00   1.36730787E+06   0.29680771      
  46               3.16227766E-03   8.58670956E-01   808.39258903     3.00966437E-05   7.69361216E+18   1.17581665E+08   0.00000000E+00   1.34990563E+06   0.29628276      
  47               3.98107171E-03   1.04259649E+00   831.92393129     3.55096358E-05   9.07733746E+18   1.17581648E+08   0.00000000E+00   1.33211424E+06   0.29583737      
  48               5.01187234E-03   1.26305967E+00   866.79898638     4.12875360E-05   1.05543457E+19   1.17581620E+08   0.00000000E+00   1.31390660E+06   0.29516625      
  49               6.30957344E-03   1.52597968E+00   895.25032923     4.82967474E-05   1.23461089E+19   1.17581565E+08   0.00000000E+00   1.29528765E+06   0.29452552      
  50               7.94328235E-03   1.83774859E+00   934.72802719     5.57077284E-05   1.42405471E+19   1.17581476E+08   0.00000000E+00   1.27628053E+06   0.29358489      
  51               1.00000000E-02   2.20617964E+00   968.06097566     6.45736505E-05   1.65068422E+19   1.17581283E+08   0.00000000E+00   1.25685508E+06   0.29272731      
  52               1.25892541E-02   2.64074786E+00   1012.19330721    7.39252428E-05   1.88968456E+19   1.17580914E+08   0.00000000E+00   1.23696506E+06   0.29159258      
  53               1.58489319E-02   3.15131352E+00   1050.05282436    8.50371232E-05   2.17373353E+19   1.17580319E+08   0.00000000E+00   1.21660162E+06   0.2905071       
  54               1.99526231E-02   3.74904537E+00   1097.81558218    9.67647131E-05   2.47352979E+19   1.17579632E+08   0.00000000E+00   1.19576421E+06   0.28905868      
  55               2.51188643E-02   4.44791851E+00   1138.71302295    1.10679104E-04   2.82923078E+19   1.17578909E+08   0.00000000E+00   1.17440884E+06   0.28769725      
  56               3.16227766E-02   5.26526010E+00   1188.92108974    1.25483069E-04   3.20769184E+19   1.17578163E+08   0.00000000E+00   1.15247684E+06   0.28600297      
  57               3.98107171E-02   6.22027624E+00   1231.84488805    1.43076304E-04   3.65745916E+19   1.17577387E+08   0.00000000E+00   1.12993785E+06   0.28443962      
  58               5.01187234E-02   7.33350803E+00   1283.91921097    1.61838696E-04   4.13713711E+19   1.17576627E+08   0.00000000E+00   1.10680332E+06   0.28255606      
  59               6.30957344E-02   8.63029856E+00   1328.49630008    1.84066118E-04   4.70534325E+19   1.17575844E+08   0.00000000E+00   1.08304357E+06   0.28080944      
  60               7.94328235E-02   1.01412775E+01   1382.37075943    2.07866304E-04   5.31366252E+19   1.17575026E+08   0.00000000E+00   1.05861603E+06   0.27874967      
  61               1.00000000E-01   1.19052832E+01   1428.63421945    2.36132508E-04   6.03593454E+19   1.17574120E+08   0.00000000E+00   1.03343748E+06   0.27689305      
  62               1.25892541E-01   1.39809175E+01   1484.42226055    2.66893835E-04   6.82187967E+19   1.17573143E+08   0.00000000E+00   1.00729143E+06   0.27472202      
  63               1.58489319E-01   1.64385007E+01   1532.50820696    3.03963072E-04   7.76935983E+19   1.17572214E+08   0.00000000E+00   9.80005923E+05   0.27277986      
  64               1.99526231E-01   1.93633018E+01   1590.05294340    3.45080866E-04   8.82050942E+19   1.17571563E+08   0.00000000E+00   9.51447633E+05   0.2706045       
  65               2.51188643E-01   2.27761954E+01   1639.46956092    3.93687590E-04   1.00624483E+20   1.17571300E+08   0.00000000E+00   9.22166126E+05   0.26870716      
  66               3.16227766E-01   2.66287106E+01   1698.36240602    4.44475877E-04   1.13565289E+20   1.17571339E+08   0.00000000E+00   8.93040794E+05   0.26656818      
  67               3.98107171E-01   3.08329325E+01   1749.70313742    4.99561412E-04   1.27636916E+20   1.17635237E+08   0.00000000E+00   8.64826422E+05   0.26464524      
  68               5.01187234E-01   3.52598336E+01   1812.46530977    5.51667035E-04   1.40908241E+20   1.16815630E+08   7.53212748E+05   8.38158832E+05   0.26238211      
  69               6.30957344E-01   3.95707622E+01   1868.08243435    6.01135038E-04   1.53427857E+20   1.10155821E+08   7.25153477E+06   8.14484770E+05   0.26050721      
  70               7.94328235E-01   4.35410110E+01   1914.86028830    6.45769048E-04   1.64697594E+20   1.01323189E+08   1.59923418E+07   7.94333085E+05   0.2586214       
  71               1.00000000E+00   4.70125760E+01   1953.22102627    6.83541835E-04   1.74336570E+20   9.27326699E+07   2.45240594E+07   7.77809482E+05   0.25712073      
  72               1.25892541E+00   5.10057921E+01   1994.37554395    7.26263513E-04   1.85241546E+20   8.35327778E+07   3.37507054E+07   7.59887180E+05   0.2555647       
  73               1.58489319E+00   5.44327517E+01   2027.76395619    7.62508031E-04   1.94432441E+20   7.36458935E+07   4.37480664E+07   7.45323965E+05   0.25436133      
  74               1.99526231E+00   5.72373791E+01   2053.71688978    7.91643830E-04   2.01866849E+20   6.54970998E+07   5.19951631E+07   7.33908639E+05   0.25302509      
  75               2.51188643E+00   6.05521789E+01   2083.17130120    8.25623972E-04   2.10538067E+20   5.87795317E+07   5.87325799E+07   7.20942772E+05   0.25206283      
  76               3.16227766E+00   6.44413404E+01   2116.01268293    8.64952837E-04   2.20583050E+20   5.10904173E+07   6.64257607E+07   7.06389220E+05   0.25114673      
  77               3.98107171E+00   6.75053803E+01   2140.82682885    8.96313195E-04   2.28392948E+20   4.32506512E+07   7.42335553E+07   6.95383580E+05   0.25063712      
  78               5.01187234E+00   6.98729229E+01   2159.36943345    9.19759410E-04   2.34373120E+20   3.80480217E+07   7.93944547E+07   6.87137816E+05   0.24979042      
  79               6.30957344E+00   7.27346078E+01   2181.10020448    9.47860698E-04   2.41541257E+20   3.51082111E+07   8.23157654E+07   6.77445833E+05   0.24907963      
  80               7.94328235E+00   7.61729654E+01   2206.30552167    9.81290854E-04   2.50069687E+20   3.28503307E+07   8.45563342E+07   6.66171778E+05   0.24794083      
  81               1.00000000E+01   8.02790145E+01   2235.13027509    1.02080144E-03   2.60150719E+20   3.08424369E+07   8.65485338E+07   6.53198344E+05   0.24687726      
  82               1.25892541E+01   8.51523800E+01   2267.84713777    1.06708638E-03   2.71962392E+20   2.88473405E+07   8.85304826E+07   6.38432475E+05   0.24539416      
  83               1.58489319E+01   9.09022578E+01   2304.34608261    1.12101377E-03   2.85728002E+20   2.67943833E+07   9.05733976E+07   6.21807769E+05   0.24395826      
  84               1.99526231E+01   9.76473561E+01   2344.88068670    1.18339012E-03   3.01623780E+20   2.46480458E+07   9.27135714E+07   6.03288097E+05   0.24207762      
  85               2.51188643E+01   1.05520638E+02   2389.05220085    1.25502270E-03   3.19917214E+20   2.24920710E+07   9.48673299E+07   5.82858157E+05   0.24025063      
  86               3.16227766E+01   1.14670704E+02   2437.18587505    1.33672957E-03   3.40792215E+20   2.03407039E+07   9.70208501E+07   5.60518424E+05   0.23795133      
  87               3.98107171E+01   1.25265270E+02   2488.58081837    1.42983359E-03   3.64590013E+20   1.82459238E+07   9.91207168E+07   5.36284693E+05   0.23569686      
  88               5.01187234E+01   1.37494339E+02   2543.72128217    1.53508260E-03   3.91508444E+20   1.62780939E+07   1.01095794E+08   5.10181911E+05   0.23300942      
  89               6.30957344E+01   1.51587084E+02   2601.67237535    1.65431323E-03   4.22022333E+20   1.44543369E+07   1.02928687E+08   4.82216366E+05   0.23032252      
  90               7.94328235E+01   1.67812569E+02   2663.18834146    1.78854047E-03   4.56402952E+20   1.27702192E+07   1.04623372E+08   4.52387113E+05   0.22727899      
  91               1.00000000E+02   1.86488208E+02   2727.12827441    1.94028577E-03   4.95303788E+20   1.12073009E+07   1.06197514E+08   4.20684383E+05   0.22426852      
  92               1.25892541E+02   2.07987524E+02   2794.51776964    2.11087377E-03   5.39083760E+20   9.77207452E+06   1.07644722E+08   3.87090145E+05   0.22083616      
  93               1.58489319E+02   2.32752239E+02   2863.91201671    2.30381446E-03   5.88653912E+20   8.46872648E+06   1.08960392E+08   3.51577493E+05   0.21774367      
  94               1.99526231E+02   2.61302272E+02   2936.88421436    2.52063251E-03   6.44439572E+20   7.33676214E+06   1.10105812E+08   3.14111813E+05   0.21454505      
  95               2.51188643E+02   2.94250265E+02   3011.65723676    2.76609454E-03   7.07680387E+20   6.34983715E+06   1.11111135E+08   2.74652747E+05   0.21115976      
  96               3.16227766E+02   3.32284021E+02   3089.76191059    3.04223544E-03   7.78951255E+20   5.48038350E+06   1.12007201E+08   2.33191119E+05   0.20751051      
  97               3.98107171E+02   3.76079868E+02   3168.97451888    3.35415014E-03   8.59581734E+20   4.68272426E+06   1.12839834E+08   1.89834761E+05   0.20401591      
  98               5.01187234E+02   4.26364221E+02   3250.97987118    3.70293274E-03   9.49931550E+20   3.96586123E+06   1.13602375E+08   1.44713925E+05   0.20046584      
  99               6.30957344E+02   4.83921068E+02   3333.25718275    4.09454799E-03   1.05155392E+21   3.31076095E+06   1.14320932E+08   9.79695085E+04   0.19718932      
  100              7.94328235E+02   5.49674290E+02   3417.97822888    4.53002475E-03   1.16482846E+21   2.74886062E+06   1.14972308E+08   4.96888442E+04   0.19422989      
  101              1.00000000E+03   6.24576393E+02   3502.61003688    5.01635978E-03   1.29157496E+21   2.47363103E+06   1.15310759E+08   0.00000000E+00   0.19146362      
