# ATMO pressure-temperature profile
# Effective temperature = 500.0K
# log(g) = 5.5cm/s^2
# M/H = 0.0
# Optical depth grid in band 17 (1.20-1.33microns)
# All parameters in cgs units
#
# Model Level      Optical Depth    Pressure         Temperature      Density          Number Density   Rad Flux         Conv Flux        Radial Extension Adiabatic Gradient
#                                   [Ba]             [K]              [g/cm^3]         [/cm^3]          [ergs/s/cm^2/sr] [ergs/s/cm^2/sr] [cm]             [K/Ba]          
  1                8.00000000E-07   1.00000000E-05   47.55654727      5.96142287E-09   1.52305478E+15   3.54356497E+06   0.00000000E+00   1.12387200E+06   0.34574497      
  2                9.86413681E-07   7.56926624E-05   59.22330175      3.62344284E-08   9.25735685E+15   3.54356497E+06   0.00000000E+00   1.10973747E+06   0.34574497      
  3                1.21626494E-06   1.56555874E-04   65.61880453      6.76396424E-08   1.72809213E+16   3.54356497E+06   0.00000000E+00   1.10457224E+06   0.31479386      
  4                1.49967547E-06   2.56090081E-04   71.07155224      1.02154430E-07   2.60989356E+16   3.54356497E+06   0.00000000E+00   1.10078570E+06   0.31481042      
  5                1.84912550E-06   3.78045379E-04   75.47585692      1.42002546E-07   3.62795357E+16   3.54356497E+06   0.00000000E+00   1.09758368E+06   0.31482427      
  6                2.28000336E-06   5.25896342E-04   79.36380376      1.87861561E-07   4.79958309E+16   3.54356497E+06   0.00000000E+00   1.09472110E+06   0.31483657      
  7                2.81128314E-06   7.04549317E-04   82.98415413      2.40700215E-07   6.14953201E+16   3.54356497E+06   0.00000000E+00   1.09206434E+06   0.31484789      
  8                3.46636019E-06   9.20224801E-04   86.75578182      3.00715461E-07   7.68283216E+16   3.54356497E+06   0.00000000E+00   1.08952930E+06   0.31485859      
  9                4.27408139E-06   1.18090690E-03   90.76126796      3.68871716E-07   9.42412297E+16   3.54356497E+06   0.00000000E+00   1.08705418E+06   0.3148689       
  10               5.27001545E-06   1.49618267E-03   95.04622120      4.46282663E-07   1.14018574E+17   3.54356497E+06   0.00000000E+00   1.08459694E+06   0.31487899      
  11               6.49801917E-06   1.87788824E-03   99.28293618      5.36235277E-07   1.37000127E+17   3.54356497E+06   0.00000000E+00   1.08212950E+06   0.31488897      
  12               8.01216876E-06   2.34047462E-03   103.70071979     6.39855075E-07   1.63473742E+17   3.54356497E+06   0.00000000E+00   1.07963218E+06   0.31489892      
  13               9.87914110E-06   2.90141954E-03   108.11034004     7.60852910E-07   1.94387860E+17   3.54356497E+06   0.00000000E+00   1.07708987E+06   0.31490892      
  14               1.21811499E-05   3.58213480E-03   112.79711607     9.00316325E-07   2.30022208E+17   3.54356497E+06   0.00000000E+00   1.07448901E+06   0.31627371      
  15               1.50195662E-05   4.40850798E-03   117.55872619     1.06305980E-06   2.71620534E+17   3.54356497E+06   0.00000000E+00   1.07181785E+06   0.31782085      
  16               1.85193820E-05   5.41174149E-03   122.67293332     1.25068705E-06   3.19531834E+17   3.54356497E+06   0.00000000E+00   1.06906648E+06   0.32142087      
  17               2.28347147E-05   6.62939616E-03   127.90390794     1.46943671E-06   3.75418783E+17   3.54356497E+06   0.00000000E+00   1.06622611E+06   0.32240804      
  18               2.81555937E-05   8.10727018E-03   133.39605710     1.72302818E-06   4.40207556E+17   3.54356497E+06   0.00000000E+00   1.06328903E+06   0.32459974      
  19               3.47163285E-05   9.90115491E-03   138.99450821     2.01952364E-06   5.15957647E+17   3.54356497E+06   0.00000000E+00   1.06024798E+06   0.32511226      
  20               4.28058268E-05   1.20781343E-02   144.94266048     2.36245939E-06   6.03572528E+17   3.54356497E+06   0.00000000E+00   1.05709626E+06   0.32595158      
  21               5.27803164E-05   1.47196012E-02   150.96104021     2.76434272E-06   7.06247629E+17   3.54356497E+06   0.00000000E+00   1.05382762E+06   0.32570929      
  22               6.50790328E-05   1.79241782E-02   157.35577536     3.22936603E-06   8.25054059E+17   3.54356497E+06   0.00000000E+00   1.05043593E+06   0.32496654      
  23               8.02435604E-05   2.18114913E-02   163.81331091     3.77482500E-06   9.64410679E+17   3.54356497E+06   0.00000000E+00   1.04691512E+06   0.32484623      
  24               9.89416822E-05   2.65262319E-02   170.66551682     4.40646430E-06   1.12578542E+18   3.54356497E+06   0.00000000E+00   1.04325947E+06   0.32411817      
  25               1.21996786E-04   3.22428639E-02   177.53931140     5.14871710E-06   1.31542145E+18   3.54356497E+06   0.00000000E+00   1.03946418E+06   0.32365491      
  26               1.50424124E-04   3.91715995E-02   184.78702024     6.00977672E-06   1.53541466E+18   3.54356497E+06   0.00000000E+00   1.03552527E+06   0.32198303      
  27               1.85475517E-04   4.75650949E-02   192.05480288     7.02130403E-06   1.79386202E+18   3.54356497E+06   0.00000000E+00   1.03143921E+06   0.32121528      
  28               2.28694484E-04   5.77243116E-02   199.82035500     8.18889963E-06   2.09240079E+18   3.54356497E+06   0.00000000E+00   1.02720241E+06   0.31889244      
  29               2.81984210E-04   7.00126920E-02   207.51674926     9.56499899E-06   2.44370885E+18   3.54356497E+06   0.00000000E+00   1.02281165E+06   0.31795404      
  30               3.47691354E-04   8.48658553E-02   215.64339194     1.11502540E-05   2.85051071E+18   3.54356497E+06   0.00000000E+00   1.01826351E+06   0.3156471       
  31               4.28709385E-04   1.02810578E-01   223.63612908     1.30334566E-05   3.32982701E+18   3.54356497E+06   0.00000000E+00   1.01355629E+06   0.31469063      
  32               5.28606003E-04   1.24493097E-01   231.94187966     1.52169520E-05   3.88769277E+18   3.54356497E+06   0.00000000E+00   1.00868755E+06   0.31260444      
  33               6.51780242E-04   1.50686239E-01   240.02820306     1.77981605E-05   4.54712780E+18   3.54356497E+06   0.00000000E+00   1.00365445E+06   0.31175341      
  34               8.03656185E-04   1.82330598E-01   248.45123329     2.08056935E-05   5.31550141E+18   3.54356497E+06   0.00000000E+00   9.98454274E+05   0.31001334      
  35               9.90921819E-04   2.20588870E-01   256.82069598     2.43510323E-05   6.22127526E+18   3.54356497E+06   0.00000000E+00   9.93079310E+05   0.30923457      
  36               1.22182355E-03   2.66856201E-01   265.70173404     2.84738839E-05   7.27459384E+18   3.54356497E+06   0.00000000E+00   9.87522924E+05   0.30769523      
  37               1.50652933E-03   3.22813739E-01   274.63916879     3.33237091E-05   8.51364180E+18   3.54356497E+06   0.00000000E+00   9.81778340E+05   0.30699519      
  38               1.85757643E-03   3.90472611E-01   284.15447210     3.89582896E-05   9.95318143E+18   3.54356497E+06   0.00000000E+00   9.75840231E+05   0.30576082      
  39               2.29042351E-03   4.72240805E-01   293.85147764     4.55616488E-05   1.16402276E+19   3.54356497E+06   0.00000000E+00   9.69702827E+05   0.30519325      
  40               2.82413135E-03   5.71022316E-01   304.27227959     5.32052508E-05   1.35930380E+19   3.54356497E+06   0.00000000E+00   9.63358308E+05   0.30416924      
  41               3.48220225E-03   6.90258428E-01   315.07853518     6.21093098E-05   1.58678739E+19   3.54356497E+06   0.00000000E+00   9.56799088E+05   0.30361765      
  42               4.29361493E-03   8.34013383E-01   326.88650099     7.23335596E-05   1.84799960E+19   3.54356497E+06   0.00000000E+00   9.50016826E+05   0.30280512      
  43               5.29410063E-03   1.00714071E+00   339.39938102     8.41284540E-05   2.14933912E+19   3.54356497E+06   0.00000000E+00   9.42998650E+05   0.30239631      
  44               6.52771662E-03   1.21545710E+00   353.15064665     9.75760970E-05   2.49290351E+19   3.54356497E+06   0.00000000E+00   9.35727882E+05   0.30178984      
  45               8.04878622E-03   1.46573618E+00   367.85501233     1.12964749E-04   2.88605743E+19   3.54356497E+06   0.00000000E+00   9.28189445E+05   0.30140972      
  46               9.92429106E-03   1.76564942E+00   384.26585532     1.30267635E-04   3.32811650E+19   3.54356497E+06   0.00000000E+00   9.20371260E+05   0.30094441      
  47               1.22368206E-02   2.12426250E+00   402.22805288     1.49726803E-04   3.82526622E+19   3.54356497E+06   0.00000000E+00   9.12251222E+05   0.30070224      
  48               1.50882091E-02   2.55195740E+00   422.27495277     1.71334502E-04   4.37727607E+19   3.54356497E+06   0.00000000E+00   9.03806933E+05   0.3004323       
  49               1.86040198E-02   3.05966973E+00   444.01412231     1.95363981E-04   4.99118430E+19   3.54356470E+06   0.00000000E+00   8.95031409E+05   0.30021078      
  50               2.29390746E-02   3.65889352E+00   467.97707335     2.21662330E-04   5.66305831E+19   3.54267513E+06   8.90028348E+02   8.85925552E+05   0.29995306      
  51               2.82842712E-02   4.36366384E+00   493.90403485     2.50481686E-04   6.39933067E+19   3.53208438E+06   1.14809130E+04   8.76467233E+05   0.29979393      
  52               3.48749902E-02   5.19118992E+00   519.71882196     2.83182679E-04   7.23476306E+19   3.52802686E+06   1.55379112E+04   8.66641595E+05   0.29960179      
  53               4.30014593E-02   6.16032752E+00   547.65710583     3.18932775E-04   8.14743521E+19   3.53504029E+06   8.52516875E+03   8.56443653E+05   0.29943687      
  54               5.30215347E-02   7.29076706E+00   575.35685231     3.59285756E-04   9.17828993E+19   3.54356377E+06   0.00000000E+00   8.45883317E+05   0.29926415      
  55               6.53764590E-02   8.60732633E+00   604.35323260     4.03814091E-04   1.03158082E+20   3.54356504E+06   0.00000000E+00   8.34953077E+05   0.29910905      
  56               8.06102920E-02   1.01401255E+01   631.65301451     4.55164916E-04   1.16276138E+20   3.54356490E+06   0.00000000E+00   8.23647047E+05   0.29884367      
  57               9.93938685E-02   1.19192060E+01   661.00447839     5.11265984E-04   1.30607695E+20   3.54356498E+06   0.00000000E+00   8.11984652E+05   0.29855472      
  58               1.22554340E-01   1.39742459E+01   689.54001109     5.74609527E-04   1.46789418E+20   3.54356496E+06   0.00000000E+00   7.99994894E+05   0.29818904      
  59               1.51111597E-01   1.63386856E+01   721.24643373     6.42298990E-04   1.64081371E+20   3.54355173E+06   0.00000000E+00   7.87687299E+05   0.29781909      
  60               1.86323183E-01   1.90634440E+01   753.67878652     7.17164396E-04   1.83206514E+20   3.52797035E+06   1.55945365E+04   7.74991792E+05   0.29729127      
  61               2.29739671E-01   2.22011300E+01   790.07876296     7.96724460E-04   2.03530983E+20   3.44904214E+06   9.45245939E+04   7.61865380E+05   0.29670304      
  62               2.83272943E-01   2.58113615E+01   824.58470544     8.87521827E-04   2.26726079E+20   3.34448624E+06   1.99079383E+05   7.48288765E+05   0.29593131      
  63               3.49280383E-01   2.99487360E+01   863.26177911     9.83648390E-04   2.51282257E+20   3.23231311E+06   3.11255246E+05   7.34285944E+05   0.29509378      
  64               4.30668686E-01   3.46848019E+01   899.71344482     1.09305258E-03   2.79229210E+20   3.14443058E+06   3.99138198E+05   7.19842272E+05   0.29406804      
  65               5.31021855E-01   4.01038598E+01   940.65994220     1.20881940E-03   3.08801473E+20   3.09513936E+06   4.48430672E+05   7.04934152E+05   0.29295556      
  66               6.54759028E-01   4.62745109E+01   979.00083906     1.34019025E-03   3.42361258E+20   3.09071928E+06   4.52849589E+05   6.89603271E+05   0.29164113      
  67               8.07329079E-01   5.32584675E+01   1021.79461305    1.47785920E-03   3.77529503E+20   3.12478345E+06   4.18784635E+05   6.73910419E+05   0.29031374      
  68               9.95450561E-01   6.11094734E+01   1061.31263614    1.63258180E-03   4.17052804E+20   3.19638211E+06   3.47183226E+05   6.57926932E+05   0.28883988      
  69               1.22740757E+00   6.99302753E+01   1105.41824560    1.79371910E-03   4.58209879E+20   3.29795252E+06   2.45614887E+05   6.41626693E+05   0.28739115      
  70               1.51341452E+00   7.98686288E+01   1146.19275611    1.97579429E-03   5.04712904E+20   3.42328431E+06   1.20283370E+05   6.24932450E+05   0.28574582      
  71               1.86606598E+00   9.10687910E+01   1192.07319741    2.16615316E-03   5.53340537E+20   3.54276226E+06   1.06185116E+04   6.07812246E+05   0.28419282      
  72               2.30089127E+00   1.03657347E+02   1234.34075533    2.38115243E-03   6.08262242E+20   3.54349956E+06   0.00000000E+00   5.90284028E+05   0.28255348      
  73               2.83703828E+00   1.17738893E+02   1277.24494243    2.61377351E-03   6.67684962E+20   3.54356447E+06   0.00000000E+00   5.72434661E+05   0.28105241      
  74               3.49811672E+00   1.33430055E+02   1318.54922708    2.86932701E-03   7.32964865E+20   3.54356538E+06   0.00000000E+00   5.54315786E+05   0.27941454      
  75               4.31323774E+00   1.50978170E+02   1362.05477271    3.14299257E-03   8.02870358E+20   3.54356477E+06   0.00000000E+00   5.35837192E+05   0.27788054      
  76               5.31829590E+00   1.70604578E+02   1405.24061043    3.44243004E-03   8.79358223E+20   3.54356537E+06   0.00000000E+00   5.16968718E+05   0.2761992       
  77               6.55754979E+00   1.92556687E+02   1451.34712908    3.76195799E-03   9.60977337E+20   3.54356763E+06   0.00000000E+00   4.97678508E+05   0.27456915      
  78               8.08557104E+00   2.17021961E+02   1497.59398376    4.10900640E-03   1.04962807E+21   3.54181135E+06   0.00000000E+00   4.78000777E+05   0.27278653      
  79               9.96964736E+00   2.44122816E+02   1546.89666983    4.47480327E-03   1.14307021E+21   3.49866591E+06   4.49221515E+04   4.58014677E+05   0.27109795      
  80               1.22927457E+01   2.74018677E+02   1595.32780898    4.87030405E-03   1.24410223E+21   3.39068986E+06   1.52899603E+05   4.37763672E+05   0.26929138      
  81               1.51571657E+01   3.07042282E+02   1645.43218021    5.29107436E-03   1.35158710E+21   3.26110364E+06   2.82498329E+05   4.17191730E+05   0.26760161      
  82               1.86890445E+01   3.43367133E+02   1694.60764419    5.74525788E-03   1.46762601E+21   3.10034542E+06   4.43312984E+05   3.96357465E+05   0.26579106      
  83               2.30439114E+01   3.83013968E+02   1745.01956829    6.22664776E-03   1.58979142E+21   2.91781285E+06   6.25767586E+05   3.75392972E+05   0.26413566      
  84               2.84135369E+01   4.26089452E+02   1794.03036729    6.73766604E-03   1.72027086E+21   2.71570044E+06   8.27878938E+05   3.54362496E+05   0.2623535       
  85               3.50343769E+01   4.72766899E+02   1844.11471333    7.27279045E-03   1.85688483E+21   2.49881001E+06   1.04476773E+06   3.33276049E+05   0.26076628      
  86               4.31979859E+01   5.22929492E+02   1892.44368677    7.83919491E-03   2.00145583E+21   2.25006772E+06   1.29350815E+06   3.12267523E+05   0.25901159      
  87               5.32638553E+01   5.76055703E+02   1940.95581174    8.42021329E-03   2.14968424E+21   2.03748757E+06   1.50608689E+06   2.91589278E+05   0.25751326      
  88               6.56752445E+01   6.34214798E+02   1988.84456951    9.04843179E-03   2.30973081E+21   1.85095531E+06   1.69261775E+06   2.70518843E+05   0.25573462      
  89               8.09786996E+01   6.97571024E+02   2038.32452411    9.71446651E-03   2.47879689E+21   1.66869467E+06   1.87487794E+06   2.49148858E+05   0.25420074      
  90               9.98481215E+01   7.66458652E+02   2086.93759838    1.04320081E-02   2.66014376E+21   1.55082945E+06   1.99274260E+06   2.27508599E+05   0.25230134      
  91               1.23114441E+02   8.45714121E+02   2139.80697391    1.12326039E-02   2.86269331E+21   1.44348780E+06   2.10008361E+06   2.04355312E+05   0.25065155      
  92               1.51802212E+02   9.32300713E+02   2191.95542732    1.20889438E-02   3.08070517E+21   1.26940132E+06   2.27417017E+06   1.80857734E+05   0.24853914      
  93               1.87174723E+02   1.02346446E+03   2243.70559609    1.29645667E-02   3.30394443E+21   1.15771446E+06   2.38585716E+06   1.57830083E+05   0.24694508      
  94               2.30789634E+02   1.13087335E+03   2299.00563445    1.39798736E-02   3.56286833E+21   1.03173384E+06   2.51183748E+06   1.32600483E+05   0.24464386      
  95               2.84567566E+02   1.23541742E+03   2349.43428142    1.49499466E-02   3.80869555E+21   8.40103196E+05   2.70346749E+06   1.09730720E+05   0.24308804      
  96               3.50876675E+02   1.32876094E+03   2390.91533647    1.58000417E-02   4.02539492E+21   7.23599780E+05   2.81997092E+06   9.05247729E+04   0.24108075      
  97               4.32636941E+02   1.43763075E+03   2436.88215917    1.67714537E-02   4.27305678E+21   6.81950589E+05   2.86161972E+06   6.93755911E+04   0.23960083      
  98               5.33448747E+02   1.56421091E+03   2486.21998347    1.78845018E-02   4.55702694E+21   5.82331413E+05   2.96123864E+06   4.62633255E+04   0.23687859      
  99               6.57751428E+02   1.66776694E+03   2524.12211389    1.87977533E-02   4.78575916E+21   4.53465935E+05   3.09010271E+06   2.84011677E+04   0.23548746      
  100              8.11018759E+02   1.74824202E+03   2552.20215955    1.94873595E-02   4.96149232E+21   3.89165409E+05   3.15849031E+06   1.51048250E+04   0.23341259      
  101              1.00000000E+03   1.84323274E+03   2583.75262905    2.02945100E-02   5.16719777E+21   3.79902658E+05   3.16783867E+06   0.00000000E+00   0.23220968      
