# ATMO pressure-temperature profile
# Effective temperature = 500.0K
# log(g) = 5.5cm/s^2
# M/H = 0.0
# Optical depth grid in band 17 (1.20-1.33microns)
# All parameters in cgs units
#
# Model Level      Optical Depth    Pressure         Temperature      Density          Number Density   Rad Flux         Conv Flux        Radial Extension Adiabatic Gradient
#                                   [Ba]             [K]              [g/cm^3]         [/cm^3]          [ergs/s/cm^2/sr] [ergs/s/cm^2/sr] [cm]             [K/Ba]          
  1                8.00000000E-07   1.00000000E-05   107.44795410     2.62307813E-09   6.74105218E+14   3.54355972E+06   0.00000000E+00   1.17441764E+06   0.3458213       
  2                9.86413681E-07   2.56427241E-04   89.07739806      8.11345841E-08   2.08507882E+16   3.54355972E+06   0.00000000E+00   1.12100056E+06   0.31479378      
  3                1.21626494E-06   5.62458084E-04   102.74758775     1.54285628E-07   3.96501074E+16   3.54355973E+06   0.00000000E+00   1.11235090E+06   0.31481987      
  4                1.49967547E-06   9.14953803E-04   100.82584128     2.55770018E-07   6.57284138E+16   3.54355971E+06   0.00000000E+00   1.10673948E+06   0.31483818      
  5                1.84912550E-06   1.26174360E-03   110.87074135     3.20757550E-07   8.24289941E+16   3.54355955E+06   0.00000000E+00   1.10291072E+06   0.31485321      
  6                2.28000336E-06   1.54028540E-03   111.57984225     3.89179950E-07   9.99864834E+16   3.54355933E+06   0.00000000E+00   1.10041752E+06   0.31486644      
  7                2.81128314E-06   1.72232216E-03   116.33107018     4.17491958E-07   1.07236963E+17   3.54355926E+06   4.79359213E+03   1.09898933E+06   0.31487879      
  8                3.46636019E-06   1.88040759E-03   118.81552079     4.46393286E-07   1.14631680E+17   3.54355922E+06   1.61115820E+03   1.09783127E+06   0.31489028      
  9                4.27408139E-06   2.04059929E-03   122.71182845     4.69040278E-07   1.20447321E+17   3.54355931E+06   6.83246998E+02   1.09672419E+06   0.319205        
  10               5.27001545E-06   2.23708996E-03   125.58908243     5.02424023E-07   1.29020108E+17   3.54355952E+06   2.16309824E+02   1.09544422E+06   0.32048627      
  11               6.49801917E-06   2.47795370E-03   130.59155144     5.35201030E-07   1.37437088E+17   3.54355979E+06   0.00000000E+00   1.09397537E+06   0.3222823       
  12               8.01216876E-06   2.77309017E-03   134.45311090     5.81744079E-07   1.49389122E+17   3.54355999E+06   0.00000000E+00   1.09230274E+06   0.3225987       
  13               9.87914110E-06   3.13479844E-03   139.45527875     6.34035396E-07   1.62817283E+17   3.54356007E+06   0.00000000E+00   1.09041937E+06   0.32381698      
  14               1.21811499E-05   3.57815286E-03   143.13274699     7.05113005E-07   1.81069676E+17   3.54355988E+06   0.00000000E+00   1.08832253E+06   0.3242625       
  15               1.50195662E-05   4.12209315E-03   145.58379774     7.98626325E-07   2.05083442E+17   3.54356017E+06   0.00000000E+00   1.08603035E+06   0.32471942      
  16               1.85193820E-05   4.78870280E-03   151.35481880     8.92401938E-07   2.29164569E+17   3.54356013E+06   0.00000000E+00   1.08353334E+06   0.32556973      
  17               2.28347147E-05   5.60550355E-03   153.09459866     1.03274651E-06   2.65204325E+17   3.54356007E+06   0.00000000E+00   1.08084280E+06   0.32574926      
  18               2.81555937E-05   6.60603198E-03   158.52807351     1.17536702E-06   3.01828558E+17   3.54356003E+06   0.00000000E+00   1.07797106E+06   0.32598244      
  19               3.47163285E-05   7.83123358E-03   160.18924096     1.37891084E-06   3.54097348E+17   3.54356007E+06   0.00000000E+00   1.07492770E+06   0.32598767      
  20               4.28058268E-05   9.33099191E-03   165.60928040     1.58921492E-06   4.08102244E+17   3.54356010E+06   0.00000000E+00   1.07172393E+06   0.3257787       
  21               5.27803164E-05   1.11657276E-02   167.31438464     1.88232379E-06   4.83369884E+17   3.54356024E+06   0.00000000E+00   1.06836937E+06   0.32565061      
  22               6.50790328E-05   1.34088630E-02   172.67944608     2.19024338E-06   5.62441227E+17   3.54356060E+06   0.00000000E+00   1.06487586E+06   0.32507502      
  23               8.02435604E-05   1.61494383E-02   174.69320740     2.60750711E-06   6.69587353E+17   3.54356074E+06   0.00000000E+00   1.06124940E+06   0.32472895      
  24               9.89416822E-05   1.94955510E-02   179.91482600     3.05642636E-06   7.84863985E+17   3.54356133E+06   0.00000000E+00   1.05750121E+06   0.32406813      
  25               1.21996786E-04   2.35771716E-02   182.05379364     3.65296412E-06   9.38032340E+17   3.54356311E+06   0.00000000E+00   1.05363839E+06   0.32357553      
  26               1.50424124E-04   2.85506218E-02   187.55773752     4.29375611E-06   1.10257064E+18   3.54356579E+06   0.00000000E+00   1.04966724E+06   0.32299378      
  27               1.85475517E-04   3.46038988E-02   189.86077198     5.14124592E-06   1.32012675E+18   3.54356748E+06   0.00000000E+00   1.04559305E+06   0.32237506      
  28               2.28694484E-04   4.19630351E-02   195.26596735     6.06216735E-06   1.55656111E+18   3.54357104E+06   0.00000000E+00   1.04142454E+06   0.32129954      
  29               2.81984210E-04   5.08942002E-02   198.37178546     7.23829297E-06   1.85829317E+18   3.54357070E+06   0.00000000E+00   1.03716087E+06   0.32049801      
  30               3.47691354E-04   6.17080352E-02   204.02985827     8.53332254E-06   2.19065421E+18   3.54357237E+06   0.00000000E+00   1.03280967E+06   0.3193683       
  31               4.28709385E-04   7.47501339E-02   207.75266775     1.01559313E-05   2.60610077E+18   3.54357206E+06   0.00000000E+00   1.02837914E+06   0.31866669      
  32               5.28606003E-04   9.03873528E-02   213.80772477     1.19341354E-05   3.06203475E+18   3.54357211E+06   0.00000000E+00   1.02388729E+06   0.3176014       
  33               6.51780242E-04   1.08896442E-01   218.70853365     1.40787208E-05   3.60639921E+18   3.54354513E+06   0.00000000E+00   1.01937050E+06   0.31678249      
  34               8.03656185E-04   1.30290709E-01   226.42662764     1.62912204E-05   4.16784721E+18   3.54351516E+06   0.00000000E+00   1.01490222E+06   0.31549728      
  35               9.90921819E-04   1.55182986E-01   235.42891899     1.86890117E-05   4.77430473E+18   3.54360805E+06   0.00000000E+00   1.01038995E+06   0.31459954      
  36               1.22182355E-03   1.84533247E-01   246.68613972     2.12095726E-05   5.41820852E+18   3.54354127E+06   0.00000000E+00   1.00572816E+06   0.31316866      
  37               1.50652933E-03   2.20077139E-01   255.04465240     2.44658749E-05   6.25006523E+18   3.54353221E+06   0.00000000E+00   1.00079394E+06   0.31212274      
  38               1.85757643E-03   2.63143101E-01   265.74225237     2.80758826E-05   7.17227968E+18   3.54353415E+06   0.00000000E+00   9.95597721E+05   0.31023337      
  39               2.29042351E-03   3.15336631E-01   274.07893539     3.26212655E-05   8.33344559E+18   3.54353937E+06   0.00000000E+00   9.90143916E+05   0.3086221       
  40               2.82413135E-03   3.78603260E-01   285.01779758     3.76629566E-05   9.62139863E+18   3.54354257E+06   0.00000000E+00   9.84436138E+05   0.30732503      
  41               3.48220225E-03   4.55295664E-01   294.01062472     4.39068752E-05   1.12164734E+19   3.54354438E+06   0.00000000E+00   9.78472258E+05   0.30610626      
  42               4.29361493E-03   5.48261073E-01   305.83614250     5.08277219E-05   1.29844765E+19   3.54354604E+06   0.00000000E+00   9.72249187E+05   0.30515666      
  43               5.29410063E-03   6.60909938E-01   316.08708233     5.92840105E-05   1.51447244E+19   3.54354502E+06   0.00000000E+00   9.65759740E+05   0.3043002       
  44               6.52771662E-03   7.97342174E-01   329.46854532     6.86171727E-05   1.75289789E+19   3.54354729E+06   0.00000000E+00   9.58995300E+05   0.30357608      
  45               8.04878622E-03   9.62481341E-01   341.79251504     7.98420751E-05   2.03964982E+19   3.54354522E+06   0.00000000E+00   9.51939963E+05   0.30284796      
  46               9.92429106E-03   1.16230618E+00   357.60987737     9.21537620E-05   2.35416490E+19   3.54354826E+06   0.00000000E+00   9.44573195E+05   0.30224378      
  47               1.22368206E-02   1.40391327E+00   372.82567467     1.06766943E-04   2.72747203E+19   3.54354731E+06   0.00000000E+00   9.36870638E+05   0.30173218      
  48               1.50882091E-02   1.69555108E+00   392.04969105     1.22623136E-04   3.13253262E+19   3.54354823E+06   0.00000000E+00   9.28810556E+05   0.3013027       
  49               1.86040198E-02   2.04683421E+00   411.39651895     1.41066874E-04   3.60369390E+19   3.54354970E+06   0.00000000E+00   9.20364407E+05   0.30089515      
  50               2.29390746E-02   2.46908226E+00   435.20043374     1.60860430E-04   4.10934004E+19   3.54355190E+06   0.00000000E+00   9.11500391E+05   0.3005727       
  51               2.82842712E-02   2.97493690E+00   459.73724691     1.83472534E-04   4.68698871E+19   3.53572038E+06   7.83068819E+03   9.02188977E+05   0.30033173      
  52               3.48749902E-02   3.57877659E+00   486.52205788     2.08567362E-04   5.32792243E+19   3.52634952E+06   1.72019863E+04   8.92427457E+05   0.30011566      
  53               4.30014593E-02   4.29798573E+00   513.41006876     2.37370190E-04   6.06354251E+19   3.52600640E+06   1.75447311E+04   8.82205751E+05   0.29990788      
  54               5.30215347E-02   5.15387145E+00   542.75980908     2.69254365E-04   6.87783481E+19   3.53712880E+06   6.42482165E+03   8.71499788E+05   0.29972014      
  55               6.53764590E-02   6.17012222E+00   572.17528179     3.05774630E-04   7.81071002E+19   3.54354987E+06   0.00000000E+00   8.60299767E+05   0.29954429      
  56               8.06102920E-02   7.37257554E+00   601.62789877     3.47478476E-04   8.87599612E+19   3.54355149E+06   0.00000000E+00   8.48634260E+05   0.29937271      
  57               9.93938685E-02   8.79360363E+00   630.10535280     3.95721959E-04   1.01083334E+20   3.54355099E+06   0.00000000E+00   8.36515904E+05   0.2991681       
  58               1.22554340E-01   1.04723017E+01   659.49875942     4.50260950E-04   1.15014873E+20   3.54355217E+06   0.00000000E+00   8.23939818E+05   0.29894402      
  59               1.51111597E-01   1.24502260E+01   689.23480831     5.12207198E-04   1.30838595E+20   3.54354969E+06   0.00000000E+00   8.10915504E+05   0.29866912      
  60               1.86323183E-01   1.47702967E+01   721.40608115     5.80556341E-04   1.48297989E+20   3.54355087E+06   0.00000000E+00   7.97461348E+05   0.29830466      
  61               2.29739671E-01   1.74888536E+01   755.40500683     6.56470811E-04   1.67690061E+20   3.54355054E+06   0.00000000E+00   7.83535910E+05   0.29784597      
  62               2.83272943E-01   2.06823747E+01   793.40578530     7.39158626E-04   1.88812560E+20   3.53386332E+06   9.69532118E+03   7.69038387E+05   0.29725992      
  63               3.49280383E-01   2.44358815E+01   834.37604068     8.30420325E-04   2.12125083E+20   3.45301990E+06   9.05361742E+04   7.53888123E+05   0.29654038      
  64               4.30668686E-01   2.88327742E+01   875.55216429     9.33761294E-04   2.38522990E+20   3.36842642E+06   1.75131034E+05   7.38098200E+05   0.29562479      
  65               5.31021855E-01   3.39559139E+01   919.60839053     1.04699210E-03   2.67447374E+20   3.31610204E+06   2.27453232E+05   7.21713157E+05   0.29455484      
  66               6.54759028E-01   3.99113433E+01   963.55415977     1.17449114E-03   3.00017131E+20   3.31754248E+06   2.26012843E+05   7.04730044E+05   0.29327367      
  67               8.07329079E-01   4.67882542E+01   1010.25948260    1.31320347E-03   3.35451505E+20   3.36725634E+06   1.76296497E+05   6.87219359E+05   0.29185102      
  68               9.95450561E-01   5.46509764E+01   1056.12246835    1.46727939E-03   3.74808545E+20   3.45486887E+06   8.86844548E+04   6.69307062E+05   0.29021315      
  69               1.22740757E+00   6.35441594E+01   1104.11303571    1.63190442E-03   4.16857809E+20   3.54353080E+06   0.00000000E+00   6.51132907E+05   0.28850442      
  70               1.51341452E+00   7.35969761E+01   1149.82253158    1.81495039E-03   4.63612349E+20   3.54410844E+06   0.00000000E+00   6.32661133E+05   0.28680723      
  71               1.86606598E+00   8.49742387E+01   1193.37211328    2.01905396E-03   5.15747625E+20   3.54337170E+06   0.00000000E+00   6.13866592E+05   0.28520416      
  72               2.30089127E+00   9.78051492E+01   1235.90391818    2.24394604E-03   5.73195603E+20   3.54289901E+06   0.00000000E+00   5.94804198E+05   0.28359136      
  73               2.83703828E+00   1.12184677E+02   1277.55772774    2.48993167E-03   6.36031829E+20   3.54248753E+06   0.00000000E+00   5.75566865E+05   0.28204061      
  74               3.49811672E+00   1.28186333E+02   1319.49105324    2.75466492E-03   7.03657166E+20   3.54277753E+06   0.00000000E+00   5.56245537E+05   0.28043155      
  75               4.31323774E+00   1.46023727E+02   1361.94039904    3.04017009E-03   7.76588878E+20   3.54245569E+06   0.00000000E+00   5.36753903E+05   0.27885458      
  76               5.31829590E+00   1.65941699E+02   1405.83833565    3.34696884E-03   8.54960380E+20   3.54293860E+06   0.00000000E+00   5.17008294E+05   0.27721155      
  77               6.55754979E+00   1.88197497E+02   1451.07012129    3.67752624E-03   9.39401573E+20   3.54268009E+06   0.00000000E+00   4.96947888E+05   0.27555414      
  78               8.08557104E+00   2.12977567E+02   1498.11902994    4.03103484E-03   1.02970632E+21   3.54337309E+06   0.00000000E+00   4.76595438E+05   0.2737833       
  79               9.96964736E+00   2.40396386E+02   1546.67452543    4.40713686E-03   1.12578340E+21   3.54342208E+06   0.00000000E+00   4.56024094E+05   0.27204728      
  80               1.22927457E+01   2.70570542E+02   1597.10859235    4.80362993E-03   1.22707725E+21   3.48506650E+06   5.85126946E+04   4.35285816E+05   0.27024397      
  81               1.51571657E+01   3.03794120E+02   1647.66767200    5.22882987E-03   1.33547445E+21   3.34647655E+06   1.97100592E+05   4.14321410E+05   0.26844858      
  82               1.86890445E+01   3.40223593E+02   1698.40307213    5.68184693E-03   1.45094015E+21   3.17975403E+06   3.63822754E+05   3.93185101E+05   0.26667558      
  83               2.30439114E+01   3.79942315E+02   1748.93649501    6.16287126E-03   1.57350984E+21   2.99138061E+06   5.52197182E+05   3.71958411E+05   0.26493853      
  84               2.84135369E+01   4.23058116E+02   1799.34065173    6.67000393E-03   1.70299149E+21   2.78293401E+06   7.60645790E+05   3.50692550E+05   0.2632294       
  85               3.50343769E+01   4.69666306E+02   1849.31136031    7.20482146E-03   1.83952294E+21   2.55150794E+06   9.92075261E+05   3.29431285E+05   0.26156497      
  86               4.31979859E+01   5.19690987E+02   1898.81635051    7.76461653E-03   1.98238527E+21   2.30661128E+06   1.23697753E+06   3.08281074E+05   0.25993128      
  87               5.32638553E+01   5.72941778E+02   1947.36606104    8.34753195E-03   2.13102593E+21   2.07608404E+06   1.46751381E+06   2.87364523E+05   0.2583597       
  88               6.56752445E+01   6.30419829E+02   1995.97635779    8.96319622E-03   2.28770653E+21   1.86986668E+06   1.67374619E+06   2.66351051E+05   0.25684469      
  89               8.09786996E+01   6.92883220E+02   2044.79615615    9.62171908E-03   2.45434643E+21   1.70322928E+06   1.84040413E+06   2.45080192E+05   0.255295        
  90               9.98481215E+01   7.62139807E+02   2095.04294707    1.03349783E-02   2.63492074E+21   1.57366790E+06   1.97000062E+06   2.23116979E+05   0.2537781       
  91               1.23114441E+02   8.38816262E+02   2146.42311491    1.11069941E-02   2.83059245E+21   1.43421778E+06   2.10953723E+06   2.00484958E+05   0.25234814      
  92               1.51802212E+02   9.22455773E+02   2198.44371678    1.19255371E-02   3.03917733E+21   1.29736869E+06   2.24654524E+06   1.77503524E+05   0.25085487      
  93               1.87174723E+02   1.01505351E+03   2251.60223268    1.28128142E-02   3.26530014E+21   1.16451764E+06   2.38123595E+06   1.53814780E+05   0.24948003      
  94               2.30789634E+02   1.11303768E+03   2303.90213160    1.37321056E-02   3.49922349E+21   1.00722020E+06   2.53782877E+06   1.30454547E+05   0.2482969       
  95               2.84567566E+02   1.20947232E+03   2351.73730828    1.46198056E-02   3.72505735E+21   8.60626622E+05   2.68585157E+06   1.08931403E+05   0.24708964      
  96               3.50876675E+02   1.30693323E+03   2397.15953086    1.55001256E-02   3.94895608E+21   7.59829436E+05   2.78848909E+06   8.84573379E+04   0.24576378      
  97               4.32636941E+02   1.41163889E+03   2442.79131442    1.64282902E-02   4.18565169E+21   6.76126027E+05   2.87340901E+06   6.77078712E+04   0.24457076      
  98               5.33448747E+02   1.51869514E+03   2486.83609985    1.73650524E-02   4.42332937E+21   5.74207867E+05   2.97429314E+06   4.76634538E+04   0.2435203       
  99               6.57751428E+02   1.61330566E+03   2523.53222712    1.81826950E-02   4.63056134E+21   4.81478873E+05   3.06426093E+06   3.08255583E+04   0.24251616      
  100              8.11018759E+02   1.70327114E+03   2556.98198974    1.89500234E-02   4.82482935E+21   4.26467745E+05   3.11943324E+06   1.54985514E+04   0.24148387      
  101              1.00000000E+03   1.79807517E+03   2590.48224954    1.97452186E-02   5.02751138E+21   4.05499551E+05   3.14594887E+06   0.00000000E+00   0.24030507      
