# ATMO pressure-temperature profile
# Effective temperature = 1800.0K
# log(g) = 4.0cm/s^2
# M/H = 0.0
# Optical depth grid in band 17 (1.20-1.33microns)
# All parameters in cgs units
#
# Model Level      Optical Depth    Pressure         Temperature      Density          Number Density   Rad Flux         Conv Flux        Radial Extension Adiabatic Gradient
#                                   [Ba]             [K]              [g/cm^3]         [/cm^3]          [ergs/s/cm^2/sr] [ergs/s/cm^2/sr] [cm]             [K/Ba]          
  1                1.00000000E-06   1.00000000E-05   608.84699955     4.65252724E-10   1.18964578E+14   5.95203236E+08   0.00000000E+00   7.74270139E+07   0.2980103       
  2                1.23026877E-06   1.57937550E-05   634.47908037     7.05069534E-10   1.80299254E+14   5.95203236E+08   0.00000000E+00   7.64154042E+07   0.29792866      
  3                1.51356125E-06   2.38247959E-05   659.99070292     1.02243723E-09   2.61467196E+14   5.95203236E+08   0.00000000E+00   7.54695059E+07   0.29774599      
  4                1.86208714E-06   3.39658332E-05   669.93209094     1.43601457E-09   3.67229304E+14   5.95203236E+08   0.00000000E+00   7.46325844E+07   0.29763241      
  5                2.29086765E-06   4.64401058E-05   688.95155984     1.90917019E-09   4.88236622E+14   5.95203236E+08   0.00000000E+00   7.38792025E+07   0.29739658      
  6                2.81838293E-06   6.17469174E-05   695.77257759     2.51356902E-09   6.42796957E+14   5.95203236E+08   0.00000000E+00   7.31804598E+07   0.29727932      
  7                3.46736850E-06   8.04330909E-05   712.95168228     3.19530936E-09   8.17147582E+14   5.95203236E+08   0.00000000E+00   7.25211045E+07   0.29699646      
  8                4.26579519E-06   1.03248899E-04   718.55342445     4.06974412E-09   1.04076386E+15   5.95203236E+08   0.00000000E+00   7.18884070E+07   0.29687233      
  9                5.24807460E-06   1.31033142E-04   735.01094849     5.04923149E-09   1.29125848E+15   5.95203236E+08   0.00000000E+00   7.12754879E+07   0.29693989      
  10               6.45654229E-06   1.64879895E-04   740.12281944     6.30963157E-09   1.61357719E+15   5.95203236E+08   0.00000000E+00   7.06758314E+07   0.29685002      
  11               7.94328235E-06   2.06036461E-04   756.43590888     7.71456196E-09   1.97286689E+15   5.95203236E+08   0.00000000E+00   7.00859261E+07   0.29659427      
  12               9.77237221E-06   2.56101916E-04   761.41477000     9.52648429E-09   2.43622486E+15   5.95203236E+08   0.00000000E+00   6.95019214E+07   0.29649802      
  13               1.20226443E-05   3.16944481E-04   777.82313245     1.15410633E-08   2.95140072E+15   5.95203236E+08   0.00000000E+00   6.89216662E+07   0.29622051      
  14               1.47910839E-05   3.90925139E-04   782.79409103     1.41446122E-08   3.61719482E+15   5.95203236E+08   0.00000000E+00   6.83426377E+07   0.29611618      
  15               1.81970086E-05   4.80789156E-04   799.40922379     1.70347581E-08   4.35623549E+15   5.95203236E+08   0.00000000E+00   6.77637117E+07   0.29581205      
  16               2.23872114E-05   5.89966530E-04   804.38983056     2.07736531E-08   5.31234953E+15   5.95203236E+08   0.00000000E+00   6.71833371E+07   0.29569884      
  17               2.75422870E-05   7.22495474E-04   821.25209219     2.49177320E-08   6.37212786E+15   5.95203236E+08   0.00000000E+00   6.66008312E+07   0.29536889      
  18               3.38844156E-05   8.83355730E-04   826.24377331     3.02816005E-08   7.74378471E+15   5.95203236E+08   0.00000000E+00   6.60152256E+07   0.2952472       
  19               4.16869383E-05   1.07841516E-03   843.43814076     3.62144742E-08   9.26101504E+15   5.95203236E+08   0.00000000E+00   6.54261965E+07   0.29488762      
  20               5.12861384E-05   1.31487849E-03   848.47125679     4.38934165E-08   1.12246892E+16   5.95203236E+08   0.00000000E+00   6.48331030E+07   0.29475606      
  21               6.30957344E-05   1.60125976E-03   866.07601622     5.23666629E-08   1.33915737E+16   5.95203236E+08   0.00000000E+00   6.42357684E+07   0.29436579      
  22               7.76247117E-05   1.94795516E-03   871.20332504     6.33300709E-08   1.61951610E+16   5.95203236E+08   0.00000000E+00   6.36337417E+07   0.29422369      
  23               9.54992586E-05   2.36725713E-03   889.25443179     7.53994720E-08   1.92816962E+16   5.95203236E+08   0.00000000E+00   6.30269523E+07   0.29380069      
  24               1.17489755E-04   2.87408722E-03   894.43531903     9.10125579E-08   2.32743115E+16   5.95203236E+08   0.00000000E+00   6.24151266E+07   0.29364823      
  25               1.44543977E-04   3.48611628E-03   912.99232596     1.08149255E-07   2.76567142E+16   5.95203236E+08   0.00000000E+00   6.17982336E+07   0.29319017      
  26               1.77827941E-04   4.22471492E-03   918.33764157     1.30300235E-07   3.33212176E+16   5.95203235E+08   0.00000000E+00   6.11760419E+07   0.29302502      
  27               2.18776162E-04   5.11553821E-03   937.50194647     1.54549596E-07   3.95225533E+16   5.95203236E+08   0.00000000E+00   6.05482941E+07   0.29252938      
  28               2.69153480E-04   6.19004820E-03   943.10005328     1.85902976E-07   4.75403200E+16   5.95203235E+08   0.00000000E+00   5.99143755E+07   0.29234845      
  29               3.31131121E-04   7.48570193E-03   963.08971223     2.20147849E-07   5.62978262E+16   5.95203236E+08   0.00000000E+00   5.92739204E+07   0.29180794      
  30               4.07380278E-04   9.04780067E-03   969.16929379     2.64419415E-07   6.76190738E+16   5.95203235E+08   0.00000000E+00   5.86264726E+07   0.29160442      
  31               5.01187234E-04   1.09299797E-02   990.13725576     3.12660144E-07   7.99557672E+16   5.95203236E+08   0.00000000E+00   5.79718694E+07   0.29146351      
  32               6.16595002E-04   1.31969428E-02   996.90292104     3.74947309E-07   9.58840359E+16   5.95203235E+08   0.00000000E+00   5.73097700E+07   0.29120626      
  33               7.58577575E-04   1.59249782E-02   1019.26996141    4.42525184E-07   1.13165868E+17   5.95203236E+08   0.00000000E+00   5.66400458E+07   0.29042354      
  34               9.33254301E-04   1.92057882E-02   1027.09770009    5.29626603E-07   1.35439773E+17   5.95203235E+08   0.00000000E+00   5.59623617E+07   0.290032        
  35               1.14815362E-03   2.31460019E-02   1051.15634773    6.23672627E-07   1.59490385E+17   5.95203236E+08   0.00000000E+00   5.52767840E+07   0.28914436      
  36               1.41253754E-03   2.78732447E-02   1060.50342475    7.44430710E-07   1.90371219E+17   5.95203234E+08   0.00000000E+00   5.45830108E+07   0.28874381      
  37               1.73780083E-03   3.35339282E-02   1086.81276464    8.73931000E-07   2.23488685E+17   5.95203236E+08   0.00000000E+00   5.38812028E+07   0.28779737      
  38               2.13796209E-03   4.03013364E-02   1098.13303052    1.03947126E-06   2.65821639E+17   5.95203236E+08   0.00000000E+00   5.31711713E+07   0.28736828      
  39               2.63026799E-03   4.83687198E-02   1127.19478490    1.21538059E-06   3.10807480E+17   5.95203233E+08   0.00000000E+00   5.24534258E+07   0.28646077      
  40               3.23593657E-03   5.79679599E-02   1141.30242274    1.43858062E-06   3.67885878E+17   5.95203237E+08   0.00000000E+00   5.17274643E+07   0.2860223       
  41               3.98107171E-03   6.93684674E-02   1174.06045521    1.67346780E-06   4.27954383E+17   5.95203230E+08   0.00000000E+00   5.09926990E+07   0.2850168       
  42               4.89778819E-03   8.28816491E-02   1191.90849993    1.96952356E-06   5.03664459E+17   5.95203240E+08   0.00000000E+00   5.02483642E+07   0.28440441      
  43               6.02559586E-03   9.88397815E-02   1229.37879514    2.27714568E-06   5.82333666E+17   5.95203225E+08   0.00000000E+00   4.94948242E+07   0.28314338      
  44               7.41310241E-03   1.17609444E-01   1252.27646869    2.66002976E-06   6.80248851E+17   5.95203253E+08   0.00000000E+00   4.87321873E+07   0.28225895      
  45               9.12010839E-03   1.39561842E-01   1295.59231442    3.05100754E-06   7.80232736E+17   5.95203209E+08   0.00000000E+00   4.79616076E+07   0.2805338       
  46               1.12201845E-02   1.65073041E-01   1324.51894377    3.52990246E-06   9.02700779E+17   5.95203246E+08   0.00000000E+00   4.71842373E+07   0.27926843      
  47               1.38038426E-02   1.94453504E-01   1374.51098272    4.00700309E-06   1.02469212E+18   5.95203186E+08   0.00000000E+00   4.64030250E+07   0.27771017      
  48               1.69824365E-02   2.27902878E-01   1410.78909506    4.57560872E-06   1.17007461E+18   5.95203173E+08   0.00000000E+00   4.56218371E+07   0.2765407       
  49               2.08929613E-02   2.64407281E-01   1469.14754506    5.10016176E-06   1.30356844E+18   5.95203199E+08   0.00000000E+00   4.48660897E+07   0.27426225      
  50               2.57039578E-02   3.03240307E-01   1525.11732348    5.63483532E-06   1.44015592E+18   5.92934835E+08   2.33073037E+06   4.41417007E+07   0.27181559      
  51               3.16227766E-02   3.43390456E-01   1577.33300106    6.17170780E-06   1.57685104E+18   5.88874212E+08   6.47548073E+06   4.34608357E+07   0.26950427      
  52               3.89045145E-02   3.81475481E-01   1622.45210213    6.66986859E-06   1.70302328E+18   5.83460670E+08   1.18105461E+07   4.28672073E+07   0.26752044      
  53               4.78630092E-02   4.14494881E-01   1658.79678006    7.09699351E-06   1.80988853E+18   5.77906914E+08   1.71199918E+07   4.23872336E+07   0.26583651      
  54               5.88843655E-02   4.42492314E-01   1687.74554632    7.44626688E-06   1.89899841E+18   5.73284131E+08   2.18727889E+07   4.20020995E+07   0.26419055      
  55               7.24435960E-02   4.74806055E-01   1719.43033280    7.84230477E-06   2.00012669E+18   5.68227411E+08   2.71601808E+07   4.15792397E+07   0.26275112      
  56               8.91250938E-02   5.03345800E-01   1745.88573092    8.19471470E-06   2.08822107E+18   5.63681595E+08   3.12220564E+07   4.12231879E+07   0.26159232      
  57               1.09647820E-01   5.26771621E-01   1766.80373397    8.47434876E-06   2.15953328E+18   5.59867113E+08   3.48703310E+07   4.09420788E+07   0.26044104      
  58               1.34896288E-01   5.54022932E-01   1790.07099397    8.79661906E-06   2.24173011E+18   5.55384195E+08   3.95846437E+07   4.06264500E+07   0.25907862      
  59               1.65958691E-01   5.85515637E-01   1815.88754035    9.16410037E-06   2.33547589E+18   5.49994053E+08   4.50844719E+07   4.02756920E+07   0.25755489      
  60               2.04173794E-01   6.21632397E-01   1843.97451991    9.58067479E-06   2.44176893E+18   5.43454810E+08   5.16403836E+07   3.98902436E+07   0.25579894      
  61               2.51188643E-01   6.62650101E-01   1874.31726770    1.00468387E-05   2.56074894E+18   5.35577038E+08   5.95086357E+07   3.94721636E+07   0.25376705      
  62               3.09029543E-01   7.08698176E-01   1906.37336128    1.05634378E-05   2.69264558E+18   5.26446053E+08   6.86209023E+07   3.90251765E+07   0.25143357      
  63               3.80189396E-01   7.60551328E-01   1940.42677228    1.11361772E-05   2.83894586E+18   5.16329555E+08   7.87555275E+07   3.85470910E+07   0.24887458      
  64               4.67735141E-01   8.19539746E-01   1976.61485511    1.17785856E-05   3.00312774E+18   5.04900348E+08   9.02226387E+07   3.80320360E+07   0.24593249      
  65               5.75439937E-01   8.86435745E-01   2014.95321086    1.24954474E-05   3.18645753E+18   4.91656064E+08   1.03492151E+08   3.74806198E+07   0.24256037      
  66               7.07945784E-01   9.62105361E-01   2055.06808202    1.32944786E-05   3.39095682E+18   4.76283446E+08   1.18883858E+08   3.68935195E+07   0.23878632      
  67               8.70963590E-01   1.04752386E+00   2096.96271046    1.41817588E-05   3.61825403E+18   4.58567530E+08   1.36616513E+08   3.62714283E+07   0.23469517      
  68               1.07151931E+00   1.14378829E+00   2140.26464806    1.51666623E-05   3.87082919E+18   4.38363330E+08   1.56837046E+08   3.56150423E+07   0.23023589      
  69               1.31825674E+00   1.25213627E+00   2184.95168095    1.62571475E-05   4.15083622E+18   4.15618833E+08   1.79598193E+08   3.49250284E+07   0.22556323      
  70               1.62181010E+00   1.37396058E+00   2230.69301677    1.74644760E-05   4.46128847E+18   3.90325505E+08   2.04909092E+08   3.42020273E+07   0.22052688      
  71               1.99526231E+00   1.51083233E+00   2277.40536045    1.87993191E-05   4.80509270E+18   3.62576110E+08   2.32679460E+08   3.34466383E+07   0.2151339       
  72               2.45470892E+00   1.66451998E+00   2324.74372343    2.02758786E-05   5.18608664E+18   3.32530585E+08   2.62737343E+08   3.26594394E+07   0.20948158      
  73               3.01995172E+00   1.83678946E+00   2372.60208709    2.19076408E-05   5.60738417E+18   3.00649707E+08   2.94611755E+08   3.18420290E+07   0.20393969      
  74               3.71535229E+00   2.02984978E+00   2420.81167542    2.37063326E-05   6.07335594E+18   2.67858495E+08   3.27394119E+08   3.09948583E+07   0.19834819      
  75               4.57088190E+00   2.24637956E+00   2469.31524645    2.56929376E-05   6.58919623E+18   2.35008310E+08   3.60242085E+08   3.01174795E+07   0.1928456       
  76               5.62341325E+00   2.48909384E+00   2517.98878674    2.78858573E-05   7.16000487E+18   2.02759040E+08   3.92481811E+08   2.92106918E+07   0.18757418      
  77               6.91830971E+00   2.76101160E+00   2566.79430692    3.03043403E-05   7.79117579E+18   1.72300554E+08   4.22919862E+08   2.82752799E+07   0.18246451      
  78               8.51138038E+00   3.06546594E+00   2615.58535924    3.29707614E-05   8.48893946E+18   1.44753508E+08   4.50441596E+08   2.73120822E+07   0.17749777      
  79               1.04712855E+01   3.40611980E+00   2664.32443570    3.59079501E-05   9.25973698E+18   1.20909218E+08   4.74261577E+08   2.63220163E+07   0.1729086       
  80               1.28824955E+01   3.78696717E+00   2713.00248075    3.91397984E-05   1.01103732E+19   1.00910728E+08   4.94242049E+08   2.53061017E+07   0.16845181      
  81               1.58489319E+01   4.21236429E+00   2761.45520592    4.26945299E-05   1.10487656E+19   8.45372480E+07   5.10608857E+08   2.42654385E+07   0.16428352      
  82               1.94984460E+01   4.68697239E+00   2809.77064801    4.65972494E-05   1.20822374E+19   7.12354816E+07   5.23915116E+08   2.32013444E+07   0.16051986      
  83               2.39883292E+01   5.21574956E+00   2857.85396213    5.08770339E-05   1.32191198E+19   6.03332423E+07   5.34828370E+08   2.21153117E+07   0.15715894      
  84               2.95120923E+01   5.80396811E+00   2905.80863502    5.55598187E-05   1.44671787E+19   5.12535325E+07   5.43926711E+08   2.10089206E+07   0.15404685      
  85               3.63078055E+01   6.45727814E+00   2953.46150579    6.06789500E-05   1.58359462E+19   4.36193627E+07   5.51586506E+08   1.98837172E+07   0.15122919      
  86               4.46683592E+01   7.18175318E+00   3000.97305995    6.62617142E-05   1.73338175E+19   3.71996247E+07   5.58041301E+08   1.87411436E+07   0.14870087      
  87               5.49540874E+01   7.98392931E+00   3048.18782629    7.23451601E-05   1.89714619E+19   3.17550698E+07   5.63533187E+08   1.75825142E+07   0.14635562      
  88               6.76082975E+01   8.87047516E+00   3095.20857890    7.89581840E-05   2.07578707E+19   2.71230621E+07   5.68220431E+08   1.64094854E+07   0.14420532      
  89               8.31763771E+01   9.84865331E+00   3141.89522378    8.61400774E-05   2.27044503E+19   2.31698558E+07   5.72232304E+08   1.52233692E+07   0.14230798      
  90               1.02329299E+02   1.09264838E+01   3188.43361280    9.39233594E-05   2.48215494E+19   1.98021973E+07   5.75656174E+08   1.40250532E+07   0.14066861      
  91               1.25892541E+02   1.21128369E+01   3234.72166669    1.02354841E-04   2.71228169E+19   1.69120408E+07   5.78599180E+08   1.28150598E+07   0.13920442      
  92               1.54881662E+02   1.34175923E+01   3280.92845114    1.11475887E-04   2.96212697E+19   1.44348345E+07   5.81125917E+08   1.15935574E+07   0.13789399      
  93               1.90546072E+02   1.48517723E+01   3326.96233449    1.21344430E-04   3.23337621E+19   1.23171504E+07   5.83288930E+08   1.03604159E+07   0.13674494      
  94               2.34422882E+02   1.64276752E+01   3373.02434038    1.32010795E-04   3.52762550E+19   1.05208634E+07   5.85122688E+08   9.11525833E+06   0.13575212      
  95               2.88403150E+02   1.81589905E+01   3419.03280272    1.43545382E-04   3.84692991E+19   8.98717994E+06   5.86686516E+08   7.85753216E+06   0.13487813      
  96               3.54813389E+02   2.00609931E+01   3465.18081505    1.56010537E-04   4.19326556E+19   7.67633211E+06   5.88020398E+08   6.58652290E+06   0.13411576      
  97               4.36515832E+02   2.21507230E+01   3511.38916101    1.69492012E-04   4.56914333E+19   6.55104023E+06   5.89166514E+08   5.30139136E+06   0.13347403      
  98               5.37031796E+02   2.44471780E+01   3557.86944855    1.84064734E-04   4.97696476E+19   5.58788331E+06   5.90157648E+08   4.00120090E+06   0.13295662      
  99               6.60693448E+02   2.69715104E+01   3604.54760643    1.99831542E-04   5.41976357E+19   4.76116505E+06   5.90431149E+08   2.68495181E+06   0.13254401      
  100              8.12830516E+02   2.97473065E+01   3651.63055271    2.16883311E-04   5.90047067E+19   4.05634818E+06   5.90618105E+08   1.35157981E+06   0.13221375      
  101              1.00000000E+03   3.28008088E+01   3699.02817710    2.35344770E-04   6.42277566E+19   3.72905709E+06   5.91028089E+08   0.00000000E+00   0.13196392      
