# ATMO pressure-temperature profile
# Effective temperature = 350.0K
# log(g) = 5.0cm/s^2
# M/H = 0.0
# Optical depth grid in band 17 (1.20-1.33microns)
# All parameters in cgs units
#
# Model Level      Optical Depth    Pressure         Temperature      Density          Number Density   Rad Flux         Conv Flux        Radial Extension Adiabatic Gradient
#                                   [Ba]             [K]              [g/cm^3]         [/cm^3]          [ergs/s/cm^2/sr] [ergs/s/cm^2/sr] [cm]             [K/Ba]          
  1                5.00000000E-07   1.00000000E-05   48.04003131      5.86683898E-09   1.50772646E+15   8.50752049E+05   0.00000000E+00   2.94423776E+06   0.34582131      
  2                6.19412983E-07   7.00953859E-05   49.32682264      4.00510346E-08   1.02927667E+16   8.50752049E+05   0.00000000E+00   2.90503360E+06   0.34582131      
  3                7.67344888E-07   1.44468223E-04   51.73644172      7.87015389E-08   2.02256093E+16   8.50752049E+05   0.00000000E+00   2.89178665E+06   0.31479366      
  4                9.50606773E-07   2.36508094E-04   53.21827791      1.25254300E-07   3.21892629E+16   8.50752049E+05   0.00000000E+00   2.88251647E+06   0.3148132       
  5                1.17763635E-06   3.50392123E-04   55.95256255      1.76498819E-07   4.53586576E+16   8.50752049E+05   0.00000000E+00   2.87485706E+06   0.31482948      
  6                1.45888650E-06   4.91264505E-04   57.82849189      2.39431326E-07   6.15317631E+16   8.50752049E+05   0.00000000E+00   2.86800431E+06   0.31484381      
  7                1.80730647E-06   6.65464720E-04   60.17966381      3.11661194E-07   8.00942093E+16   8.50752053E+05   0.00000000E+00   2.86162731E+06   0.31485692      
  8                2.23893819E-06   8.80772785E-04   62.97620505      3.94180241E-07   1.01300885E+17   8.50752055E+05   0.00000000E+00   2.85548444E+06   0.31486926      
  9                2.77365477E-06   1.14679404E-03   64.61484980      5.00219411E-07   1.28552027E+17   8.50752061E+05   0.00000000E+00   2.84949358E+06   0.31488108      
  10               3.43607555E-06   1.47522590E-03   67.70380955      6.14119480E-07   1.57823352E+17   8.50752067E+05   0.00000000E+00   2.84356790E+06   0.31489249      
  11               4.25669961E-06   1.88050749E-03   69.24140443      7.65449686E-07   1.96713895E+17   8.50752073E+05   0.00000000E+00   2.83765675E+06   0.31490364      
  12               5.27331001E-06   2.37999205E-03   72.66179313      9.23159719E-07   2.37243999E+17   8.50752071E+05   0.00000000E+00   2.83171485E+06   0.31491463      
  13               6.53271338E-06   2.99130507E-03   74.35471852      1.13386049E-06   2.91392260E+17   8.50752058E+05   0.00000000E+00   2.82573974E+06   0.31492557      
  14               8.09289496E-06   3.73484821E-03   78.07636080      1.34822024E-06   3.46480848E+17   8.50752024E+05   0.00000000E+00   2.81972599E+06   0.31493659      
  15               1.00256884E-05   4.63592421E-03   79.70237298      1.63935317E-06   4.21299472E+17   8.50751977E+05   0.00000000E+00   2.81366498E+06   0.31494778      
  16               1.24200832E-05   5.72521583E-03   83.60596904      1.93002097E-06   4.95998563E+17   8.50751919E+05   0.00000000E+00   2.80754110E+06   0.31495923      
  17               1.53863215E-05   7.04175096E-03   85.13306180      2.33125542E-06   5.99112317E+17   8.50751887E+05   0.00000000E+00   2.80133446E+06   0.31497103      
  18               1.90609746E-05   8.63557522E-03   89.38696019      2.72285524E-06   6.99750057E+17   8.50751876E+05   0.00000000E+00   2.79500840E+06   0.31498325      
  19               2.36132303E-05   1.05673374E-02   91.10273888      3.26920076E-06   8.40156091E+17   8.50751924E+05   0.00000000E+00   2.78853368E+06   0.31499597      
  20               2.92526829E-05   1.29096740E-02   95.85700535      3.79576109E-06   9.75477505E+17   8.50752024E+05   0.00000000E+00   2.78188434E+06   0.31680894      
  21               3.62389832E-05   1.57530438E-02   97.96653643      4.53204375E-06   1.16469595E+18   8.50752177E+05   0.00000000E+00   2.77502887E+06   0.31805834      
  22               4.48937934E-05   1.92011504E-02   103.61307080     5.22300789E-06   1.34226586E+18   8.50752296E+05   0.00000000E+00   2.76794169E+06   0.32108191      
  23               5.56155970E-05   2.33729757E-02   106.52207351     6.18417243E-06   1.58927933E+18   8.50752252E+05   0.00000000E+00   2.76060120E+06   0.3218456       
  24               6.88980457E-05   2.83557565E-02   114.07488412     7.00585731E-06   1.80043332E+18   8.50751011E+05   2.30505807E+00   2.75303110E+06   0.32373897      
  25               8.53526881E-05   3.35993015E-02   119.80257071     7.90469529E-06   2.03137429E+18   8.50743935E+05   1.47725951E+01   2.74598489E+06   0.32399394      
  26               1.05737126E-04   3.79209785E-02   125.34023118     8.52792853E-06   2.19136582E+18   8.50730612E+05   3.42863060E+01   2.74072109E+06   0.32529058      
  27               1.30989898E-04   4.03258893E-02   127.12958602     8.94697350E-06   2.29754042E+18   8.50717768E+05   3.50080065E+01   2.73796759E+06   0.32530921      
  28               1.62273687E-04   4.20528456E-02   129.62896085     9.15023357E-06   2.34973664E+18   8.50710262E+05   3.57421396E+01   2.73605894E+06   0.32605564      
  29               2.01028857E-04   4.41831342E-02   130.97309880     9.51509760E-06   2.44343200E+18   8.50707065E+05   3.95923106E+01   2.73377589E+06   0.32604492      
  30               2.49039768E-04   4.68090637E-02   134.23767000     9.83545327E-06   2.52569782E+18   8.50707432E+05   3.89442918E+01   2.73106145E+06   0.32537909      
  31               3.08516931E-04   5.00433113E-02   136.38974239     1.03491137E-05   2.65760339E+18   8.50711534E+05   3.58488819E+01   2.72785574E+06   0.3252623       
  32               3.82198786E-04   5.40231863E-02   140.64427880     1.08342027E-05   2.78217193E+18   8.50719287E+05   2.82096079E+01   2.72409720E+06   0.32498093      
  33               4.73477780E-04   5.89158619E-02   143.81970000     1.15545407E-05   2.96715133E+18   8.50730590E+05   1.81946917E+01   2.71972428E+06   0.3249092       
  34               5.86556569E-04   6.49247336E-02   149.29991871     1.22656181E-05   3.14975261E+18   8.50742813E+05   6.75336672E+00   2.71467683E+06   0.32467192      
  35               7.26641509E-04   7.22973535E-02   153.70164724     1.32673049E-05   3.40698105E+18   8.50749174E+05   0.00000000E+00   2.70889739E+06   0.32454711      
  36               9.00182369E-04   8.13375907E-02   158.86635106     1.44410331E-05   3.70838848E+18   8.50751765E+05   0.00000000E+00   2.70236625E+06   0.32381076      
  37               1.11516929E-03   9.24164074E-02   163.04176773     1.59878127E-05   4.10559444E+18   8.50753982E+05   0.00000000E+00   2.69507503E+06   0.32354217      
  38               1.38150068E-03   1.05985241E-01   168.46049970     1.77454260E-05   4.55693830E+18   8.50751042E+05   0.00000000E+00   2.68701930E+06   0.32220051      
  39               1.71143891E-03   1.22590100E-01   172.47138724     2.00482879E-05   5.14830399E+18   8.50747723E+05   0.00000000E+00   2.67821585E+06   0.32193649      
  40               2.12017497E-03   1.42895597E-01   178.07197160     2.26341175E-05   5.81231469E+18   8.50743445E+05   0.00000000E+00   2.66868364E+06   0.32019835      
  41               2.62652780E-03   1.67714862E-01   182.35519396     2.59413692E-05   6.66161073E+18   8.50737849E+05   0.00000000E+00   2.65844103E+06   0.31984886      
  42               3.25381085E-03   1.98047546E-01   188.31168716     2.96645572E-05   7.61759768E+18   8.50725582E+05   0.00000000E+00   2.64750659E+06   0.31797345      
  43               4.03090537E-03   2.35105776E-01   193.18954867     3.43258795E-05   8.81465888E+18   8.50708560E+05   0.00000000E+00   2.63589331E+06   0.31759885      
  44               4.99359024E-03   2.80326650E-01   199.94742703     3.95474945E-05   1.01548709E+19   8.50691259E+05   0.00000000E+00   2.62361966E+06   0.31583072      
  45               6.18618926E-03   3.35443846E-01   205.36243892     4.60731995E-05   1.18310872E+19   8.50686777E+05   0.00000000E+00   2.61070736E+06   0.31542574      
  46               7.66361189E-03   4.02483239E-01   212.50696364     5.34423140E-05   1.37183056E+19   8.50721984E+05   0.00000000E+00   2.59719611E+06   0.31362169      
  47               9.49388141E-03   4.83643429E-01   220.52351504     6.18736057E-05   1.58853294E+19   8.50793528E+05   0.00000000E+00   2.58308219E+06   0.31302331      
  48               1.17612668E-02   5.81277345E-01   233.55878093     7.02694877E-05   1.80265674E+19   8.50255747E+05   4.93771807E+02   2.56827200E+06   0.31077394      
  49               1.45701627E-02   6.92625027E-01   246.56261903     7.96476553E-05   2.03468313E+19   8.44993763E+05   5.75574646E+03   2.55337917E+06   0.30876695      
  50               1.80498959E-02   8.18894769E-01   259.62983875     8.94284170E-05   2.28454298E+19   8.40245839E+05   1.05041092E+04   2.53841767E+06   0.3070703       
  51               2.23606798E-02   9.72706146E-01   273.66240133     1.00778659E-04   2.57449686E+19   8.37543195E+05   1.32068468E+04   2.52221576E+06   0.30556811      
  52               2.77009907E-02   1.15991180E+00   288.77238044     1.13886269E-04   2.90934453E+19   8.33359593E+05   1.73903700E+04   2.50474149E+06   0.30428141      
  53               3.43167066E-02   1.38744454E+00   304.89182388     1.29024417E-04   3.29606444E+19   8.25641241E+05   2.51086252E+04   2.48597114E+06   0.30317981      
  54               4.25124273E-02   1.66354979E+00   322.13434183     1.46420144E-04   3.74045658E+19   8.13581024E+05   3.71687074E+04   2.46588307E+06   0.30229652      
  55               5.26654988E-02   1.99800819E+00   340.42711217     1.66408373E-04   4.25107692E+19   7.97601464E+05   5.31481707E+04   2.44445643E+06   0.30161054      
  56               6.52433875E-02   2.40281532E+00   359.91483243     1.89287804E-04   4.83555679E+19   7.79168105E+05   7.15811978E+04   2.42164779E+06   0.30107122      
  57               8.08252026E-02   2.89216813E+00   380.52593552     2.15497599E-04   5.50509875E+19   7.60878687E+05   8.98704087E+04   2.39741853E+06   0.30064618      
  58               1.00128360E-01   3.48207749E+00   402.38283229     2.45359088E-04   6.26793996E+19   7.46433638E+05   1.04314561E+05   2.37176406E+06   0.30034304      
  59               1.24041612E-01   4.19088638E+00   425.36758698     2.79347413E-04   7.13620526E+19   7.39498695E+05   1.11248822E+05   2.34468985E+06   0.30010476      
  60               1.53665970E-01   5.04028583E+00   449.61567196     3.17846098E-04   8.11969216E+19   7.41287127E+05   1.09458825E+05   2.31618418E+06   0.29990535      
  61               1.90365394E-01   6.05373556E+00   474.96835268     3.61378163E-04   9.23176227E+19   7.48893152E+05   1.01851507E+05   2.28628132E+06   0.2997294       
  62               2.35829593E-01   7.25585089E+00   501.49739833     4.10232279E-04   1.04796193E+20   7.57041757E+05   9.37016228E+04   2.25505999E+06   0.29957604      
  63               2.92151824E-01   8.67826972E+00   529.08001493     4.65102534E-04   1.18805795E+20   7.64185684E+05   8.65567332E+04   2.22249504E+06   0.2994246       
  64               3.61925265E-01   1.03614036E+01   557.95451525     5.26570710E-04   1.34507232E+20   7.64436073E+05   8.63056551E+04   2.18848430E+06   0.29923432      
  65               4.48362417E-01   1.23449002E+01   587.92314711     5.95393236E-04   1.52087269E+20   7.51641079E+05   9.91002093E+04   2.15306001E+06   0.29898129      
  66               5.55443005E-01   1.46681091E+01   619.05856389     6.71860658E-04   1.71620134E+20   7.25288954E+05   1.25452443E+05   2.11632783E+06   0.29868527      
  67               6.88097217E-01   1.73796899E+01   651.16588677     7.56810403E-04   1.93319749E+20   6.91065007E+05   1.59677236E+05   2.07830106E+06   0.29835754      
  68               8.52432700E-01   2.05457407E+01   684.53510500     8.51064778E-04   2.17396184E+20   6.55092918E+05   1.95650201E+05   2.03885141E+06   0.29796151      
  69               1.05601576E+00   2.42309440E+01   718.94551604     9.55675836E-04   2.44118219E+20   6.18981248E+05   2.31770133E+05   1.99798891E+06   0.29745815      
  70               1.30821975E+00   2.84995395E+01   754.51756710     1.07103659E-03   2.73586288E+20   5.82478924E+05   2.68274055E+05   1.95579714E+06   0.29684243      
  71               1.62065660E+00   3.34332676E+01   791.03759892     1.19844179E-03   3.06131161E+20   5.48135882E+05   3.02621299E+05   1.91224948E+06   0.29613783      
  72               2.00771148E+00   3.91745284E+01   829.05924582     1.33983961E-03   3.42250467E+20   5.20960081E+05   3.29800511E+05   1.86694171E+06   0.29532496      
  73               2.48720511E+00   4.58578010E+01   868.41220526     1.49734385E-03   3.82483889E+20   5.04555142E+05   3.46204034E+05   1.81975688E+06   0.29436867      
  74               3.08121427E+00   5.35917129E+01   909.17477824     1.67142092E-03   4.26949096E+20   5.00871330E+05   3.49885619E+05   1.77086955E+06   0.29326674      
  75               3.81708825E+00   6.24471694E+01   950.72056627     1.86250030E-03   4.75757571E+20   5.10298444E+05   3.40452827E+05   1.72067916E+06   0.29206251      
  76               4.72870805E+00   7.25629508E+01   993.31704920     2.07139143E-03   5.29118425E+20   5.30431466E+05   3.20338085E+05   1.66917758E+06   0.29074419      
  77               5.85804632E+00   8.41155044E+01   1036.72732009    2.30062506E-03   5.87675181E+20   5.54724560E+05   2.96052986E+05   1.61625703E+06   0.28932073      
  78               7.25709989E+00   9.72387303E+01   1081.10436251    2.55039156E-03   6.51474617E+20   5.74213330E+05   2.76583081E+05   1.56208005E+06   0.28778278      
  79               8.99028379E+00   1.12028405E+02   1125.84793085    2.82155736E-03   7.20732753E+20   5.85481754E+05   2.65278812E+05   1.50694705E+06   0.28618665      
  80               1.11373970E+01   1.28573592E+02   1171.07754134    3.11323569E-03   7.95228549E+20   5.96293739E+05   2.54509563E+05   1.45112296E+06   0.28451293      
  81               1.37972966E+01   1.47160722E+02   1216.70198888    3.42966856E-03   8.76059354E+20   6.12269523E+05   2.38482834E+05   1.39424022E+06   0.28281562      
  82               1.70924493E+01   1.68099593E+02   1263.30906476    3.77311618E-03   9.63791050E+20   6.26716642E+05   2.24045647E+05   1.33603295E+06   0.28103592      
  83               2.11745701E+01   1.91602558E+02   1310.36892232    4.14619403E-03   1.05909168E+21   6.35450840E+05   2.15301905E+05   1.27661086E+06   0.27924854      
  84               2.62316072E+01   2.17826184E+02   1358.11706919    4.54792834E-03   1.16171264E+21   6.37982506E+05   2.12773522E+05   1.21622137E+06   0.27742476      
  85               3.24963962E+01   2.46919024E+02   1405.89481989    4.98013779E-03   1.27211848E+21   6.37470824E+05   2.13282165E+05   1.15509075E+06   0.27564408      
  86               4.02573794E+01   2.79299035E+02   1454.43919697    5.44518202E-03   1.39091216E+21   6.36641050E+05   2.14115689E+05   1.09291081E+06   0.2737784       
  87               4.98718870E+01   3.15616867E+02   1503.62369920    5.95193952E-03   1.52036156E+21   6.33997258E+05   2.16769943E+05   1.02911609E+06   0.27193457      
  88               6.17825886E+01   3.56309535E+02   1554.01366826    6.50143272E-03   1.66072778E+21   6.25023355E+05   2.25732295E+05   9.63700294E+05   0.27003667      
  89               7.65378750E+01   4.01586628E+02   1604.68629646    7.09618132E-03   1.81265410E+21   6.07170642E+05   2.43589625E+05   8.97040802E+05   0.26819549      
  90               9.48171070E+01   4.51447138E+02   1655.84555403    7.73061615E-03   1.97475362E+21   5.77721909E+05   2.73034704E+05   8.29721771E+05   0.26632591      
  91               1.17461894E+02   5.05684824E+02   1706.27706275    8.40783510E-03   2.14662512E+21   5.35708822E+05   3.15053314E+05   7.62436238E+05   0.26456242      
  92               1.45514845E+02   5.63280481E+02   1755.69465730    9.10182542E-03   2.32381502E+21   4.91075427E+05   3.59759898E+05   6.96597138E+05   0.26282652      
  93               1.80267568E+02   6.25275647E+02   1804.18036895    9.83204128E-03   2.51025246E+21   4.53339956E+05   3.97427595E+05   6.31062297E+05   0.26120576      
  94               2.23320145E+02   6.93189691E+02   1853.49229974    1.06100735E-02   2.70886367E+21   4.22016565E+05   4.28764325E+05   5.64568668E+05   0.25952753      
  95               2.76654794E+02   7.68816523E+02   1903.58757821    1.14581142E-02   2.92533553E+21   3.95490619E+05   4.55284191E+05   4.95978610E+05   0.25788833      
  96               3.42727143E+02   8.54365723E+02   1956.16243534    1.23914523E-02   3.16347744E+21   3.73033412E+05   4.77736176E+05   4.24182642E+05   0.25613065      
  97               4.24579284E+02   9.52680047E+02   2011.05926386    1.34423646E-02   3.43121586E+21   3.53937783E+05   4.96845512E+05   3.48005811E+05   0.25435812      
  98               5.25979842E+02   1.06739141E+03   2070.12338997    1.46371042E-02   3.73467927E+21   3.37073410E+05   5.13702752E+05   2.66224810E+05   0.25241401      
  99               6.51597486E+02   1.19896212E+03   2131.23102553    1.59903335E-02   4.07474817E+21   3.09641775E+05   5.42847544E+05   1.80215524E+05   0.25044106      
  100              8.07215886E+02   1.34311650E+03   2192.74305659    1.74099947E-02   4.43661538E+21   2.85263892E+05   5.65543344E+05   9.38181622E+04   0.24834925      
  101              1.00000000E+03   1.51398759E+03   2258.35648355    1.90531312E-02   4.85574261E+21   2.78425054E+05   5.72396386E+05   0.00000000E+00   0.24620435      
