# ATMO pressure-temperature profile
# Effective temperature = 1200.0K
# log(g) = 3.0cm/s^2
# M/H = 0.0
# Optical depth grid in band 17 (1.20-1.33microns)
# All parameters in cgs units
#
# Model Level      Optical Depth    Pressure         Temperature      Density          Number Density   Rad Flux         Conv Flux        Radial Extension Adiabatic Gradient
#                                   [Ba]             [K]              [g/cm^3]         [/cm^3]          [ergs/s/cm^2/sr] [ergs/s/cm^2/sr] [cm]             [K/Ba]          
  1                1.00000000E-05   1.00000000E-05   423.44605292     6.69549751E-10   1.71051840E+14   1.17570955E+08   0.00000000E+00   5.79207553E+08   0.29751568      
  2                1.20226443E-05   1.20249098E-05   480.66459238     7.09284516E-10   1.81203064E+14   1.17570955E+08   0.00000000E+00   5.76269196E+08   0.29747218      
  3                1.44543977E-05   1.42869091E-05   506.16136589     8.00257082E-10   2.04444357E+14   1.17570955E+08   0.00000000E+00   5.73266797E+08   0.29758729      
  4                1.73780083E-05   1.69080914E-05   523.22505374     9.16188407E-10   2.34062530E+14   1.17570955E+08   0.00000000E+00   5.70205598E+08   0.29766782      
  5                2.08929613E-05   1.99860504E-05   537.40602116     1.05438695E-09   2.69370659E+14   1.17570954E+08   0.00000000E+00   5.67073952E+08   0.29774458      
  6                2.51188643E-05   2.36300932E-05   548.77135919     1.22080102E-09   3.11888841E+14   1.17570954E+08   0.00000000E+00   5.63862042E+08   0.29779205      
  7                3.01995172E-05   2.79729907E-05   559.60182280     1.41717555E-09   3.62064230E+14   1.17570954E+08   0.00000000E+00   5.60560260E+08   0.29784054      
  8                3.63078055E-05   3.31741120E-05   568.92513386     1.65310333E-09   4.22347596E+14   1.17570954E+08   0.00000000E+00   5.57162149E+08   0.29786827      
  9                4.36515832E-05   3.94322223E-05   578.40108880     1.93271531E-09   4.93796481E+14   1.17570954E+08   0.00000000E+00   5.53660985E+08   0.29789607      
  10               5.24807460E-05   4.69851004E-05   586.78483825     2.26995252E-09   5.79972118E+14   1.17570954E+08   0.00000000E+00   5.50055013E+08   0.29790827      
  11               6.30957344E-05   5.61267421E-05   595.55844720     2.67158090E-09   6.82607860E+14   1.17570954E+08   0.00000000E+00   5.46342788E+08   0.29791688      
  12               7.58577575E-05   6.72043267E-05   603.41586677     3.15714753E-09   8.06689396E+14   1.17570954E+08   0.00000000E+00   5.42528484E+08   0.29791442      
  13               9.12010839E-05   8.06439627E-05   611.83507830     3.73627284E-09   9.54692095E+14   1.17570954E+08   0.00000000E+00   5.38615367E+08   0.2979034       
  14               1.09647820E-04   9.69468076E-05   619.42555423     4.43645810E-09   1.13362714E+15   1.17570953E+08   0.00000000E+00   5.34611063E+08   0.29788618      
  15               1.31825674E-04   1.16726231E-04   627.67125646     5.27127429E-09   1.34698284E+15   1.17570953E+08   0.00000000E+00   5.30520913E+08   0.29827536      
  16               1.58489319E-04   1.40708368E-04   635.12226510     6.27962068E-09   1.60467995E+15   1.17570953E+08   0.00000000E+00   5.26352565E+08   0.29821712      
  17               1.90546072E-04   1.69775159E-04   643.30076821     7.48034531E-09   1.91155111E+15   1.17570953E+08   0.00000000E+00   5.22111539E+08   0.29812794      
  18               2.29086765E-04   2.04973697E-04   650.74180491     8.92778652E-09   2.28147265E+15   1.17570952E+08   0.00000000E+00   5.17804366E+08   0.29806557      
  19               2.75422870E-04   2.47574457E-04   658.97300918     1.06483453E-08   2.72122247E+15   1.17570952E+08   0.00000000E+00   5.13435132E+08   0.29796811      
  20               3.31131121E-04   2.99095758E-04   666.51915557     1.27184809E-08   3.25030007E+15   1.17570952E+08   0.00000000E+00   5.09007939E+08   0.29789877      
  21               3.98107171E-04   3.61387145E-04   674.93367693     1.51753722E-08   3.87826465E+15   1.17570951E+08   0.00000000E+00   5.04524189E+08   0.29779008      
  22               4.78630092E-04   4.36683690E-04   682.74021726     1.81273030E-08   4.63273358E+15   1.17570951E+08   0.00000000E+00   4.99984365E+08   0.29771213      
  23               5.75439937E-04   5.27712340E-04   691.47854916     2.16287015E-08   5.52769889E+15   1.17570951E+08   0.00000000E+00   4.95387127E+08   0.29759107      
  24               6.91830971E-04   6.37770907E-04   699.65312645     2.58337631E-08   6.60249019E+15   1.17570950E+08   0.00000000E+00   4.90731105E+08   0.29750163      
  25               8.31763771E-04   7.70899527E-04   708.83509740     3.08211089E-08   7.87731850E+15   1.17570950E+08   0.00000000E+00   4.86013146E+08   0.29736291      
  26               1.00000000E-03   9.32034148E-04   717.53073814     3.68112221E-08   9.40842990E+15   1.17570949E+08   0.00000000E+00   4.81229325E+08   0.29725788      
  27               1.20226443E-03   1.12723077E-03   727.29481411     4.39218557E-08   1.12260813E+16   1.17570949E+08   0.00000000E+00   4.76374847E+08   0.29709946      
  28               1.44543977E-03   1.36390494E-03   736.63710618     5.24688126E-08   1.34108515E+16   1.17570948E+08   0.00000000E+00   4.71444695E+08   0.29697581      
  29               1.73780083E-03   1.65124962E-03   747.15728407     6.26267786E-08   1.60076115E+16   1.17570948E+08   0.00000000E+00   4.66431976E+08   0.29679072      
  30               2.08929613E-03   2.00065692E-03   757.36244451     7.48547445E-08   1.91335121E+16   1.17570947E+08   0.00000000E+00   4.61328774E+08   0.29664059      
  31               2.51188643E-03   2.42643016E-03   768.83968487     8.94273668E-08   2.28590324E+16   1.17570947E+08   0.00000000E+00   4.56124807E+08   0.29642285      
  32               3.01995172E-03   2.94660013E-03   780.12778054     1.07024586E-07   2.73578081E+16   1.17570946E+08   0.00000000E+00   4.50807779E+08   0.29624033      
  33               3.63078055E-03   3.58396517E-03   792.85498352     1.28081353E-07   3.27412955E+16   1.17570945E+08   0.00000000E+00   4.45363945E+08   0.29597893      
  34               4.36515832E-03   4.36710120E-03   805.48250943     1.53617707E-07   3.92701881E+16   1.17570943E+08   0.00000000E+00   4.39780857E+08   0.29575235      
  35               5.24807460E-03   5.33151887E-03   819.59646411     1.84308438E-07   4.71169005E+16   1.17570942E+08   0.00000000E+00   4.34049287E+08   0.29543947      
  36               6.30957344E-03   6.52157128E-03   833.69772167     2.21628417E-07   5.66590738E+16   1.17570940E+08   0.00000000E+00   4.28161098E+08   0.29516095      
  37               7.58577575E-03   7.99269070E-03   849.43956588     2.66586380E-07   6.81532170E+16   1.17570938E+08   0.00000000E+00   4.22108826E+08   0.29478248      
  38               9.12010839E-03   9.81365310E-03   865.24227449     3.21335046E-07   8.21521268E+16   1.17570935E+08   0.00000000E+00   4.15887198E+08   0.29444224      
  39               1.09647820E-02   1.20687901E-02   882.76684221     3.87318980E-07   9.90247057E+16   1.17570932E+08   0.00000000E+00   4.09494842E+08   0.29402036      
  40               1.31825674E-02   1.48627107E-02   900.56237337     4.67544881E-07   1.19539123E+17   1.17570927E+08   0.00000000E+00   4.02929321E+08   0.29365548      
  41               1.58489319E-02   1.83219776E-02   920.22933926     5.64030113E-07   1.44212236E+17   1.17570923E+08   0.00000000E+00   3.96193001E+08   0.29314629      
  42               1.90546072E-02   2.26003334E-02   940.26583192     6.80893547E-07   1.74096496E+17   1.17570918E+08   0.00000000E+00   3.89289216E+08   0.29265752      
  43               2.29086765E-02   2.78876614E-02   962.50785030     8.20750574E-07   2.09861927E+17   1.17570910E+08   0.00000000E+00   3.82216398E+08   0.29201318      
  44               2.75422870E-02   3.44139013E-02   985.49138728     9.89178348E-07   2.52933827E+17   1.17570898E+08   0.00000000E+00   3.74973352E+08   0.29130094      
  45               3.31131121E-02   4.24379843E-02   1010.71997565    1.18934485E-06   3.04123331E+17   1.17570886E+08   0.00000000E+00   3.67575503E+08   0.29037836      
  46               3.98107171E-02   5.22501343E-02   1036.87669515    1.42736899E-06   3.64994346E+17   1.17570870E+08   0.00000000E+00   3.60044668E+08   0.28955313      
  47               4.78630092E-02   6.41593953E-02   1065.51500980    1.70556900E-06   4.36140613E+17   1.17570851E+08   0.00000000E+00   3.52411882E+08   0.28863683      
  48               5.75439937E-02   7.84816948E-02   1095.05768915    2.02999142E-06   5.19107393E+17   1.17570834E+08   0.00000000E+00   3.44714700E+08   0.28772021      
  49               6.91830971E-02   9.55158622E-02   1127.09000350    2.40035078E-06   6.13822413E+17   1.17570816E+08   0.00000000E+00   3.36997900E+08   0.28661505      
  50               8.31763771E-02   1.15573290E-01   1160.02686881    2.82191190E-06   7.21631145E+17   1.17570792E+08   0.00000000E+00   3.29291231E+08   0.28556819      
  51               1.00000000E-01   1.39007220E-01   1195.15896964    3.29429619E-06   8.42437173E+17   1.17570779E+08   0.00000000E+00   3.21605370E+08   0.28436853      
  52               1.20226443E-01   1.66174970E-01   1230.83801424    3.82396099E-06   9.77891225E+17   1.17570770E+08   0.00000000E+00   3.13950885E+08   0.28311986      
  53               1.44543977E-01   1.97428294E-01   1268.73644907    4.40742628E-06   1.12710354E+18   1.17570765E+08   0.00000000E+00   3.06338035E+08   0.28157229      
  54               1.73780083E-01   2.33121286E-01   1307.29218752    5.05074417E-06   1.29162102E+18   1.17570763E+08   0.00000000E+00   2.98772964E+08   0.27996607      
  55               2.08929613E-01   2.73596975E-01   1348.18646508    5.74788880E-06   1.46989790E+18   1.17570762E+08   0.00000000E+00   2.91260837E+08   0.2784708       
  56               2.51188643E-01   3.19111984E-01   1390.12134928    6.50194415E-06   1.66270897E+18   1.17570738E+08   0.00000000E+00   2.83815576E+08   0.27728958      
  57               3.01995172E-01   3.69823155E-01   1435.13274356    7.29923590E-06   1.86649945E+18   1.17570755E+08   0.00000000E+00   2.76454409E+08   0.27564073      
  58               3.63078055E-01   4.25320588E-01   1482.06624797    8.12978810E-06   2.07861773E+18   1.17570703E+08   0.00000000E+00   2.69249935E+08   0.27376126      
  59               4.36515832E-01   4.83616868E-01   1534.78829486    8.93004720E-06   2.28233191E+18   1.16192469E+08   1.40618157E+06   2.62407771E+08   0.27153163      
  60               5.24807460E-01   5.42471955E-01   1583.28589083    9.71149520E-06   2.48166862E+18   1.12230177E+08   5.38482634E+06   2.56087726E+08   0.26949098      
  61               6.30957344E-01   6.00011141E-01   1626.63929997    1.04609347E-05   2.67173816E+18   1.06496437E+08   1.11378661E+07   2.50378784E+08   0.26771241      
  62               7.58577575E-01   6.51027532E-01   1662.53818438    1.11185025E-05   2.83630915E+18   1.00050433E+08   1.75745295E+07   2.45647921E+08   0.26623113      
  63               9.12010839E-01   6.95800702E-01   1692.07795563    1.16787482E-05   2.97845014E+18   9.44295250E+07   2.31877417E+07   2.41718632E+08   0.26478169      
  64               1.09647820E+00   7.36867027E-01   1717.97815894    1.21813539E-05   3.10668575E+18   9.00449408E+07   2.75795175E+07   2.38275608E+08   0.26337499      
  65               1.31825674E+00   7.83475817E-01   1745.81596023    1.27445490E-05   3.25052100E+18   8.54420644E+07   3.21604009E+07   2.34534863E+08   0.26201454      
  66               1.58489319E+00   8.22094039E-01   1767.97150102    1.32169947E-05   3.36799997E+18   8.13234594E+07   3.62047997E+07   2.31558942E+08   0.26093078      
  67               1.90546072E+00   8.51664096E-01   1784.25957732    1.35671629E-05   3.45729264E+18   7.81170006E+07   3.93591318E+07   2.29350727E+08   0.26007434      
  68               2.29086765E+00   8.85672594E-01   1802.56780666    1.39653122E-05   3.55883158E+18   7.49151041E+07   4.25686772E+07   2.26880040E+08   0.25909997      
  69               2.75422870E+00   9.24595360E-01   1822.66313599    1.44179142E-05   3.67427061E+18   7.15122288E+07   4.59802233E+07   2.24137030E+08   0.25800866      
  70               3.31131121E+00   9.68907377E-01   1844.84298152    1.49267450E-05   3.80407170E+18   6.78145089E+07   4.96879492E+07   2.21116466E+08   0.25674997      
  71               3.98107171E+00   1.01905404E+00   1868.77220840    1.54976152E-05   3.94972345E+18   6.37585471E+07   5.37604804E+07   2.17819402E+08   0.25531939      
  72               4.78630092E+00   1.07539580E+00   1894.63488320    1.61303693E-05   4.11120041E+18   5.93546612E+07   5.81788709E+07   2.14255906E+08   0.25368099      
  73               5.75439937E+00   1.13808093E+00   1921.90051811    1.68273873E-05   4.28911887E+18   5.48636916E+07   6.26599524E+07   2.10451081E+08   0.25191833      
  74               6.91830971E+00   1.20789390E+00   1950.92964051    1.75924851E-05   4.48448959E+18   5.07414468E+07   6.67722103E+07   2.06393522E+08   0.24994483      
  75               8.31763771E+00   1.28634944E+00   1981.65832909    1.84428449E-05   4.70171201E+18   4.69547066E+07   7.05659642E+07   2.02037933E+08   0.24771327      
  76               1.00000000E+01   1.37426989E+00   2014.32141898    1.93815557E-05   4.94161722E+18   4.32721295E+07   7.42554311E+07   1.97387614E+08   0.24514324      
  77               1.20226443E+01   1.47255778E+00   2048.45571042    2.04186691E-05   5.20680852E+18   3.96788102E+07   7.78544376E+07   1.92446859E+08   0.24236845      
  78               1.44543977E+01   1.58220508E+00   2084.31879710    2.15576881E-05   5.49824982E+18   3.62035642E+07   8.13337063E+07   1.87220674E+08   0.23928223      
  79               1.73780083E+01   1.70430952E+00   2121.38731237    2.28106757E-05   5.81908021E+18   3.28817115E+07   8.46585533E+07   1.81714330E+08   0.2359909       
  80               2.08929613E+01   1.84009568E+00   2159.95406729    2.41819807E-05   6.17051952E+18   2.97492041E+07   8.77934346E+07   1.75932799E+08   0.23242848      
  81               2.51188643E+01   1.99092675E+00   2199.45482154    2.56862966E-05   6.55640958E+18   2.68155452E+07   9.07283506E+07   1.69880827E+08   0.2287459       
  82               3.01995172E+01   2.15831272E+00   2240.24293644    2.73287473E-05   6.97822702E+18   2.40678290E+07   9.34764572E+07   1.63563088E+08   0.22468364      
  83               3.63078055E+01   2.34393153E+00   2281.63996299    2.91280291E-05   7.44086876E+18   2.14972133E+07   9.60501880E+07   1.56984082E+08   0.22040089      
  84               4.36515832E+01   2.54964052E+00   2324.06622768    3.10901764E-05   7.94614146E+18   1.90749490E+07   9.84748917E+07   1.50148266E+08   0.21583116      
  85               5.24807460E+01   2.77724746E+00   2366.74411276    3.32390926E-05   8.49941652E+18   1.68107742E+07   1.00735376E+08   1.43067726E+08   0.21130926      
  86               6.30957344E+01   3.02900327E+00   2410.25288859    3.55741285E-05   9.10254782E+18   1.47889710E+07   1.02753487E+08   1.35746345E+08   0.20666205      
  87               7.58577575E+01   3.30762952E+00   2453.81043910    3.81284815E-05   9.76341363E+18   1.29674420E+07   1.04574712E+08   1.28180878E+08   0.20203241      
  88               9.12010839E+01   3.61585350E+00   2498.06952866    4.09084261E-05   1.04841239E+19   1.13279967E+07   1.06213838E+08   1.20376443E+08   0.19746687      
  89               1.09647820E+02   3.95674422E+00   2542.20912151    4.39469484E-05   1.12733384E+19   9.86421973E+06   1.07676804E+08   1.12336538E+08   0.19298511      
  90               1.31825674E+02   4.33364927E+00   2586.92836424    4.72519035E-05   1.21337543E+19   8.59257846E+06   1.08947234E+08   1.04065406E+08   0.18852092      
  91               1.58489319E+02   4.75020878E+00   2631.34523244    5.08622481E-05   1.30755723E+19   7.47277153E+06   1.10065939E+08   9.55681866E+07   0.18421966      
  92               1.90546072E+02   5.21034824E+00   2676.25158283    5.47849593E-05   1.41015111E+19   6.50351878E+06   1.11034518E+08   8.68511529E+07   0.18013269      
  93               2.29086765E+02   5.71826460E+00   2720.75965266    5.90636848E-05   1.52229881E+19   5.64723934E+06   1.11891476E+08   7.79220257E+07   0.17616581      
  94               2.75422870E+02   6.27844833E+00   2765.64241010    6.37056575E-05   1.64430409E+19   4.90374910E+06   1.12637476E+08   6.87895323E+07   0.17233071      
  95               3.31131121E+02   6.89568587E+00   2809.99128050    6.87603381E-05   1.77745386E+19   4.25475262E+06   1.13291221E+08   5.94633823E+07   0.16886899      
  96               3.98107171E+02   7.57507591E+00   2854.74007836    7.42299814E-05   1.92196846E+19   3.69785256E+06   1.13855044E+08   4.99536360E+07   0.16562628      
  97               4.78630092E+02   8.32209738E+00   2898.88481374    8.01729405E-05   2.07935037E+19   3.21224921E+06   1.14350211E+08   4.02700161E+07   0.16261382      
  98               5.75439937E+02   9.14256190E+00   2943.40890208    8.65887244E-05   2.24979605E+19   2.79518734E+06   1.14779318E+08   3.04225664E+07   0.1597625       
  99               6.91830971E+02   1.00426518E+01   2987.24968884    9.35447543E-05   2.43502106E+19   2.43122892E+06   1.15158696E+08   2.04213286E+07   0.1572174       
  100              8.31763771E+02   1.10289246E+01   3031.51475703    1.01033660E-04   2.63511346E+19   2.11636560E+06   1.15493481E+08   1.02760780E+07   0.15478008      
  101              1.00000000E+03   1.21079491E+01   3074.99434541    1.09133471E-04   2.85201697E+19   1.95420055E+06   1.15670219E+08   0.00000000E+00   0.15255223      
