# ATMO pressure-temperature profile
# Effective temperature = 600.0K
# log(g) = 5.0cm/s^2
# M/H = 0.0
# Optical depth grid in band 17 (1.20-1.33microns)
# All parameters in cgs units
#
# Model Level      Optical Depth    Pressure         Temperature      Density          Number Density   Rad Flux         Conv Flux        Radial Extension Adiabatic Gradient
#                                   [Ba]             [K]              [g/cm^3]         [/cm^3]          [ergs/s/cm^2/sr] [ergs/s/cm^2/sr] [cm]             [K/Ba]          
  1                5.00000000E-07   1.00000000E-05   114.40047568     2.46553401E-09   6.33137460E+14   7.34805577E+06   0.00000000E+00   3.84908488E+06   0.34612403      
  2                6.19412983E-07   1.76355694E-05   121.44343117     4.09594658E-09   1.05181969E+15   7.34805577E+06   0.00000000E+00   3.82505737E+06   0.34109452      
  3                7.67344888E-07   2.70438766E-05   121.77064034     6.26419381E-09   1.60861530E+15   7.34805577E+06   0.00000000E+00   3.80648353E+06   0.33727379      
  4                9.50606773E-07   3.86450930E-05   128.24245978     8.49965595E-09   2.18267140E+15   7.34805577E+06   0.00000000E+00   3.79058451E+06   0.32498096      
  5                1.17763635E-06   5.29441931E-05   129.34961071     1.15449498E-08   2.96468836E+15   7.34805577E+06   0.00000000E+00   3.77614967E+06   0.32565047      
  6                1.45888650E-06   7.05793998E-05   135.47521033     1.46945731E-08   3.77349663E+15   7.34805577E+06   0.00000000E+00   3.76261006E+06   0.32588516      
  7                1.80730647E-06   9.23298610E-05   136.79304566     1.90378134E-08   4.88881949E+15   7.34805577E+06   0.00000000E+00   3.74960593E+06   0.32590135      
  8                2.23893819E-06   1.19173555E-04   142.16211838     2.36447615E-08   6.07186140E+15   7.34805577E+06   0.00000000E+00   3.73695372E+06   0.32580425      
  9                2.77365477E-06   1.52309388E-04   143.19771956     3.00005812E-08   7.70400243E+15   7.34805577E+06   0.00000000E+00   3.72451242E+06   0.325523        
  10               3.43607555E-06   1.93228854E-04   147.92656741     3.68438469E-08   9.46131797E+15   7.34805577E+06   0.00000000E+00   3.71220456E+06   0.32499825      
  11               4.25669961E-06   2.43762423E-04   148.85916957     4.61881746E-08   1.18608826E+16   7.34805577E+06   0.00000000E+00   3.69995467E+06   0.32432392      
  12               5.27331001E-06   3.06173575E-04   153.43283991     5.62845152E-08   1.44535730E+16   7.34805577E+06   0.00000000E+00   3.68771408E+06   0.32340006      
  13               6.53271338E-06   3.83237513E-04   154.51842538     6.99568784E-08   1.79644357E+16   7.34805577E+06   0.00000000E+00   3.67543284E+06   0.32244105      
  14               8.09289496E-06   4.78386766E-04   159.03258514     8.48473889E-08   2.17880758E+16   7.34805577E+06   0.00000000E+00   3.66308271E+06   0.32135214      
  15               1.00256884E-05   5.95829947E-04   160.73237833     1.04560480E-07   2.68500313E+16   7.34805568E+06   0.00000000E+00   3.65061388E+06   0.320331        
  16               1.24200832E-05   7.40825150E-04   164.74977253     1.26834649E-07   3.25699231E+16   7.34805568E+06   0.00000000E+00   3.63802315E+06   0.31917563      
  17               1.53863215E-05   9.19841904E-04   166.04255741     1.56261336E-07   4.01254223E+16   7.34805576E+06   0.00000000E+00   3.62530714E+06   0.3181574       
  18               1.90609746E-05   1.14076715E-03   169.60070488     1.89730806E-07   4.87186443E+16   7.34805553E+06   0.00000000E+00   3.61247636E+06   0.31696587      
  19               2.36132303E-05   1.41333281E-03   171.02611588     2.33108951E-07   5.98560218E+16   7.34805549E+06   0.00000000E+00   3.59951577E+06   0.31592943      
  20               2.92526829E-05   1.74919319E-03   176.06077571     2.80271085E-07   7.19616324E+16   7.34805503E+06   0.00000000E+00   3.58637581E+06   0.3147394       
  21               3.62389832E-05   2.16256138E-03   178.16360297     3.42426085E-07   8.79174930E+16   7.34805453E+06   0.00000000E+00   3.57303235E+06   0.31371727      
  22               4.48937934E-05   2.66984942E-03   183.86171887     4.09753872E-07   1.05177124E+17   7.34805473E+06   0.00000000E+00   3.55948901E+06   0.31255197      
  23               5.56155970E-05   3.29001646E-03   186.15437122     4.98807048E-07   1.28011997E+17   7.34805535E+06   0.00000000E+00   3.54577094E+06   0.31156286      
  24               6.88980457E-05   4.04888550E-03   192.05072816     5.95009823E-07   1.52702229E+17   7.34805840E+06   0.00000000E+00   3.53184095E+06   0.3104545       
  25               8.53526881E-05   4.96612741E-03   193.82766580     7.24172098E-07   1.85578616E+17   7.34805988E+06   0.00000000E+00   3.51786254E+06   0.30952808      
  26               1.05737126E-04   6.04012197E-03   200.41982922     8.53058641E-07   2.18288502E+17   7.34805255E+06   0.00000000E+00   3.50419317E+06   0.30852805      
  27               1.30989898E-04   7.29761872E-03   204.79906044     1.01031104E-06   2.58094678E+17   7.34805219E+06   0.00000000E+00   3.49064296E+06   0.3077392       
  28               1.62273687E-04   8.78759495E-03   215.19603119     1.15781098E-06   2.95775102E+17   7.34805432E+06   0.00000000E+00   3.47686665E+06   0.30679831      
  29               2.01028857E-04   1.06091879E-02   221.30705415     1.35921693E-06   3.47226388E+17   7.34805540E+06   0.00000000E+00   3.46234593E+06   0.30603592      
  30               2.49039768E-04   1.28366876E-02   230.84283564     1.57666149E-06   4.02774911E+17   7.34805543E+06   0.00000000E+00   3.44712980E+06   0.30516662      
  31               3.08516931E-04   1.55602102E-02   236.50149033     1.86544939E-06   4.76548842E+17   7.34805681E+06   0.00000000E+00   3.43124909E+06   0.30448924      
  32               3.82198786E-04   1.88900060E-02   245.83004285     2.17870801E-06   5.56574083E+17   7.34805696E+06   0.00000000E+00   3.41473227E+06   0.3037578       
  33               4.73477780E-04   2.29593184E-02   251.47210321     2.58863648E-06   6.61294661E+17   7.34805843E+06   0.00000000E+00   3.39759720E+06   0.30320943      
  34               5.86556569E-04   2.79298884E-02   261.05968574     3.03341117E-06   7.74917074E+17   7.34805777E+06   0.00000000E+00   3.37985918E+06   0.30260183      
  35               7.26641509E-04   3.39983915E-02   267.03855062     3.60982625E-06   9.22168424E+17   7.34805908E+06   0.00000000E+00   3.36152031E+06   0.30215871      
  36               9.00182369E-04   4.14040063E-02   277.07919534     4.23682317E-06   1.08234144E+18   7.34805731E+06   0.00000000E+00   3.34258389E+06   0.30167939      
  37               1.11516929E-03   5.04352122E-02   283.59049913     5.04247864E-06   1.28815468E+18   7.34805878E+06   0.00000000E+00   3.32304483E+06   0.30130133      
  38               1.38150068E-03   6.14425532E-02   294.26855182     5.92007616E-06   1.51234628E+18   7.34805612E+06   0.00000000E+00   3.30289847E+06   0.30087981      
  39               1.71143891E-03   7.48518625E-02   301.42212318     7.04091948E-06   1.79867760E+18   7.34805798E+06   0.00000000E+00   3.28212887E+06   0.30061011      
  40               2.12017497E-03   9.11821310E-02   312.86340092     8.26336369E-06   2.11096394E+18   7.34805469E+06   0.00000000E+00   3.26071968E+06   0.30037974      
  41               2.62652780E-03   1.11061330E-01   320.96905196     9.81073626E-06   2.50625669E+18   7.34805718E+06   0.00000000E+00   3.23864118E+06   0.30022113      
  42               3.25381085E-03   1.35248599E-01   333.60973196     1.14946554E-05   2.93643169E+18   7.34805316E+06   0.00000000E+00   3.21586462E+06   0.29999905      
  43               4.03090537E-03   1.64663727E-01   343.07358831     1.36085717E-05   3.47645408E+18   7.34805636E+06   0.00000000E+00   3.19234575E+06   0.29983563      
  44               4.99359024E-03   2.00428201E-01   357.27103479     1.59060749E-05   4.06337459E+18   7.34805200E+06   0.00000000E+00   3.16803692E+06   0.29972111      
  45               6.18618926E-03   2.43899036E-01   368.58473399     1.87618151E-05   4.79290233E+18   7.34805529E+06   0.00000000E+00   3.14287295E+06   0.29963549      
  46               7.66361189E-03   2.96705673E-01   384.93912878     2.18542557E-05   5.58289719E+18   7.34805119E+06   0.00000000E+00   3.11679442E+06   0.29947007      
  47               9.49388141E-03   3.60797112E-01   398.85007723     2.56481236E-05   6.55208031E+18   7.34805411E+06   0.00000000E+00   3.08972342E+06   0.29930417      
  48               1.17612668E-02   4.38507053E-01   418.35567208     2.97188920E-05   7.59200981E+18   7.34805039E+06   0.00000000E+00   3.06157640E+06   0.2991622       
  49               1.45701627E-02   5.32618896E-01   435.99050603     3.46377646E-05   8.84841283E+18   7.34805260E+06   0.00000000E+00   3.03224329E+06   0.29900479      
  50               1.80498959E-02   6.46502305E-01   459.69457019     3.98770009E-05   1.01865364E+19   7.34804934E+06   0.00000000E+00   3.00160039E+06   0.29870043      
  51               2.23606798E-02   7.84139211E-01   482.29752590     4.61011578E-05   1.17761676E+19   7.34805107E+06   0.00000000E+00   2.96949905E+06   0.29838872      
  52               2.77009907E-02   9.50385769E-01   510.50494988     5.27881266E-05   1.34842193E+19   7.34804823E+06   0.00000000E+00   2.93579910E+06   0.29803197      
  53               3.43167066E-02   1.15146496E+00   537.56635592     6.07371317E-05   1.55147394E+19   7.34804948E+06   0.00000000E+00   2.90028734E+06   0.29760117      
  54               4.25124273E-02   1.39574782E+00   569.64943593     6.94758263E-05   1.77470072E+19   7.34804675E+06   0.00000000E+00   2.86268198E+06   0.29693294      
  55               5.26654988E-02   1.69440470E+00   600.50004806     8.00085449E-05   2.04376022E+19   7.34804814E+06   0.00000000E+00   2.82262404E+06   0.29627475      
  56               6.52433875E-02   2.06231535E+00   635.88300531     9.19617228E-05   2.34911185E+19   7.34804465E+06   0.00000000E+00   2.77973246E+06   0.29548806      
  57               8.08252026E-02   2.51964862E+00   669.50977190     1.06710783E-04   2.72589360E+19   7.34804756E+06   0.00000000E+00   2.73356598E+06   0.29468822      
  58               1.00128360E-01   3.09068553E+00   707.57081160     1.23852823E-04   3.16381258E+19   7.34804354E+06   0.00000000E+00   2.68389433E+06   0.29364376      
  59               1.24041612E-01   3.80231044E+00   744.32974680     1.44843421E-04   3.70005378E+19   7.34804860E+06   0.00000000E+00   2.63076305E+06   0.2926357       
  60               1.53665970E-01   4.68468416E+00   786.93690406     1.68792782E-04   4.31187580E+19   7.34804055E+06   0.00000000E+00   2.57433076E+06   0.29141736      
  61               1.90365394E-01   5.77164808E+00   829.73989250     1.97228310E-04   5.03829638E+19   7.34804767E+06   0.00000000E+00   2.51475699E+06   0.2903187       
  62               2.35829593E-01   7.09437928E+00   879.53728285     2.28702020E-04   5.84232872E+19   7.34803754E+06   0.00000000E+00   2.45247633E+06   0.28900707      
  63               2.92151824E-01   8.67960328E+00   929.19239427     2.64851494E-04   6.76581422E+19   7.34804580E+06   0.00000000E+00   2.38806601E+06   0.28784027      
  64               3.61925265E-01   1.05545760E+01   983.78440625     3.04192862E-04   7.77081730E+19   7.34803604E+06   0.00000000E+00   2.32200882E+06   0.28642819      
  65               4.48362417E-01   1.27444679E+01   1035.30165138    3.49033075E-04   8.91621723E+19   7.34804752E+06   0.00000000E+00   2.25480160E+06   0.28519126      
  66               5.55443005E-01   1.52717838E+01   1088.89313778    3.97667229E-04   1.01585178E+20   7.34806639E+06   0.00000000E+00   2.18696450E+06   0.28368628      
  67               6.88097217E-01   1.81766791E+01   1137.18045719    4.53212657E-04   1.15773988E+20   7.34810946E+06   0.00000000E+00   2.11853862E+06   0.28239475      
  68               8.52432700E-01   2.15161613E+01   1186.52751988    5.14164376E-04   1.31344779E+20   7.34800870E+06   0.00000000E+00   2.04935906E+06   0.28080805      
  69               1.05601576E+00   2.53485972E+01   1230.49322054    5.84100253E-04   1.49210898E+20   7.34797799E+06   0.00000000E+00   1.97942625E+06   0.27945709      
  70               1.30821975E+00   2.97273508E+01   1276.35124001    6.60383217E-04   1.68698742E+20   7.34791389E+06   0.00000000E+00   1.90892292E+06   0.27779262      
  71               1.62065660E+00   3.47227865E+01   1317.88240962    7.47041017E-04   1.90837513E+20   7.34812198E+06   0.00000000E+00   1.83780089E+06   0.2763407       
  72               2.00771148E+00   4.04305163E+01   1362.82115434    8.41148919E-04   2.14880131E+20   7.34796797E+06   0.00000000E+00   1.76579703E+06   0.27447715      
  73               2.48720511E+00   4.69325762E+01   1404.87024806    9.47185993E-04   2.41971390E+20   7.34830136E+06   0.00000000E+00   1.69295228E+06   0.27286282      
  74               3.08121427E+00   5.43200470E+01   1451.88873994    1.06076102E-03   2.70989610E+20   7.34793389E+06   0.00000000E+00   1.61925170E+06   0.27087304      
  75               3.81708825E+00   6.26649253E+01   1497.35005757    1.18654391E-03   3.03128676E+20   7.34838034E+06   0.00000000E+00   1.54486910E+06   0.26929365      
  76               4.72870805E+00   7.20819443E+01   1548.74866755    1.31952965E-03   3.37109806E+20   7.34789520E+06   0.00000000E+00   1.46960908E+06   0.26737826      
  77               5.85804632E+00   8.26716575E+01   1599.22153688    1.46558300E-03   3.74432773E+20   7.34814838E+06   0.00000000E+00   1.39345854E+06   0.26550076      
  78               7.25709989E+00   9.44358759E+01   1655.85973192    1.61709123E-03   4.13084888E+20   7.34804188E+06   0.00000000E+00   1.31703780E+06   0.26373012      
  79               8.99028379E+00   1.07277330E+02   1712.11523964    1.77686346E-03   4.53837945E+20   6.91756608E+06   4.30469646E+05   1.24127761E+06   0.26201889      
  80               1.11373970E+01   1.21144621E+02   1767.52428893    1.94392659E-03   4.96437504E+20   6.34438150E+06   1.00365794E+06   1.16665930E+06   0.26041484      
  81               1.37972966E+01   1.36002643E+02   1821.23507204    2.11800299E-03   5.40887797E+20   5.72265385E+06   1.62540867E+06   1.09343383E+06   0.25888088      
  82               1.70924493E+01   1.51750342E+02   1873.65913171    2.29737361E-03   5.86630900E+20   5.06493398E+06   2.28311962E+06   1.02204258E+06   0.25744178      
  83               2.11745701E+01   1.68014563E+02   1923.08767693    2.47894722E-03   6.32810506E+20   4.45558307E+06   2.89255830E+06   9.53888051E+05   0.25603655      
  84               2.62316072E+01   1.85130066E+02   1971.50860246    2.66583799E-03   6.80149085E+20   3.92300724E+06   3.42511104E+06   8.87306447E+05   0.25471782      
  85               3.24963962E+01   2.02801586E+02   2017.51040908    2.85506826E-03   7.28083858E+20   3.40328251E+06   3.94494201E+06   8.23250090E+05   0.25343654      
  86               4.02573794E+01   2.20626461E+02   2061.13133694    3.04112005E-03   7.75314259E+20   2.96623008E+06   4.38219619E+06   7.62756425E+05   0.25222986      
  87               4.98718870E+01   2.39149535E+02   2103.17309048    3.23051521E-03   8.23607636E+20   2.59195750E+06   4.75713321E+06   7.03659734E+05   0.2510907       
  88               6.17825886E+01   2.57672038E+02   2143.04672947    3.41612283E-03   8.70886363E+20   2.22280164E+06   5.12745893E+06   6.47902332E+05   0.25005655      
  89               7.65378750E+01   2.75352849E+02   2178.63015908    3.59107817E-03   9.15444253E+20   1.91129354E+06   5.44102337E+06   5.97421277E+05   0.24911558      
  90               9.48171070E+01   2.93036130E+02   2212.81820084    3.76285176E-03   9.59182563E+20   1.70057593E+06   5.65404352E+06   5.49315503E+05   0.2483408       
  91               1.17461894E+02   3.12059948E+02   2247.40049485    3.94527071E-03   1.00573462E+21   1.51781446E+06   5.83708881E+06   4.99941174E+05   0.24761201      
  92               1.45514845E+02   3.31168320E+02   2280.87135162    4.12642774E-03   1.05165631E+21   1.29056820E+06   6.06293438E+06   4.52580661E+05   0.2467859       
  93               1.80267568E+02   3.47497785E+02   2307.85674887    4.28046902E-03   1.09060889E+21   1.08240008E+06   6.27007972E+06   4.13724291E+05   0.24583594      
  94               2.23320145E+02   3.62873718E+02   2332.71749466    4.42353759E-03   1.12672831E+21   9.56380863E+05   6.39276319E+06   3.78386948E+05   0.24475224      
  95               2.76654794E+02   3.79103650E+02   2357.55561295    4.57267304E-03   1.16472087E+21   8.85547318E+05   6.46290290E+06   3.42299854E+05   0.24352331      
  96               3.42727143E+02   3.98430098E+02   2386.42826826    4.74743077E-03   1.20928758E+21   8.38821841E+05   6.50961893E+06   3.00819926E+05   0.24214966      
  97               4.24579284E+02   4.21362071E+02   2418.66666700    4.95348568E-03   1.26184282E+21   7.86199373E+05   6.56222979E+06   2.53531257E+05   0.24063818      
  98               5.25979842E+02   4.48463085E+02   2455.33685437    5.19300952E-03   1.32294399E+21   7.31571199E+05   6.61684461E+06   2.00096839E+05   0.23893642      
  99               6.51597486E+02   4.80371463E+02   2495.61000481    5.47230176E-03   1.39420399E+21   6.71530790E+05   6.67680843E+06   1.40240404E+05   0.23706498      
  100              8.07215886E+02   5.17837654E+02   2540.50363958    5.79432246E-03   1.47638507E+21   6.10105207E+05   6.73798029E+06   7.37048055E+04   0.23500798      
  101              1.00000000E+03   5.61901311E+02   2589.26648014    6.16831278E-03   1.57184289E+21   5.75604246E+05   6.77226660E+06   0.00000000E+00   0.23280948      
