# ATMO pressure-temperature profile
# Effective temperature = 900.0K
# log(g) = 5.0cm/s^2
# M/H = 0.0
# Optical depth grid in band 17 (1.20-1.33microns)
# All parameters in cgs units
#
# Model Level      Optical Depth    Pressure         Temperature      Density          Number Density   Rad Flux         Conv Flux        Radial Extension Adiabatic Gradient
#                                   [Ba]             [K]              [g/cm^3]         [/cm^3]          [ergs/s/cm^2/sr] [ergs/s/cm^2/sr] [cm]             [K/Ba]          
  1                5.00000000E-07   1.00000000E-05   204.06583061     1.38941213E-09   3.54940493E+14   3.71999190E+07   0.00000000E+00   4.99776385E+06   0.31117563      
  2                6.19412983E-07   1.57264096E-05   240.35094817     1.85517590E-09   4.73924961E+14   3.71999190E+07   0.00000000E+00   4.96209621E+06   0.30914143      
  3                7.67344888E-07   2.26302247E-05   245.19706862     2.61682656E-09   6.68496954E+14   3.71999190E+07   0.00000000E+00   4.93076269E+06   0.30601844      
  4                9.50606773E-07   3.11029071E-05   256.05858312     3.44399822E-09   8.79807146E+14   3.71999190E+07   0.00000000E+00   4.90253976E+06   0.30682978      
  5                1.17763635E-06   4.15265869E-05   256.38921450     4.59227409E-09   1.17314671E+15   3.71999190E+07   0.00000000E+00   4.87632924E+06   0.30483111      
  6                1.45888650E-06   5.43661618E-05   265.81187054     5.79903216E-09   1.48142661E+15   3.71999190E+07   0.00000000E+00   4.85144874E+06   0.30555581      
  7                1.80730647E-06   7.01768994E-05   266.33065299     7.47092359E-09   1.90852943E+15   3.71999190E+07   0.00000000E+00   4.82742795E+06   0.30388955      
  8                2.23893819E-06   8.96587903E-05   275.29894758     9.23399125E-09   2.35892516E+15   3.71999190E+07   0.00000000E+00   4.80397220E+06   0.30445813      
  9                2.77365477E-06   1.13655059E-04   276.14760290     1.16694046E-08   2.98107795E+15   3.71999190E+07   0.00000000E+00   4.78085556E+06   0.30423044      
  10               3.43607555E-06   1.43230227E-04   284.71259785     1.42635957E-08   3.64379416E+15   3.71999190E+07   0.00000000E+00   4.75793167E+06   0.30465339      
  11               4.25669961E-06   1.79669722E-04   285.73849204     1.78281905E-08   4.55440856E+15   3.71999190E+07   0.00000000E+00   4.73508072E+06   0.30354585      
  12               5.27331001E-06   2.24592553E-04   293.99491693     2.16598989E-08   5.53326371E+15   3.71999190E+07   0.00000000E+00   4.71222024E+06   0.30386993      
  13               6.53271338E-06   2.79956546E-04   295.17372199     2.68914332E-08   6.86971585E+15   3.71999190E+07   0.00000000E+00   4.68928030E+06   0.30295017      
  14               8.09289496E-06   3.48218749E-04   303.33410185     3.25485507E-08   8.31489468E+15   3.71999190E+07   0.00000000E+00   4.66620711E+06   0.30320108      
  15               1.00256884E-05   4.32355010E-04   304.75149006     4.02249530E-08   1.02759149E+16   3.71999190E+07   0.00000000E+00   4.64295461E+06   0.30242324      
  16               1.24200832E-05   5.36099564E-04   313.02408689     4.85588340E-08   1.24049077E+16   3.71999190E+07   0.00000000E+00   4.61948080E+06   0.30259294      
  17               1.53863215E-05   6.63972102E-04   314.66372516     5.98279163E-08   1.52837172E+16   3.71999191E+07   0.00000000E+00   4.59575662E+06   0.30196593      
  18               1.90609746E-05   8.21651654E-04   323.12950005     7.20960479E-08   1.84177666E+16   3.71999190E+07   0.00000000E+00   4.57174797E+06   0.30208019      
  19               2.36132303E-05   1.01600624E-03   324.98773891     8.86400392E-08   2.26441090E+16   3.71999191E+07   0.00000000E+00   4.54743577E+06   0.30156688      
  20               2.92526829E-05   1.25567803E-03   333.73504115     1.06678409E-07   2.72522476E+16   3.71999190E+07   0.00000000E+00   4.52278878E+06   0.3016441       
  21               3.62389832E-05   1.55108545E-03   335.82589784     1.30954922E-07   3.34539481E+16   3.71999191E+07   0.00000000E+00   4.49779556E+06   0.30121188      
  22               4.48937934E-05   1.91540507E-03   344.96314848     1.57430058E-07   4.02173796E+16   3.71999189E+07   0.00000000E+00   4.47242220E+06   0.30126485      
  23               5.56155970E-05   2.36447018E-03   347.25180237     1.93058692E-07   4.93191034E+16   3.71999191E+07   0.00000000E+00   4.44666368E+06   0.30090269      
  24               6.88980457E-05   2.91835035E-03   356.75719692     2.31933759E-07   5.92502960E+16   3.71999189E+07   0.00000000E+00   4.42048852E+06   0.30093917      
  25               8.53526881E-05   3.60112869E-03   359.31186190     2.84162572E-07   7.25926962E+16   3.71999191E+07   0.00000000E+00   4.39389264E+06   0.30063279      
  26               1.05737126E-04   4.44343120E-03   369.23522373     3.41204106E-07   8.71648076E+16   3.71999190E+07   0.00000000E+00   4.36684198E+06   0.30065777      
  27               1.30989898E-04   5.48172264E-03   371.96835531     4.17840379E-07   1.06742385E+17   3.71999191E+07   0.00000000E+00   4.33934361E+06   0.30039976      
  28               1.62273687E-04   6.76242021E-03   382.30051332     5.01528459E-07   1.28121824E+17   3.71999192E+07   0.00000000E+00   4.31136707E+06   0.30041679      
  29               2.01028857E-04   8.34107631E-03   385.39035563     6.13649668E-07   1.56764273E+17   3.71999192E+07   0.00000000E+00   4.28291070E+06   0.30020219      
  30               2.49039768E-04   1.02885254E-02   396.30812566     7.36068489E-07   1.88038161E+17   3.71999193E+07   0.00000000E+00   4.25393412E+06   0.30021246      
  31               3.08516931E-04   1.26888299E-02   399.87907088     8.99687074E-07   2.29836363E+17   3.71999195E+07   0.00000000E+00   4.22443823E+06   0.30010408      
  32               3.82198786E-04   1.56510283E-02   411.66814554     1.07793520E-06   2.75373062E+17   3.71999192E+07   0.00000000E+00   4.19435860E+06   0.30009844      
  33               4.73477780E-04   1.93043100E-02   415.98361939     1.31576180E-06   3.36127382E+17   3.71999178E+07   0.00000000E+00   4.16368261E+06   0.2998592       
  34               5.86556569E-04   2.38181117E-02   428.88689108     1.57457006E-06   4.02244759E+17   3.71999153E+07   0.00000000E+00   4.13232280E+06   0.29985194      
  35               7.26641509E-04   2.93931256E-02   434.27890197     1.91899948E-06   4.90233380E+17   3.71999149E+07   0.00000000E+00   4.10025069E+06   0.29976641      
  36               9.00182369E-04   3.63016143E-02   448.71274494     2.29378587E-06   5.85980782E+17   3.71999372E+07   0.00000000E+00   4.06732234E+06   0.29977531      
  37               1.11516929E-03   4.48686212E-02   455.82804792     2.79090726E-06   7.12963865E+17   3.71999289E+07   0.00000000E+00   4.03346274E+06   0.29963901      
  38               1.38150068E-03   5.55443187E-02   472.42463650     3.33361325E-06   8.51594693E+17   3.71998801E+07   0.00000000E+00   3.99846277E+06   0.29961969      
  39               1.71143891E-03   6.88618815E-02   481.66781556     4.05358204E-06   1.03551667E+18   3.71999335E+07   0.00000000E+00   3.96223449E+06   0.29952946      
  40               2.12017497E-03   8.55319004E-02   499.50592185     4.85501475E-06   1.24026166E+18   3.71999226E+07   0.00000000E+00   3.92465747E+06   0.29951737      
  41               2.62652780E-03   1.06421787E-01   510.88196152     5.90649730E-06   1.50881439E+18   3.71999137E+07   0.00000000E+00   3.88564721E+06   0.29937671      
  42               3.25381085E-03   1.32711567E-01   531.28706413     7.08264435E-06   1.80927830E+18   3.71999193E+07   0.00000000E+00   3.84500050E+06   0.29931962      
  43               4.03090537E-03   1.65828447E-01   545.51976166     8.61912305E-06   2.20178234E+18   3.71999114E+07   0.00000000E+00   3.80261471E+06   0.29918304      
  44               4.99359024E-03   2.07645430E-01   569.09835610     1.03453523E-05   2.64277924E+18   3.71999233E+07   0.00000000E+00   3.75833042E+06   0.29913512      
  45               6.18618926E-03   2.60433260E-01   587.01104804     1.25793619E-05   3.21348304E+18   3.71999123E+07   0.00000000E+00   3.71205695E+06   0.29892907      
  46               7.66361189E-03   3.26994094E-01   614.71720864     1.50823460E-05   3.85292342E+18   3.71999258E+07   0.00000000E+00   3.66373371E+06   0.29882782      
  47               9.49388141E-03   4.10625087E-01   637.18282896     1.82719040E-05   4.66774643E+18   3.71999103E+07   0.00000000E+00   3.61335568E+06   0.29855208      
  48               1.17612668E-02   5.15204101E-01   669.51904581     2.18180204E-05   5.57368237E+18   3.71999210E+07   0.00000000E+00   3.56097805E+06   0.29837282      
  49               1.45701627E-02   6.45112138E-01   696.59266294     2.62575124E-05   6.70783170E+18   3.71999223E+07   0.00000000E+00   3.50670280E+06   0.29791404      
  50               1.80498959E-02   8.04868259E-01   733.16399835     3.11256623E-05   7.95150817E+18   3.71999077E+07   0.00000000E+00   3.45082079E+06   0.29757226      
  51               2.23606798E-02   9.99258171E-01   764.41536981     3.70631619E-05   9.46834638E+18   3.71999355E+07   0.00000000E+00   3.39358819E+06   0.29695828      
  52               2.77009907E-02   1.23372477E+00   804.86234258     4.34602280E-05   1.11025443E+19   3.71998991E+07   0.00000000E+00   3.33516778E+06   0.29649386      
  53               3.43167066E-02   1.51457670E+00   839.98194248     5.11232063E-05   1.30601198E+19   3.71999508E+07   0.00000000E+00   3.27558471E+06   0.29554522      
  54               4.25124273E-02   1.84810738E+00   884.10203952     5.92680329E-05   1.51408636E+19   3.71998840E+07   0.00000000E+00   3.21499249E+06   0.29477068      
  55               5.26654988E-02   2.24121706E+00   922.65105887     6.88718824E-05   1.75943114E+19   3.71999660E+07   0.00000000E+00   3.15346307E+06   0.29357998      
  56               6.52433875E-02   2.70148923E+00   970.10273368     7.89555732E-05   2.01702533E+19   3.71998612E+07   0.00000000E+00   3.09104599E+06   0.2926146       
  57               8.08252026E-02   3.23829688E+00   1012.18778933    9.07119923E-05   2.31729544E+19   3.71999817E+07   0.00000000E+00   3.02761563E+06   0.29108253      
  58               1.00128360E-01   3.86278459E+00   1063.15903510    1.03016665E-04   2.63164980E+19   3.71998350E+07   0.00000000E+00   2.96301448E+06   0.28981964      
  59               1.24041612E-01   4.58980817E+00   1108.38773006    1.17409253E-04   2.99936048E+19   3.71999970E+07   0.00000000E+00   2.89690763E+06   0.28801449      
  60               1.53665970E-01   5.43976625E+00   1162.05798250    1.32720891E-04   3.39061344E+19   3.71998604E+07   0.00000000E+00   2.82881755E+06   0.28655033      
  61               1.90365394E-01   6.43992363E+00   1209.12604324    1.51001087E-04   3.85775801E+19   3.72000619E+07   0.00000000E+00   2.75816705E+06   0.28455129      
  62               2.35829593E-01   7.62888374E+00   1263.65816195    1.71149249E-04   4.37277598E+19   3.71998667E+07   0.00000000E+00   2.68420622E+06   0.28293636      
  63               2.92151824E-01   9.05343336E+00   1310.24164413    1.95875642E-04   5.00481179E+19   3.71995527E+07   0.00000000E+00   2.60640130E+06   0.28080353      
  64               3.61925265E-01   1.07693085E+01   1363.83187023    2.23826385E-04   5.71943096E+19   3.71987415E+07   0.00000000E+00   2.52445103E+06   0.27907794      
  65               4.48362417E-01   1.28259651E+01   1408.87967838    2.58033764E-04   6.59389441E+19   3.71975688E+07   0.00000000E+00   2.43887102E+06   0.27690201      
  66               5.55443005E-01   1.52764634E+01   1461.38482480    2.96270490E-04   7.57153738E+19   3.71980860E+07   0.00000000E+00   2.35024145E+06   0.27514579      
  67               6.88097217E-01   1.81748025E+01   1505.68909523    3.42095766E-04   8.74299511E+19   3.71998381E+07   0.00000000E+00   2.25920115E+06   0.27294982      
  68               8.52432700E-01   2.15706025E+01   1558.61681223    3.92207797E-04   1.00241777E+20   3.72087420E+07   0.00000000E+00   2.16649363E+06   0.27127037      
  69               1.05601576E+00   2.54852131E+01   1604.33011490    4.50177258E-04   1.15058941E+20   3.72205555E+07   0.00000000E+00   2.07333102E+06   0.26918869      
  70               1.30821975E+00   2.98995863E+01   1660.17927482    5.10414073E-04   1.30447581E+20   3.72358067E+07   0.00000000E+00   1.98123816E+06   0.2676228       
  71               1.62065660E+00   3.47542050E+01   1710.46099862    5.76047916E-04   1.47170248E+20   3.72303132E+07   0.00000000E+00   1.89170454E+06   0.26561482      
  72               2.00771148E+00   3.99762118E+01   1772.27924333    6.39501583E-04   1.63378659E+20   3.71846185E+07   0.00000000E+00   1.80566581E+06   0.26402445      
  73               2.48720511E+00   4.53972962E+01   1831.35741222    7.03003542E-04   1.79548887E+20   3.44416359E+07   2.75830167E+06   1.72481167E+06   0.26191721      
  74               3.08121427E+00   5.06684956E+01   1885.78880791    7.62551629E-04   1.94612529E+20   2.99078502E+07   7.29262473E+06   1.65281344E+06   0.26016529      
  75               3.81708825E+00   5.55546583E+01   1930.13316942    8.17460901E-04   2.08477431E+20   2.52554135E+07   1.19454495E+07   1.59092402E+06   0.25817666      
  76               4.72870805E+00   5.98860731E+01   1968.94546498    8.63795568E-04   2.20301771E+20   2.18783807E+07   1.53227611E+07   1.53937843E+06   0.25694156      
  77               5.85804632E+00   6.47996410E+01   2008.00373826    9.16446293E-04   2.33740475E+20   1.89498541E+07   1.82516138E+07   1.48415307E+06   0.25528636      
  78               7.25709989E+00   6.90690097E+01   2041.97639080    9.60803729E-04   2.44995638E+20   1.57067280E+07   2.14950462E+07   1.43865342E+06   0.25434736      
  79               8.99028379E+00   7.26076488E+01   2066.95913370    9.97796962E-04   2.54434690E+20   1.36894766E+07   2.35123466E+07   1.40251259E+06   0.25288985      
  80               1.11373970E+01   7.67336248E+01   2097.04877501    1.03933356E-03   2.65034873E+20   1.27868192E+07   2.44150570E+07   1.36199641E+06   0.25212751      
  81               1.37972966E+01   8.15132291E+01   2128.14075970    1.08786327E-03   2.77430106E+20   1.11067332E+07   2.60944230E+07   1.31704662E+06   0.25102506      
  82               1.70924493E+01   8.51195936E+01   2152.36428785    1.12418666E-03   2.86443917E+20   8.90966812E+06   2.82892015E+07   1.28443158E+06   0.25078696      
  83               2.11745701E+01   8.77595251E+01   2167.91480057    1.15071622E-03   2.93209403E+20   7.80674106E+06   2.93906177E+07   1.26122082E+06   0.24987045      
  84               2.62316072E+01   9.09159821E+01   2188.08817664    1.18108030E-03   3.00954786E+20   7.56212508E+06   2.96354342E+07   1.23414534E+06   0.24954434      
  85               3.24963962E+01   9.46710185E+01   2209.31677268    1.21800777E-03   3.10373690E+20   7.19216026E+06   3.00056140E+07   1.20283775E+06   0.24841073      
  86               4.02573794E+01   9.91151891E+01   2235.52901442    1.26018159E-03   3.21133596E+20   6.89864759E+06   3.02993330E+07   1.16696626E+06   0.2478501       
  87               4.98718870E+01   1.04347159E+02   2263.25310595    1.31039126E-03   3.33943769E+20   6.48333183E+06   3.07148606E+07   1.12625182E+06   0.24641659      
  88               6.17825886E+01   1.10475173E+02   2296.10991660    1.36740880E-03   3.48496046E+20   6.10913777E+06   3.10892535E+07   1.08047238E+06   0.24531459      
  89               7.65378750E+01   1.17616218E+02   2330.69963908    1.43423750E-03   3.65516292E+20   5.65658244E+06   3.15419996E+07   1.02947869E+06   0.24380979      
  90               9.48171070E+01   1.25900529E+02   2370.45731949    1.50937474E-03   3.84699176E+20   5.24782375E+06   3.19509291E+07   9.73173533E+05   0.24239652      
  91               1.17461894E+02   1.35471336E+02   2411.93047146    1.59602620E-03   4.06825784E+20   4.80678859E+06   3.23921219E+07   9.11509646E+05   0.24051181      
  92               1.45514845E+02   1.46488072E+02   2458.39613254    1.69297778E-03   4.31594836E+20   4.40405034E+06   3.27949895E+07   8.44489015E+05   0.23880294      
  93               1.80267568E+02   1.59127802E+02   2506.43771582    1.80353555E-03   4.59848724E+20   3.98065855E+06   3.32184820E+07   7.72153573E+05   0.23655912      
  94               2.23320145E+02   1.73597477E+02   2559.15230683    1.92664112E-03   4.91329809E+20   3.59632462E+06   3.36028923E+07   6.94529259E+05   0.23450253      
  95               2.76654794E+02   1.90139190E+02   2613.30492952    2.06604801E-03   5.26996089E+20   3.21023110E+06   3.39890466E+07   6.11618314E+05   0.23189901      
  96               3.42727143E+02   2.09037490E+02   2671.81294280    2.22105842E-03   5.66687944E+20   2.86266547E+06   3.43366555E+07   5.23396688E+05   0.22952485      
  97               4.24579284E+02   2.30624153E+02   2731.69368028    2.39596278E-03   6.11503053E+20   2.52312489E+06   3.46762398E+07   4.29819871E+05   0.22660172      
  98               5.25979842E+02   2.55292080E+02   2795.62023272    2.59061590E-03   6.61431702E+20   2.22864332E+06   3.49707607E+07   3.30806336E+05   0.22413132      
  99               6.51597486E+02   2.83501074E+02   2861.05009618    2.80986801E-03   7.17720063E+20   1.95804785E+06   3.52414040E+07   2.26250819E+05   0.22092946      
  100              8.07215886E+02   3.15793216E+02   2930.11407337    3.05458549E-03   7.80627969E+20   1.72715463E+06   3.54723439E+07   1.16025258E+05   0.21823062      
  101              1.00000000E+03   3.52797418E+02   3000.89687962    3.33008103E-03   8.51530416E+20   1.60534899E+06   3.55941413E+07   0.00000000E+00   0.2154185       
