# ATMO pressure-temperature profile
# Effective temperature = 500.0K
# log(g) = 4.0cm/s^2
# M/H = 0.0
# Optical depth grid in band 17 (1.20-1.33microns)
# All parameters in cgs units
#
# Model Level      Optical Depth    Pressure         Temperature      Density          Number Density   Rad Flux         Conv Flux        Radial Extension Adiabatic Gradient
#                                   [Ba]             [K]              [g/cm^3]         [/cm^3]          [ergs/s/cm^2/sr] [ergs/s/cm^2/sr] [cm]             [K/Ba]          
  1                5.00000000E-05   1.00000000E-05   75.59631800      3.72866155E-09   9.58131672E+14   3.54356740E+06   0.00000000E+00   3.31977803E+07   0.34582091      
  2                5.91534807E-05   2.39954812E-04   105.75310145     6.39506162E-08   1.64347155E+16   3.54356741E+06   0.00000000E+00   3.17086124E+07   0.31830032      
  3                6.99826855E-05   3.87720100E-04   114.93810408     9.51465696E-08   2.44331874E+16   3.54356741E+06   0.00000000E+00   3.15191476E+07   0.31482159      
  4                8.27943887E-05   4.68932071E-04   128.68732411     1.02781042E-07   2.63936835E+16   3.54356741E+06   0.00000000E+00   3.14370242E+07   0.32531239      
  5                9.79515255E-05   5.63903302E-04   131.88503090     1.20600186E-07   3.09695555E+16   3.54356744E+06   0.00000000E+00   3.13517217E+07   0.32384781      
  6                1.15883473E-04   6.75420307E-04   140.96908150     1.35141619E-07   3.47037242E+16   3.54356751E+06   0.00000000E+00   3.12643698E+07   0.32579386      
  7                1.37098216E-04   8.06520816E-04   142.51528483     1.59622088E-07   4.09901941E+16   3.54356740E+06   0.00000000E+00   3.11751084E+07   0.32590237      
  8                1.62196734E-04   9.60864259E-04   149.39325434     1.81413701E-07   4.65861575E+16   3.54356743E+06   0.00000000E+00   3.10844086E+07   0.32507857      
  9                1.91890027E-04   1.14258512E-03   150.65661160     2.13914035E-07   5.49321006E+16   3.54356739E+06   0.00000000E+00   3.09921620E+07   0.32576406      
  10               2.27019260E-04   1.35658889E-03   156.96154122     2.43778184E-07   6.26009383E+16   3.54356747E+06   0.00000000E+00   3.08984480E+07   0.32403354      
  11               2.68579588E-04   1.60854047E-03   158.56322213     2.86133747E-07   7.34776687E+16   3.54356712E+06   0.00000000E+00   3.08030509E+07   0.3251385       
  12               3.17748350E-04   1.90533457E-03   163.83464491     3.28024417E-07   8.42347599E+16   3.54356779E+06   0.00000000E+00   3.07061745E+07   0.32363435      
  13               3.75918418E-04   2.25475524E-03   166.02330831     3.83070910E-07   9.83685296E+16   3.54356704E+06   0.00000000E+00   3.06076017E+07   0.32354426      
  14               4.44737657E-04   2.66609225E-03   171.06780040     4.39595428E-07   1.12884091E+17   3.54356666E+06   0.00000000E+00   3.05073639E+07   0.32224476      
  15               5.26155608E-04   3.15020425E-03   172.95340654     5.13778232E-07   1.31927530E+17   3.54356688E+06   0.00000000E+00   3.04054968E+07   0.32222956      
  16               6.22478712E-04   3.71981114E-03   177.70483132     5.90446788E-07   1.51616859E+17   3.54356807E+06   0.00000000E+00   3.03020786E+07   0.32080517      
  17               7.36435649E-04   4.38951204E-03   179.52219828     6.89781080E-07   1.77102188E+17   3.54357001E+06   0.00000000E+00   3.01971385E+07   0.32086597      
  18               8.71254639E-04   5.17581104E-03   184.85037124     7.89861864E-07   2.02807460E+17   3.54356997E+06   0.00000000E+00   3.00906123E+07   0.31944699      
  19               1.03075489E-03   6.09702936E-03   186.67806217     9.21665938E-07   2.36565191E+17   3.54356902E+06   0.00000000E+00   2.99826381E+07   0.3189791       
  20               1.21945479E-03   7.17278087E-03   192.76711088     1.04986772E-06   2.69513463E+17   3.54356897E+06   0.00000000E+00   2.98732783E+07   0.31789209      
  21               1.44269991E-03   8.42032447E-03   195.06034557     1.21946235E-06   3.12669614E+17   3.54356685E+06   0.00000000E+00   2.97630028E+07   0.31695712      
  22               1.70681442E-03   9.85134288E-03   202.14297391     1.37596047E-06   3.52990180E+17   3.54356420E+06   0.00000000E+00   2.96525293E+07   0.31587269      
  23               2.01928028E-03   1.14579835E-02   205.71167328     1.57925114E-06   4.03436414E+17   3.54356746E+06   0.00000000E+00   2.95434706E+07   0.31513561      
  24               2.38894914E-03   1.31992414E-02   216.43242507     1.72913377E-06   4.41725515E+17   3.54356692E+06   0.00000000E+00   2.94380991E+07   0.31296963      
  25               2.82629313E-03   1.52307654E-02   224.42169821     1.92423819E-06   4.91567005E+17   3.54356706E+06   0.00000000E+00   2.93267265E+07   0.31156573      
  26               3.34370152E-03   1.76026056E-02   233.59543359     2.13655735E-06   5.45806181E+17   3.54356695E+06   0.00000000E+00   2.92097500E+07   0.31004312      
  27               3.95583167E-03   2.03725642E-02   240.64703961     2.40030880E-06   6.13184279E+17   3.54356671E+06   0.00000000E+00   2.90874342E+07   0.30902828      
  28               4.68002425E-03   2.36080236E-02   249.26661415     2.68532875E-06   6.85995641E+17   3.54356698E+06   0.00000000E+00   2.89599948E+07   0.30785993      
  29               5.53679448E-03   2.73868057E-02   256.19529478     3.03090397E-06   7.74276486E+17   3.54356675E+06   0.00000000E+00   2.88275403E+07   0.30700191      
  30               6.55041330E-03   3.17998213E-02   264.88241066     3.40387422E-06   8.69555685E+17   3.54356692E+06   0.00000000E+00   2.86901479E+07   0.30600612      
  31               7.74959494E-03   3.69521777E-02   272.11280747     3.85028609E-06   9.83596319E+17   3.54356677E+06   0.00000000E+00   2.85478257E+07   0.30528944      
  32               9.16831029E-03   4.29657041E-02   281.27654764     4.33102166E-06   1.10640531E+18   3.54356687E+06   0.00000000E+00   2.84005648E+07   0.30447514      
  33               1.08467493E-02   4.99806952E-02   289.21635258     4.89983430E-06   1.25171451E+18   3.54356680E+06   0.00000000E+00   2.82482853E+07   0.30385834      
  34               1.28324595E-02   5.81606155E-02   299.18677037     5.51173786E-06   1.40803175E+18   3.54356683E+06   0.00000000E+00   2.80908819E+07   0.30317948      
  35               1.51816929E-02   6.76948941E-02   308.04515620     6.23079518E-06   1.59172255E+18   3.54356682E+06   0.00000000E+00   2.79281878E+07   0.30269274      
  36               1.79609996E-02   7.88037930E-02   319.03843080     7.00335380E-06   1.78908082E+18   3.54356679E+06   0.00000000E+00   2.77600187E+07   0.30216422      
  37               2.12491128E-02   9.17416322E-02   329.14797559     7.90273144E-06   2.01883634E+18   3.54356681E+06   0.00000000E+00   2.75861105E+07   0.30174541      
  38               2.51391797E-02   1.06802052E-01   341.67021673     8.86287087E-06   2.26411412E+18   3.54356677E+06   0.00000000E+00   2.74061566E+07   0.30128507      
  39               2.97413996E-02   1.24321677E-01   353.56796131     9.96955837E-06   2.54682906E+18   3.54356678E+06   0.00000000E+00   2.72197764E+07   0.30095628      
  40               3.51861462E-02   1.44694675E-01   368.04986333     1.11467358E-05   2.84755241E+18   3.54356675E+06   0.00000000E+00   2.70265159E+07   0.30067138      
  41               4.16276604E-02   1.68373133E-01   382.29747952     1.24875040E-05   3.19004785E+18   3.54356675E+06   0.00000000E+00   2.68258179E+07   0.30047108      
  42               4.92484201E-02   1.95862686E-01   400.46996452     1.38671122E-05   3.54248155E+18   3.53949847E+06   4.06809303E+03   2.66169186E+07   0.30022466      
  43               5.82643093E-02   2.27729224E-01   418.57645751     1.54258184E-05   3.94066764E+18   3.52369865E+06   1.98678489E+04   2.63990384E+07   0.29999613      
  44               6.89307339E-02   2.64653655E-01   438.31625249     1.71196349E-05   4.37336939E+18   3.49708023E+06   4.64862074E+04   2.61718205E+07   0.29982948      
  45               8.15498567E-02   3.07455113E-01   457.99620969     1.90337290E-05   4.86234395E+18   3.46036841E+06   8.31980012E+04   2.59347107E+07   0.29973471      
  46               9.64791575E-02   3.57110226E-01   479.50256421     2.11165076E-05   5.39432604E+18   3.41646538E+06   1.27100979E+05   2.56870300E+07   0.29962734      
  47               1.14141560E-01   4.14878156E-01   501.02074317     2.34801225E-05   5.99778235E+18   3.37590277E+06   1.67663560E+05   2.54275908E+07   0.2994764       
  48               1.35037411E-01   4.82462571E-01   524.71277548     2.60721030E-05   6.65990184E+18   3.33851326E+06   2.05052997E+05   2.51544359E+07   0.29930985      
  49               1.59758657E-01   5.62208431E-01   548.72960977     2.90516441E-05   7.42104044E+18   3.31193146E+06   2.31634748E+05   2.48646775E+07   0.29918088      
  50               1.89005613E-01   6.57618385E-01   575.65897375     3.23919133E-05   8.27436180E+18   3.29910903E+06   2.44457111E+05   2.45536550E+07   0.29903054      
  51               2.23606798E-01   7.73436810E-01   603.64697717     3.63299584E-05   9.28042033E+18   3.29910333E+06   2.44462746E+05   2.42160344E+07   0.29878942      
  52               2.64542408E-01   9.15865175E-01   635.54899635     4.08601184E-05   1.04377850E+19   3.30616071E+06   2.37405356E+05   2.38463622E+07   0.29844787      
  53               3.12972084E-01   1.09204551E+00   669.10739588     4.62760501E-05   1.18214499E+19   3.31073709E+06   2.32829024E+05   2.34411975E+07   0.29808764      
  54               3.70267763E-01   1.30924565E+00   706.98409089     5.25070202E-05   1.34133526E+19   3.29515995E+06   2.48406273E+05   2.30005664E+07   0.29763472      
  55               4.38052539E-01   1.57314249E+00   745.89815266     5.97984941E-05   1.52761660E+19   3.25021027E+06   2.93356176E+05   2.25296089E+07   0.29700709      
  56               5.18246648E-01   1.88743755E+00   788.11592216     6.79018397E-05   1.73463590E+19   3.18032121E+06   3.63245399E+05   2.20363750E+07   0.29617027      
  57               6.13121862E-01   2.25598331E+00   829.94767501     7.70702152E-05   1.96884265E+19   3.11253847E+06   4.31028452E+05   2.15269163E+07   0.29529084      
  58               7.25365844E-01   2.68195336E+00   874.27004390     8.69771226E-05   2.22193558E+19   3.06709927E+06   4.76467834E+05   2.10066403E+07   0.29427543      
  59               8.58158289E-01   3.16760537E+00   917.11939582     9.79272355E-05   2.50167582E+19   3.06384999E+06   4.79717557E+05   2.04804155E+07   0.29317067      
  60               1.01526100E+00   3.71511366E+00   961.91278210     1.09505280E-04   2.79744946E+19   3.10374046E+06   4.39827299E+05   1.99516999E+07   0.29187345      
  61               1.20112443E+00   4.32999300E+00   1004.73087225    1.22191435E-04   3.12149963E+19   3.19144142E+06   3.52126889E+05   1.94201388E+07   0.29056425      
  62               1.42101382E+00   5.01889721E+00   1049.76984875    1.35557830E-04   3.46290076E+19   3.31532253E+06   2.28246033E+05   1.88848629E+07   0.28909934      
  63               1.68115827E+00   5.78931465E+00   1092.74002049    1.50216494E-04   3.83739181E+19   3.46593681E+06   7.76323192E+04   1.83449714E+07   0.28769874      
  64               1.98892727E+00   6.65042836E+00   1138.31594801    1.65648907E-04   4.23167825E+19   3.54356931E+06   0.00000000E+00   1.77990751E+07   0.28612376      
  65               2.35303941E+00   7.61576211E+00   1178.07621744    1.83288307E-04   4.68237099E+19   3.54357022E+06   0.00000000E+00   1.72450639E+07   0.2847018       
  66               2.78380943E+00   8.70605079E+00   1217.95505219    2.02663172E-04   5.17744835E+19   3.54356785E+06   0.00000000E+00   1.66793587E+07   0.28327118      
  67               3.29344035E+00   9.94332473E+00   1254.06856598    2.24793862E-04   5.74296515E+19   3.54357105E+06   0.00000000E+00   1.60996776E+07   0.28193321      
  68               3.89636920E+00   1.13512754E+01   1291.88464752    2.49104171E-04   6.36424314E+19   3.54356638E+06   0.00000000E+00   1.55046893E+07   0.28053407      
  69               4.60967600E+00   1.29536470E+01   1327.31926319    2.76670323E-04   7.06874800E+19   3.54357061E+06   0.00000000E+00   1.48943176E+07   0.27919262      
  70               5.45356761E+00   1.47751291E+01   1365.60161387    3.06715280E-04   7.83669787E+19   3.54356575E+06   0.00000000E+00   1.42690301E+07   0.27778356      
  71               6.45195012E+00   1.68461782E+01   1402.51561569    3.40490125E-04   8.70000547E+19   3.54356981E+06   0.00000000E+00   1.36281548E+07   0.27638813      
  72               7.63310614E+00   1.92066624E+01   1442.94718116    3.77304124E-04   9.64111600E+19   3.54356273E+06   0.00000000E+00   1.29695772E+07   0.27488154      
  73               9.03049593E+00   2.18928024E+01   1482.65034057    4.18536753E-04   1.06951888E+20   3.54357011E+06   0.00000000E+00   1.22936198E+07   0.27339745      
  74               1.06837053E+01   2.49345246E+01   1526.24685630    4.63047529E-04   1.18331985E+20   3.54356129E+06   0.00000000E+00   1.16026740E+07   0.27184189      
  75               1.26395671E+01   2.83492065E+01   1569.48563636    5.11936468E-04   1.30830620E+20   3.54357656E+06   0.00000000E+00   1.09013267E+07   0.27031201      
  76               1.49534878E+01   3.21418785E+01   1616.76686859    5.63435919E-04   1.43995756E+20   3.54358623E+06   0.00000000E+00   1.01951389E+07   0.2687318       
  77               1.76910170E+01   3.63101302E+01   1663.68610848    6.18571554E-04   1.58081939E+20   3.54356158E+06   0.00000000E+00   9.48907452E+06   0.26716954      
  78               2.09297047E+01   4.08013246E+01   1714.67449650    6.74653311E-04   1.72352828E+20   3.54356636E+06   0.00000000E+00   8.79380408E+06   0.26550666      
  79               2.47612977E+01   4.55467287E+01   1765.27845159    7.31523292E-04   1.86883006E+20   3.30250423E+06   2.41064942E+05   8.11830762E+06   0.26388994      
  80               2.92943389E+01   5.03886419E+01   1812.88156501    7.88146400E-04   2.01320991E+20   2.92202314E+06   6.21566791E+05   7.48061941E+06   0.26235168      
  81               3.46572422E+01   5.50296655E+01   1855.08037040    8.41403967E-04   2.14862182E+20   2.61285257E+06   9.30723525E+05   6.91069491E+06   0.26092277      
  82               4.10019301E+01   5.99628805E+01   1897.06466259    8.97090167E-04   2.28942380E+20   2.31000520E+06   1.23361927E+06   6.34285508E+06   0.25966939      
  83               4.85081376E+01   6.44525659E+01   1932.80185642    9.47128149E-04   2.41534246E+20   1.92455652E+06   1.61945039E+06   5.85576338E+06   0.25865596      
  84               5.73885036E+01   6.83238205E+01   1962.20907280    9.88942920E-04   2.52204425E+20   1.70382320E+06   1.83988673E+06   5.45576137E+06   0.25756583      
  85               6.78945948E+01   7.26096237E+01   1993.04642938    1.03468687E-03   2.63877651E+20   1.61960990E+06   1.92522571E+06   5.03207687E+06   0.25634827      
  86               8.03240320E+01   7.73393313E+01   2025.55523450    1.08434929E-03   2.76555412E+20   1.43459764E+06   2.10946870E+06   4.58555197E+06   0.25545649      
  87               9.50289215E+01   8.12028410E+01   2050.81629927    1.12483744E-03   2.86794160E+20   1.16976222E+06   2.37432803E+06   4.23570928E+06   0.25475095      
  88               1.12425830E+02   8.41646938E+01   2069.66947259    1.15522390E-03   2.94547129E+20   1.02874609E+06   2.51567514E+06   3.97588145E+06   0.25401895      
  89               1.33007583E+02   8.75221778E+01   2090.23110100    1.18946487E-03   3.03284105E+20   9.89809667E+05   2.55431449E+06   3.68946020E+06   0.25316835      
  90               1.57357229E+02   9.13174803E+01   2112.85279887    1.22772721E-03   3.13047701E+20   9.48991329E+05   2.59524239E+06   3.37539498E+06   0.2522604       
  91               1.86164557E+02   9.55874229E+01   2137.23126329    1.27044110E-03   3.23947829E+20   9.03343266E+05   2.64365025E+06   3.03349895E+06   0.25126531      
  92               2.20245630E+02   1.00366700E+02   2163.61565948    1.31760799E-03   3.35996976E+20   7.99436692E+05   2.75143288E+06   2.66410298E+06   0.25054789      
  93               2.60565913E+02   1.04019903E+02   2182.98411838    1.35455104E-03   3.45137151E+20   6.58142905E+05   2.89252749E+06   2.39062144E+06   0.2500143       
  94               3.08267614E+02   1.06751020E+02   2197.23298060    1.38107419E-03   3.51902022E+20   5.88305873E+05   2.95676648E+06   2.19094167E+06   0.24942143      
  95               3.64702046E+02   1.09890240E+02   2213.08177859    1.41147457E-03   3.59656157E+20   5.69941064E+05   2.97507013E+06   1.96609996E+06   0.24874043      
  96               4.31467909E+02   1.13487562E+02   2230.93391862    1.44597740E-03   3.68457500E+20   5.50622740E+05   2.99627099E+06   1.71429621E+06   0.24797658      
  97               5.10456573E+02   1.17597015E+02   2250.59425784    1.48520302E-03   3.78464310E+20   5.29170883E+05   3.01749053E+06   1.43387527E+06   0.24711736      
  98               6.03905660E+02   1.22276835E+02   2272.43942741    1.52940686E-03   3.89742451E+20   5.07009400E+05   3.03660687E+06   1.12336575E+06   0.24616709      
  99               7.14462436E+02   1.27589653E+02   2296.23458326    1.57925540E-03   4.02462148E+20   4.83561994E+05   3.06006285E+06   7.81514287E+05   0.24512919      
  100              8.45258798E+02   1.33602865E+02   2322.32416198    1.63502316E-03   4.16695462E+20   4.59430110E+05   3.08425592E+06   4.07301437E+05   0.2439823       
  101              1.00000000E+03   1.40388360E+02   2350.41935183    1.69760116E-03   4.32624975E+20   4.45645923E+05   3.09805758E+06   0.00000000E+00   0.24273412      
