# ATMO pressure-temperature profile
# Effective temperature = 1300.0K
# log(g) = 3.5cm/s^2
# M/H = 0.0
# Optical depth grid in band 17 (1.20-1.33microns)
# All parameters in cgs units
#
# Model Level      Optical Depth    Pressure         Temperature      Density          Number Density   Rad Flux         Conv Flux        Radial Extension Adiabatic Gradient
#                                   [Ba]             [K]              [g/cm^3]         [/cm^3]          [ergs/s/cm^2/sr] [ergs/s/cm^2/sr] [cm]             [K/Ba]          
  1                3.00000000E-06   1.00000000E-05   450.66454443     6.29114594E-10   1.60720934E+14   1.61937785E+08   0.00000000E+00   1.97955074E+08   0.29747584      
  2                3.65048058E-06   1.19787084E-05   498.28360657     6.81578827E-10   1.74124239E+14   1.61937785E+08   0.00000000E+00   1.96999509E+08   0.29746739      
  3                4.44200282E-06   1.42440105E-05   519.99631303     7.76627786E-10   1.98407397E+14   1.61937785E+08   0.00000000E+00   1.96014900E+08   0.29753239      
  4                5.40514834E-06   1.69237670E-05   535.75583356     8.95585203E-10   2.28799973E+14   1.61937785E+08   0.00000000E+00   1.94998794E+08   0.2976193       
  5                6.57712968E-06   2.01355595E-05   548.65206642     1.04048640E-09   2.65822980E+14   1.61937785E+08   0.00000000E+00   1.93946639E+08   0.29766896      
  6                8.00322805E-06   2.40213791E-05   560.06991280     1.21594923E-09   3.10657279E+14   1.61937785E+08   0.00000000E+00   1.92854164E+08   0.29773864      
  7                9.73854285E-06   2.87587968E-05   570.54153566     1.42899382E-09   3.65097858E+14   1.61937785E+08   0.00000000E+00   1.91717654E+08   0.29777438      
  8                1.18501205E-05   3.45706806E-05   580.43201091     1.68845294E-09   4.31402257E+14   1.61937785E+08   0.00000000E+00   1.90534445E+08   0.29782573      
  9                1.44195449E-05   4.17358782E-05   589.97817567     2.00534701E-09   5.12388589E+14   1.61937785E+08   0.00000000E+00   1.89303062E+08   0.29784949      
  10               1.75460896E-05   5.05999025E-05   599.26037862     2.39350902E-09   6.11589408E+14   1.61937785E+08   0.00000000E+00   1.88023615E+08   0.29788194      
  11               2.13505531E-05   6.15759400E-05   608.13563668     2.87009476E-09   7.33392452E+14   1.61937785E+08   0.00000000E+00   1.86699326E+08   0.29789389      
  12               2.59799264E-05   7.51551819E-05   616.79847997     3.45371466E-09   8.82554381E+14   1.61937785E+08   0.00000000E+00   1.85335415E+08   0.29790628      
  13               3.16130723E-05   9.19235542E-05   625.19767644     4.16741958E-09   1.06496490E+15   1.61937785E+08   0.00000000E+00   1.83937710E+08   0.29790589      
  14               3.84676354E-05   1.12586001E-04   633.47939113     5.03733193E-09   1.28729399E+15   1.61937785E+08   0.00000000E+00   1.82511612E+08   0.29844949      
  15               4.68084520E-05   1.37985085E-04   641.57561574     6.09569479E-09   1.55779439E+15   1.61937785E+08   0.00000000E+00   1.81062150E+08   0.29840312      
  16               5.69577817E-05   1.69130633E-04   649.62644047     7.37885249E-09   1.88575132E+15   1.61937785E+08   0.00000000E+00   1.79593594E+08   0.29831113      
  17               6.93077586E-05   2.07239221E-04   657.57886349     8.93196541E-09   2.28270582E+15   1.61937785E+08   0.00000000E+00   1.78109179E+08   0.2982605       
  18               8.43355422E-05   2.53783490E-04   665.57424475     1.08064491E-08   2.76180300E+15   1.61937785E+08   0.00000000E+00   1.76611042E+08   0.29815954      
  19               1.02621753E-04   3.10546108E-04   673.54166598     1.30668811E-08   3.33954626E+15   1.61937785E+08   0.00000000E+00   1.75100492E+08   0.29810574      
  20               1.24872905E-04   3.79687564E-04   681.61433205     1.57867353E-08   4.03472091E+15   1.61937785E+08   0.00000000E+00   1.73578170E+08   0.29799542      
  21               1.51948705E-04   4.63827758E-04   689.71534512     1.90584028E-08   4.87093895E+15   1.61937785E+08   0.00000000E+00   1.72044209E+08   0.29793632      
  22               1.84895266E-04   5.66135731E-04   697.95641969     2.29872450E-08   5.87513837E+15   1.61937785E+08   0.00000000E+00   1.70498517E+08   0.29781373      
  23               2.24985526E-04   6.90443508E-04   706.25701636     2.77048350E-08   7.08094489E+15   1.61937785E+08   0.00000000E+00   1.68940841E+08   0.2977483       
  24               2.73768430E-04   8.41406257E-04   714.75501634     3.33606124E-08   8.52657006E+15   1.61937785E+08   0.00000000E+00   1.67370568E+08   0.29761379      
  25               3.33128779E-04   1.02468098E-03   723.36440628     4.01432649E-08   1.02602367E+16   1.61937785E+08   0.00000000E+00   1.65786844E+08   0.29753914      
  26               4.05360046E-04   1.24713598E-03   732.21430467     4.82671904E-08   1.23367691E+16   1.61937785E+08   0.00000000E+00   1.64188722E+08   0.29738775      
  27               4.93252992E-04   1.51714860E-03   741.24183740     5.80016217E-08   1.48249773E+16   1.61937785E+08   0.00000000E+00   1.62574965E+08   0.29730051      
  28               6.00203489E-04   1.84502158E-03   750.61903862     6.96543893E-08   1.78035953E+16   1.61937785E+08   0.00000000E+00   1.60943749E+08   0.29712992      
  29               7.30343727E-04   2.24341096E-03   760.25037684     8.36206944E-08   2.13736175E+16   1.61937785E+08   0.00000000E+00   1.59293016E+08   0.2970279       
  30               8.88701864E-04   2.72807191E-03   770.31855083     1.00355410E-07   2.56514132E+16   1.61937785E+08   0.00000000E+00   1.57619958E+08   0.29683246      
  31               1.08139630E-03   3.31869092E-03   780.78189515     1.20444399E-07   3.07866839E+16   1.61937785E+08   0.00000000E+00   1.55921151E+08   0.2967089       
  32               1.31587206E-03   4.03999803E-03   791.85060073     1.44570472E-07   3.69541947E+16   1.61937785E+08   0.00000000E+00   1.54192579E+08   0.29648122      
  33               1.60118847E-03   4.92282859E-03   803.40631511     1.73626079E-07   4.43818410E+16   1.61937785E+08   0.00000000E+00   1.52430479E+08   0.29633027      
  34               1.94836913E-03   6.00583654E-03   815.68988437     2.08628879E-07   5.33303300E+16   1.61937785E+08   0.00000000E+00   1.50631038E+08   0.29606124      
  35               2.37082789E-03   7.33795987E-03   828.64795127     2.50914724E-07   6.41403183E+16   1.61937785E+08   0.00000000E+00   1.48789863E+08   0.29586957      
  36               2.88488706E-03   8.98083653E-03   842.46059887     3.02048579E-07   7.72134633E+16   1.61937785E+08   0.00000000E+00   1.46902722E+08   0.2955451       
  37               3.51040806E-03   1.10119540E-02   857.07249647     3.64044643E-07   9.30620616E+16   1.61937785E+08   0.00000000E+00   1.44965762E+08   0.29530342      
  38               4.27155881E-03   1.35295621E-02   872.74141382     4.39231635E-07   1.12285582E+17   1.61937785E+08   0.00000000E+00   1.42974790E+08   0.29484906      
  39               5.19774750E-03   1.66587236E-02   889.44746653     5.30645019E-07   1.35658578E+17   1.61937785E+08   0.00000000E+00   1.40925138E+08   0.29458082      
  40               6.32475876E-03   2.05545033E-02   907.26074626     6.41866230E-07   1.64097024E+17   1.61937785E+08   0.00000000E+00   1.38814220E+08   0.29411332      
  41               7.69613634E-03   2.54092778E-02   926.23996056     7.77186880E-07   1.98698527E+17   1.61937784E+08   0.00000000E+00   1.36640592E+08   0.29374607      
  42               9.36486541E-03   3.14683766E-02   946.62090759     9.41763418E-07   2.40782038E+17   1.61937784E+08   0.00000000E+00   1.34400965E+08   0.29322668      
  43               1.13954198E-02   3.90405079E-02   968.38685872     1.14208248E-06   2.92006428E+17   1.61937784E+08   0.00000000E+00   1.32092093E+08   0.29271715      
  44               1.38662528E-02   4.85041361E-02   991.78268968     1.38541817E-06   3.54232243E+17   1.61937784E+08   0.00000000E+00   1.29712953E+08   0.29188785      
  45               1.68728289E-02   6.03234580E-02   1017.03108227    1.68019192E-06   4.29613424E+17   1.61937783E+08   0.00000000E+00   1.27263190E+08   0.29117271      
  46               2.05313114E-02   7.50507343E-02   1044.30621824    2.03574317E-06   5.20538578E+17   1.61937783E+08   0.00000000E+00   1.24745033E+08   0.29029446      
  47               2.49830512E-02   9.33046430E-02   1073.51369965    2.46196428E-06   6.29537354E+17   1.61937783E+08   0.00000000E+00   1.22166606E+08   0.28946422      
  48               3.04000477E-02   1.15754740E-01   1105.04559678    2.96712542E-06   7.58725055E+17   1.61937782E+08   0.00000000E+00   1.19539905E+08   0.28829552      
  49               3.69915946E-02   1.43095909E-01   1138.84010592    3.55905166E-06   9.10102491E+17   1.61937781E+08   0.00000000E+00   1.16879284E+08   0.28725949      
  50               4.50123658E-02   1.76062655E-01   1174.80325668    4.24488360E-06   1.08549529E+18   1.61937781E+08   0.00000000E+00   1.14197171E+08   0.28601472      
  51               5.47722558E-02   2.15395553E-01   1212.79193941    5.03047788E-06   1.28640071E+18   1.61937779E+08   0.00000000E+00   1.11505518E+08   0.28477459      
  52               6.66483519E-02   2.61813260E-01   1252.56601767    5.92033257E-06   1.51396855E+18   1.61937780E+08   0.00000000E+00   1.08815801E+08   0.28308429      
  53               8.10995048E-02   3.15997535E-01   1293.89560833    6.91730404E-06   1.76892857E+18   1.61937778E+08   0.00000000E+00   1.06138284E+08   0.28147394      
  54               9.86840557E-02   3.78574798E-01   1336.80686374    8.02110206E-06   2.05120408E+18   1.61937780E+08   0.00000000E+00   1.03481650E+08   0.27952002      
  55               1.20081410E-01   4.50052034E-01   1381.20083846    9.22912005E-06   2.36010723E+18   1.61937776E+08   0.00000000E+00   1.00854580E+08   0.27806742      
  56               1.46118284E-01   5.31047690E-01   1427.32919776    1.05382919E-05   2.69485383E+18   1.61937783E+08   0.00000000E+00   9.82574243E+07   0.27633367      
  57               1.77800653E-01   6.21748445E-01   1475.43924405    1.19368520E-05   3.05224377E+18   1.61937778E+08   0.00000000E+00   9.57000929E+07   0.27455276      
  58               2.16352610E-01   7.19015201E-01   1525.86898959    1.33536899E-05   3.41308155E+18   1.61937775E+08   0.00000000E+00   9.32637053E+07   0.27240798      
  59               2.63263667E-01   8.20272300E-01   1581.39110481    1.47012527E-05   3.75702940E+18   1.60104520E+08   1.84214828E+06   9.09783406E+07   0.27045402      
  60               3.20346302E-01   9.19896247E-01   1631.01231624    1.59906132E-05   4.08514472E+18   1.55161078E+08   6.79592885E+06   8.89235556E+07   0.26814905      
  61               3.89805984E-01   1.01237435E+00   1673.19208485    1.71689040E-05   4.38249241E+18   1.48565249E+08   1.34065740E+07   8.71584832E+07   0.26586702      
  62               4.74326391E-01   1.09522337E+00   1708.45294418    1.82023464E-05   4.64328694E+18   1.41776232E+08   2.02006277E+07   8.56764335E+07   0.26388019      
  63               5.77173093E-01   1.16945135E+00   1738.11393290    1.91099403E-05   4.87337417E+18   1.35759009E+08   2.61689955E+07   8.44178196E+07   0.26220113      
  64               7.02319722E-01   1.23521201E+00   1763.20430846    1.98969274E-05   5.07416640E+18   1.30686754E+08   3.12551850E+07   8.33513618E+07   0.26067523      
  65               8.54601502E-01   1.31060404E+00   1790.52949770    2.07879207E-05   5.30170870E+18   1.25143264E+08   3.69283026E+07   8.21790931E+07   0.25938211      
  66               1.03990206E+00   1.37342457E+00   1812.39645431    2.15392596E-05   5.48880053E+18   1.20087663E+08   4.19128605E+07   8.12401762E+07   0.25824086      
  67               1.26538076E+00   1.42321530E+00   1829.06170372    2.21163261E-05   5.63596241E+18   1.15933891E+08   4.59542728E+07   8.05187752E+07   0.25736392      
  68               1.53974930E+00   1.48108864E+00   1847.95161613    2.27798364E-05   5.80518807E+18   1.11607896E+08   5.02850333E+07   7.97034199E+07   0.25656397      
  69               1.87360830E+00   1.54797063E+00   1868.93058706    2.35405474E-05   5.99922823E+18   1.06872077E+08   5.50257072E+07   7.87900939E+07   0.25565665      
  70               2.27985690E+00   1.62476910E+00   1892.22704456    2.44033237E-05   6.21933923E+18   1.01597906E+08   6.03048134E+07   7.77768357E+07   0.25459083      
  71               2.77419111E+00   1.71229567E+00   1917.56970927    2.53768624E-05   6.46775318E+18   9.57423366E+07   6.61647670E+07   7.66645999E+07   0.2533885       
  72               3.37571026E+00   1.81113590E+00   1945.02858275    2.64612535E-05   6.74451758E+18   8.95647835E+07   7.23453887E+07   7.54584255E+07   0.25197332      
  73               4.10765492E+00   1.92273679E+00   1974.41805378    2.76715987E-05   7.05353071E+18   8.35794315E+07   7.83337112E+07   7.41542203E+07   0.25035402      
  74               4.99830483E+00   2.04947183E+00   2006.18647916    2.90258024E-05   7.39939979E+18   7.78121598E+07   8.41044843E+07   7.27400937E+07   0.24846609      
  75               6.08207157E+00   2.19288518E+00   2039.99602526    3.05387073E-05   7.78596433E+18   7.20281276E+07   8.98916396E+07   7.12168367E+07   0.24637922      
  76               7.40082804E+00   2.35466423E+00   2076.00646180    3.22183067E-05   8.21535103E+18   6.62264823E+07   9.56958580E+07   6.95858630E+07   0.24400857      
  77               9.00552635E+00   2.53666714E+00   2113.81178677    3.40819087E-05   8.69206585E+18   6.04676510E+07   1.01456748E+08   6.78489955E+07   0.24138653      
  78               1.09581663E+01   2.74095103E+00   2153.56322961    3.61390884E-05   9.21869590E+18   5.48340741E+07   1.07092020E+08   6.60082845E+07   0.2384991       
  79               1.33341911E+01   2.96979982E+00   2194.82029323    3.84103966E-05   9.80063126E+18   4.93955044E+07   1.12531823E+08   6.40658871E+07   0.23538749      
  80               1.62254019E+01   3.22575232E+00   2237.74514128    4.09075843E-05   1.04410995E+19   4.42058537E+07   1.17722295E+08   6.20239798E+07   0.23188744      
  81               1.97435049E+01   3.51164094E+00   2281.81508455    4.36564748E-05   1.11469357E+19   3.92662898E+07   1.22662563E+08   5.98846680E+07   0.22804992      
  82               2.40244270E+01   3.83036186E+00   2327.17520945    4.66743935E-05   1.19216553E+19   3.46505842E+07   1.27278778E+08   5.76517975E+07   0.22390101      
  83               2.92335681E+01   4.18547036E+00   2373.30280473    4.99840863E-05   1.27737072E+19   3.05047115E+07   1.31424962E+08   5.53268644E+07   0.21962043      
  84               3.55721908E+01   4.58119287E+00   2420.50367973    5.36101896E-05   1.37087756E+19   2.68122555E+07   1.35117652E+08   5.29094202E+07   0.21512501      
  85               4.32851972E+01   5.02186734E+00   2468.18392634    5.75913683E-05   1.47371518E+19   2.34393374E+07   1.38490681E+08   5.04014562E+07   0.2105668       
  86               5.26705906E+01   5.51234905E+00   2516.69036083    6.19478731E-05   1.58647329E+19   2.03954152E+07   1.41534523E+08   4.78046630E+07   0.20595437      
  87               6.40909893E+01   6.05801373E+00   2565.42124645    6.67263881E-05   1.71039889E+19   1.76946434E+07   1.44235025E+08   4.51207357E+07   0.20131727      
  88               7.79876373E+01   6.66472671E+00   2614.75144590    7.19506111E-05   1.84619586E+19   1.53379346E+07   1.46591318E+08   4.23517242E+07   0.19665697      
  89               9.48974517E+01   7.33889983E+00   2664.05417155    7.76751393E-05   1.99532548E+19   1.32808133E+07   1.48648077E+08   3.94999111E+07   0.19215758      
  90               1.15473768E+02   8.08758665E+00   2713.82094502    8.39248103E-05   2.15855737E+19   1.14943242E+07   1.50434519E+08   3.65675166E+07   0.18759584      
  91               1.40511583E+02   8.91843707E+00   2763.29226361    9.07674743E-05   2.33769458E+19   9.93558257E+06   1.51993678E+08   3.35571380E+07   0.18324045      
  92               1.70978268E+02   9.83964300E+00   2813.11936142    9.82249163E-05   2.53347732E+19   8.59305493E+06   1.53337130E+08   3.04718920E+07   0.17916894      
  93               2.08050949E+02   1.08599214E+01   2862.55955798    1.06371363E-04   2.74788145E+19   7.42146395E+06   1.54510103E+08   2.73154009E+07   0.17535828      
  94               2.53161982E+02   1.19885583E+01   2912.28275280    1.15227402E-04   2.98166783E+19   6.40957744E+06   1.55523936E+08   2.40915617E+07   0.17173185      
  95               3.08054300E+02   1.32354667E+01   2961.48894670    1.24878339E-04   3.23709156E+19   5.52986670E+06   1.56406205E+08   2.08043900E+07   0.16845206      
  96               3.74848746E+02   1.46112094E+01   3010.98315201    1.35338263E-04   3.51482478E+19   4.77266415E+06   1.57167051E+08   1.74578738E+07   0.16530997      
  97               4.56126023E+02   1.61268546E+01   3059.82664506    1.46708222E-04   3.81749686E+19   4.11469924E+06   1.57829900E+08   1.40563831E+07   0.16241777      
  98               5.55026396E+02   1.77933809E+01   3108.90934675    1.58987859E-04   4.14549368E+19   3.54994528E+06   1.58400056E+08   1.06056416E+07   0.1597645       
  99               6.75371026E+02   1.96226436E+01   3157.26597778    1.72287617E-04   4.50165476E+19   3.05833828E+06   1.58897303E+08   7.11040858E+06   0.15744688      
  100              8.21809604E+02   2.16275450E+01   3205.91897663    1.86599934E-04   4.88630443E+19   2.63437941E+06   1.59326836E+08   3.57434952E+06   0.15526723      
  101              1.00000000E+03   2.38223176E+01   3253.79172228    2.02065013E-04   5.30298136E+19   2.42145088E+06   1.59543957E+08   0.00000000E+00   0.15334108      
