# ATMO pressure-temperature profile
# Effective temperature = 1500.0K
# log(g) = 2.5cm/s^2
# M/H = 0.0
# Optical depth grid in band 17 (1.20-1.33microns)
# All parameters in cgs units
#
# Model Level      Optical Depth    Pressure         Temperature      Density          Number Density   Rad Flux         Conv Flux        Radial Extension Adiabatic Gradient
#                                   [Ba]             [K]              [g/cm^3]         [/cm^3]          [ergs/s/cm^2/sr] [ergs/s/cm^2/sr] [cm]             [K/Ba]          
  1                1.00000000E-04   1.00000000E-05   607.46514210     4.66316440E-10   1.19235198E+14   2.87038464E+08   0.00000000E+00   2.01257661E+09   0.29801046      
  2                1.17489755E-04   2.49092118E-05   668.12724658     1.05594213E-09   2.70039094E+14   2.87038462E+08   0.00000000E+00   1.94537889E+09   0.29767241      
  3                1.38038426E-04   4.47160864E-05   696.71475723     1.81778972E-09   4.64873314E+14   2.87038461E+08   0.00000000E+00   1.90016985E+09   0.29727079      
  4                1.62181010E-04   6.77116974E-05   714.78738913     2.68300267E-09   6.86139875E+14   2.87038460E+08   0.00000000E+00   1.86724204E+09   0.29697937      
  5                1.90546072E-04   9.42955836E-05   731.43110239     3.65134935E-09   9.33778281E+14   2.87038459E+08   0.00000000E+00   1.84038355E+09   0.29661416      
  6                2.23872114E-04   1.25040726E-04   743.78875832     4.76142449E-09   1.21766470E+15   2.87038458E+08   0.00000000E+00   1.81706608E+09   0.29681209      
  7                2.63026799E-04   1.60603082E-04   757.04197910     6.00859601E-09   1.53659619E+15   2.87038457E+08   0.00000000E+00   1.79604108E+09   0.29657118      
  8                3.09029543E-04   2.01771146E-04   767.17420597     7.44909965E-09   1.90498214E+15   2.87038457E+08   0.00000000E+00   1.77658202E+09   0.29642263      
  9                3.63078055E-04   2.49461621E-04   778.93462229     9.07090493E-09   2.31968264E+15   2.87038456E+08   0.00000000E+00   1.75823544E+09   0.29618806      
  10               4.26579519E-04   3.04745785E-04   788.05726801     1.09528668E-08   2.80095265E+15   2.87038455E+08   0.00000000E+00   1.74069617E+09   0.29604661      
  11               5.01187234E-04   3.68865413E-04   799.20033894     1.30725314E-08   3.34301338E+15   2.87038454E+08   0.00000000E+00   1.72375094E+09   0.29580483      
  12               5.88843655E-04   4.43252514E-04   807.94883212     1.55387032E-08   3.97368273E+15   2.87038454E+08   0.00000000E+00   1.70724614E+09   0.29566131      
  13               6.91830971E-04   5.29551992E-04   818.85039948     1.83168616E-08   4.68414015E+15   2.87038453E+08   0.00000000E+00   1.69106998E+09   0.29540873      
  14               8.12830516E-04   6.29671780E-04   827.40099538     2.15548612E-08   5.51218812E+15   2.87038452E+08   0.00000000E+00   1.67513609E+09   0.29526136      
  15               9.54992586E-04   7.45804705E-04   838.26377148     2.51994526E-08   6.44421856E+15   2.87038451E+08   0.00000000E+00   1.65937860E+09   0.29499361      
  16               1.12201845E-03   8.80489948E-04   846.82395696     2.94495030E-08   7.53107731E+15   2.87038451E+08   0.00000000E+00   1.64374404E+09   0.29483773      
  17               1.31825674E-03   1.03664233E-03   857.81243595     3.42281149E-08   8.75311110E+15   2.87038450E+08   0.00000000E+00   1.62819090E+09   0.29455179      
  18               1.54881662E-03   1.21762868E-03   866.50179119     3.98007996E-08   1.01782062E+16   2.87038449E+08   0.00000000E+00   1.61268459E+09   0.29438574      
  19               1.81970086E-03   1.42730627E-03   877.75096844     4.60566079E-08   1.17780040E+16   2.87038448E+08   0.00000000E+00   1.59719785E+09   0.29407825      
  20               2.13796209E-03   1.67011485E-03   886.78806775     5.33424037E-08   1.36411925E+16   2.87038447E+08   0.00000000E+00   1.58170676E+09   0.29389615      
  21               2.51188643E-03   1.95112230E-03   898.51811117     6.15040118E-08   1.57283620E+16   2.87038447E+08   0.00000000E+00   1.56619255E+09   0.29356004      
  22               2.95120923E-03   2.27614399E-03   908.00761602     7.09996160E-08   1.81566650E+16   2.87038446E+08   0.00000000E+00   1.55063889E+09   0.29335745      
  23               3.46736850E-03   2.65180089E-03   920.25874038     8.16162125E-08   2.08716508E+16   2.87038445E+08   0.00000000E+00   1.53503348E+09   0.29299065      
  24               4.07380278E-03   3.08577092E-03   930.35403031     9.39422288E-08   2.40237764E+16   2.87038444E+08   0.00000000E+00   1.51936087E+09   0.29276328      
  25               4.78630092E-03   3.58699346E-03   943.45270399     1.07685093E-07   2.75382470E+16   2.87038444E+08   0.00000000E+00   1.50360210E+09   0.29235551      
  26               5.62341325E-03   4.16572170E-03   954.39860430     1.23624773E-07   3.16144985E+16   2.87038443E+08   0.00000000E+00   1.48774061E+09   0.29209543      
  27               6.60693448E-03   4.83359097E-03   968.50092215     1.41356123E-07   3.61489509E+16   2.87038442E+08   0.00000000E+00   1.47176411E+09   0.29163961      
  28               7.76247117E-03   5.60386720E-03   980.43425880     1.61887761E-07   4.13995096E+16   2.87038441E+08   0.00000000E+00   1.45566203E+09   0.29134016      
  29               9.12010839E-03   6.49148888E-03   995.73272862     1.84648560E-07   4.72201514E+16   2.87038441E+08   0.00000000E+00   1.43942719E+09   0.29082847      
  30               1.07151931E-02   7.51328397E-03   1008.99419995    2.10904281E-07   5.39345393E+16   2.87038441E+08   0.00000000E+00   1.42305344E+09   0.29047862      
  31               1.25892541E-02   8.68799429E-03   1025.78634600    2.39886947E-07   6.13463111E+16   2.87038440E+08   0.00000000E+00   1.40653820E+09   0.28989838      
  32               1.47910839E-02   1.00363421E-02   1040.77164399    2.73126514E-07   6.98466921E+16   2.87038438E+08   0.00000000E+00   1.38988044E+09   0.28950302      
  33               1.73780083E-02   1.15808829E-02   1059.60656136    3.09557014E-07   7.91631143E+16   2.87038437E+08   0.00000000E+00   1.37308284E+09   0.28884607      
  34               2.04173794E-02   1.33458468E-02   1076.99727659    3.50974037E-07   8.97547355E+16   2.87038435E+08   0.00000000E+00   1.35615007E+09   0.28818387      
  35               2.39883292E-02   1.53566727E-02   1098.69401473    3.95880040E-07   1.01238618E+17   2.87038434E+08   0.00000000E+00   1.33909101E+09   0.28711184      
  36               2.81838293E-02   1.76395885E-02   1119.23626672    4.46385160E-07   1.14154363E+17   2.87038427E+08   0.00000000E+00   1.32191773E+09   0.28630887      
  37               3.31131121E-02   2.02226441E-02   1144.38058915    5.00507202E-07   1.27995086E+17   2.87038419E+08   0.00000000E+00   1.30463653E+09   0.28519359      
  38               3.89045145E-02   2.31392056E-02   1168.61316782    5.60815986E-07   1.43417950E+17   2.87038405E+08   0.00000000E+00   1.28722825E+09   0.28438022      
  39               4.57088190E-02   2.64238797E-02   1197.90165659    6.24766861E-07   1.59772216E+17   2.87038385E+08   0.00000000E+00   1.26968043E+09   0.28343277      
  40               5.37031796E-02   3.01110248E-02   1226.61273693    6.95281248E-07   1.77804974E+17   2.87038355E+08   0.00000000E+00   1.25198949E+09   0.28278897      
  41               6.30957344E-02   3.42328624E-02   1260.87746156    7.68976646E-07   1.96651006E+17   2.87038311E+08   0.00000000E+00   1.23416347E+09   0.28188271      
  42               7.41310241E-02   3.88134399E-02   1295.65531474    8.48470269E-07   2.16979395E+17   2.87038227E+08   0.00000000E+00   1.21623078E+09   0.28105574      
  43               8.70963590E-02   4.38442307E-02   1340.68814949    9.26270485E-07   2.36870252E+17   2.86479441E+08   5.61103578E+05   1.19828548E+09   0.27954088      
  44               1.02329299E-01   4.92770800E-02   1385.06935454    1.00774668E-06   2.57691020E+17   2.84408765E+08   2.63349507E+06   1.18050320E+09   0.27770831      
  45               1.20226443E-01   5.49340374E-02   1427.35883195    1.09067184E-06   2.78762398E+17   2.81128571E+08   5.91389169E+06   1.16343857E+09   0.27587228      
  46               1.41253754E-01   6.08281982E-02   1467.96945076    1.17432532E-06   3.00133017E+17   2.76867463E+08   1.01807449E+07   1.14696899E+09   0.27397346      
  47               1.65958691E-01   6.70029671E-02   1507.23800136    1.26015981E-06   3.21986779E+17   2.71609825E+08   1.54567076E+07   1.13091710E+09   0.27196035      
  48               1.94984460E-01   7.30937742E-02   1543.23812968    1.34320906E-06   3.43062527E+17   2.65334732E+08   2.17643038E+07   1.11611228E+09   0.26997913      
  49               2.29086765E-01   7.85341737E-02   1573.33542907    1.41775326E-06   3.61545696E+17   2.58794196E+08   2.82359092E+07   1.10364356E+09   0.26826671      
  50               2.69153480E-01   8.32821948E-02   1598.28839360    1.47996862E-06   3.77418215E+17   2.53197177E+08   3.38507867E+07   1.09327816E+09   0.26679914      
  51               3.16227766E-01   8.85965845E-02   1624.83558617    1.54859294E-06   3.94942069E+17   2.47659730E+08   3.96463331E+07   1.08217724E+09   0.26552096      
  52               3.71535229E-01   9.37109638E-02   1649.22377264    1.61509479E-06   4.11563316E+17   2.42543425E+08   4.46573004E+07   1.07194968E+09   0.26438967      
  53               4.36515832E-01   9.83226859E-02   1670.27306156    1.67317642E-06   4.26375358E+17   2.38013927E+08   4.89170018E+07   1.06307825E+09   0.26314233      
  54               5.12861384E-01   1.03472518E-01   1692.86073631    1.73725882E-06   4.42720492E+17   2.33038479E+08   5.39094051E+07   1.05352634E+09   0.26164769      
  55               6.02559586E-01   1.09202534E-01   1716.84846309    1.80776955E-06   4.60708887E+17   2.27499054E+08   5.94635310E+07   1.04330160E+09   0.25997752      
  56               7.07945784E-01   1.15550917E-01   1742.23585487    1.88488876E-06   4.80388154E+17   2.21282658E+08   6.56933428E+07   1.03242610E+09   0.25809826      
  57               8.31763771E-01   1.22544657E-01   1768.78177649    1.96884218E-06   5.01817688E+17   2.14271299E+08   7.27173327E+07   1.02094557E+09   0.25596115      
  58               9.77237221E-01   1.30185142E-01   1796.32618749    2.05935890E-06   5.24930804E+17   2.06412478E+08   8.05862883E+07   1.00894642E+09   0.25356476      
  59               1.14815362E+00   1.38387155E-01   1824.25730055    2.15538145E-06   5.49459299E+17   1.97998975E+08   8.90040518E+07   9.96635422E+08   0.25103246      
  60               1.34896288E+00   1.47205286E-01   1852.69745671    2.25726391E-06   5.75499219E+17   1.89681485E+08   9.73275559E+07   9.83993171E+08   0.24829015      
  61               1.58489319E+00   1.56946348E-01   1882.26528168    2.36848918E-06   6.03943377E+17   1.81355260E+08   1.05667152E+08   9.70670821E+08   0.24516744      
  62               1.86208714E+00   1.67690198E-01   1912.94359952    2.48960436E-06   6.34938047E+17   1.72674611E+08   1.14363556E+08   9.56679435E+08   0.24166932      
  63               2.18776162E+00   1.79524488E-01   1944.52360229    2.62145998E-06   6.68707690E+17   1.63573838E+08   1.23480694E+08   9.42030454E+08   0.23787149      
  64               2.57039578E+00   1.92545673E-01   1976.99944990    2.76470676E-06   7.05428586E+17   1.54064271E+08   1.33006660E+08   9.26735198E+08   0.23372398      
  65               3.01995172E+00   2.06860462E-01   2010.13794854    2.92039455E-06   7.45379539E+17   1.44206312E+08   1.42881064E+08   9.10804221E+08   0.22917047      
  66               3.54813389E+00   2.22587619E-01   2043.91486284    3.08938395E-06   7.88794806E+17   1.34109104E+08   1.52991930E+08   8.94246645E+08   0.22423218      
  67               4.16869383E+00   2.39861118E-01   2078.09725303    3.27299357E-06   8.36026080E+17   1.23930814E+08   1.63177252E+08   8.77068532E+08   0.21907249      
  68               4.89778819E+00   2.58830189E-01   2112.71339384    3.47226761E-06   8.87360685E+17   1.13815061E+08   1.73294241E+08   8.59274638E+08   0.21381567      
  69               5.75439937E+00   2.79659369E-01   2147.56264332    3.68874382E-06   9.43212119E+17   1.03860965E+08   1.83246563E+08   8.40869847E+08   0.20844372      
  70               6.76082975E+00   3.02530104E-01   2182.66843894    3.92371146E-06   1.00393748E+18   9.41580578E+07   1.92943806E+08   8.21859178E+08   0.20297921      
  71               7.94328235E+00   3.27642225E-01   2217.83094825    4.17900868E-06   1.07003324E+18   8.47967725E+07   2.02296196E+08   8.02247999E+08   0.19752076      
  72               9.33254301E+00   3.55215162E-01   2253.10932789    4.45613055E-06   1.14191840E+18   7.58507207E+07   2.11231012E+08   7.82042325E+08   0.19203573      
  73               1.09647820E+01   3.85489763E-01   2288.28700514    4.75729241E-06   1.22019206E+18   6.73785815E+07   2.19700861E+08   7.61248911E+08   0.18641839      
  74               1.28824955E+01   4.18731103E-01   2323.38683842    5.08439561E-06   1.30538776E+18   5.94340029E+07   2.27642932E+08   7.39874925E+08   0.18094308      
  75               1.51356125E+01   4.55148669E-01   2358.21597039    5.43964285E-06   1.39796256E+18   5.21354857E+07   2.34917636E+08   7.17975892E+08   0.17583832      
  76               1.77827941E+01   4.95053402E-01   2392.91131115    5.82395014E-06   1.49848116E+18   4.56903268E+07   2.41335821E+08   6.95555795E+08   0.171013        
  77               2.08929613E+01   5.38868082E-01   2427.40034951    6.24146264E-06   1.60792908E+18   4.00490809E+07   2.46962360E+08   6.72574480E+08   0.16635034      
  78               2.45470892E+01   5.86959387E-01   2461.76013296    6.69454396E-06   1.72698338E+18   3.50398035E+07   2.51961441E+08   6.49047275E+08   0.16196274      
  79               2.88403150E+01   6.39706999E-01   2495.87533565    7.18610862E-06   1.85645340E+18   3.05904803E+07   2.56403920E+08   6.24997945E+08   0.15796081      
  80               3.38844156E+01   6.97529724E-01   2529.88096706    7.71855518E-06   1.99704785E+18   2.66875614E+07   2.60296031E+08   6.00445692E+08   0.15423992      
  81               3.98107171E+01   7.60897522E-01   2563.64316466    8.29555772E-06   2.14978206E+18   2.32838009E+07   2.63685901E+08   5.75402739E+08   0.15071531      
  82               4.67735141E+01   8.30314562E-01   2597.27981552    8.92007027E-06   2.31552649E+18   2.03259349E+07   2.66629079E+08   5.49883545E+08   0.14741893      
  83               5.49540874E+01   9.06322248E-01   2630.67155724    9.59614826E-06   2.49540966E+18   1.77598606E+07   2.69181093E+08   5.23903933E+08   0.14440972      
  84               6.45654229E+01   9.89497208E-01   2663.97099809    1.03268613E-05   2.69036324E+18   1.55374519E+07   2.71390332E+08   4.97481807E+08   0.14166314      
  85               7.58577575E+01   1.08044926E+00   2697.04751212    1.11166409E-05   2.90162724E+18   1.35948622E+07   2.73320074E+08   4.70637681E+08   0.13907572      
  86               8.91250938E+01   1.17982498E+00   2730.01188987    1.19689286E-05   3.13024902E+18   1.19024437E+07   2.75003287E+08   4.43393513E+08   0.13665179      
  87               1.04712855E+02   1.28830954E+00   2762.73670935    1.28885613E-05   3.37758714E+18   1.04277474E+07   2.76472535E+08   4.15772117E+08   0.13444681      
  88               1.23026877E+02   1.40662764E+00   2795.36802190    1.38790023E-05   3.64473531E+18   9.14851928E+06   2.77750022E+08   3.87796648E+08   0.13248486      
  89               1.44543977E+02   1.53554492E+00   2827.79374313    1.49453837E-05   3.93315113E+18   8.03495319E+06   2.78864119E+08   3.59490170E+08   0.13076588      
  90               1.69824365E+02   1.67587071E+00   2860.17065652    1.60912336E-05   4.24399051E+18   7.06610075E+06   2.79834688E+08   3.30874979E+08   0.12920442      
  91               1.99526231E+02   1.82846854E+00   2892.35008544    1.73224489E-05   4.57891385E+18   6.22084658E+06   2.80684647E+08   3.01971096E+08   0.12778571      
  92               2.34422882E+02   1.99426317E+00   2924.49485594    1.86428854E-05   4.93920949E+18   5.48542928E+06   2.81427385E+08   2.72795725E+08   0.12647933      
  93               2.75422870E+02   2.17424400E+00   2956.44651633    2.00593026E-05   5.32677183E+18   4.84259655E+06   2.82079966E+08   2.43363797E+08   0.12529782      
  94               3.23593657E+02   2.36947095E+00   2988.38580421    2.15758315E-05   5.74302311E+18   4.28166753E+06   2.82652497E+08   2.13687824E+08   0.12421772      
  95               3.80189396E+02   2.58108172E+00   3020.14612949    2.32002295E-05   6.19012812E+18   3.78783561E+06   2.83159397E+08   1.83777953E+08   0.12323197      
  96               4.46683592E+02   2.81025093E+00   3051.90884280    2.49367159E-05   6.66959376E+18   3.35294084E+06   2.83611116E+08   1.53648092E+08   0.12232406      
  97               5.24807460E+02   3.05821946E+00   3083.49362177    2.67936914E-05   7.18375367E+18   2.96804577E+06   2.84014603E+08   1.23311480E+08   0.12151137      
  98               6.16595002E+02   3.32633497E+00   3115.10222014    2.87756519E-05   7.73427339E+18   2.62933712E+06   2.84373114E+08   9.27763720E+07   0.12078374      
  99               7.24435960E+02   3.61606392E+00   3146.55617205    3.08924919E-05   8.32389224E+18   2.33058351E+06   2.84692330E+08   6.20466236E+07   0.12016507      
  100              8.51138038E+02   3.92900414E+00   3178.08338978    3.31492454E-05   8.95453498E+18   2.06848522E+06   2.84972919E+08   3.11220139E+07   0.11963849      
  101              1.00000000E+03   4.26688551E+00   3209.49970699    3.55575144E-05   9.62940581E+18   1.94212279E+06   2.85112712E+08   0.00000000E+00   0.11919911      
