# ATMO pressure-temperature profile
# Effective temperature = 200.0K
# log(g) = 4.0cm/s^2
# M/H = 0.0
# Optical depth grid in band 17 (1.20-1.33microns)
# All parameters in cgs units
#
# Model Level      Optical Depth    Pressure         Temperature      Density          Number Density   Rad Flux         Conv Flux        Radial Extension Adiabatic Gradient
#                                   [Ba]             [K]              [g/cm^3]         [/cm^3]          [ergs/s/cm^2/sr] [ergs/s/cm^2/sr] [cm]             [K/Ba]          
  1                5.00000000E-05   1.00000000E-05   27.63241475      1.01997258E-08   2.62124129E+15   9.06796225E+04   0.00000000E+00   1.47137224E+07   0.34612403      
  2                5.91534807E-05   4.71018166E-04   36.34508614      3.65257625E-07   9.38680497E+16   9.06796225E+04   0.00000000E+00   1.39584143E+07   0.31479375      
  3                6.99826855E-05   1.01241952E-03   39.84847243      7.16071134E-07   1.84024086E+17   9.06796223E+04   0.00000000E+00   1.38525519E+07   0.31483384      
  4                8.27943887E-05   1.64858157E-03   42.21774715      1.10058280E-06   2.82840259E+17   9.06796502E+04   0.00000000E+00   1.37808917E+07   0.31485863      
  5                9.79515255E-05   2.39572547E-03   44.40969615      1.52043054E-06   3.90737495E+17   9.06796964E+04   0.00000000E+00   1.37231340E+07   0.31487758      
  6                1.15883473E-04   3.27203983E-03   46.07632307      2.00146548E-06   5.14359312E+17   9.06797754E+04   0.00000000E+00   1.36728995E+07   0.31489356      
  7                1.37098216E-04   4.29918838E-03   48.14054036      2.51699789E-06   6.46846681E+17   9.06798804E+04   0.00000000E+00   1.36271361E+07   0.31490782      
  8                1.62196734E-04   5.50144631E-03   49.71415843      3.11891920E-06   8.01535251E+17   9.06800166E+04   0.00000000E+00   1.35842266E+07   0.31492101      
  9                1.91890027E-04   6.90621991E-03   51.85303638      3.75382089E-06   9.64699493E+17   9.06801655E+04   0.00000000E+00   1.35431714E+07   0.31493354      
  10               2.27019260E-04   8.54635731E-03   53.29234188      4.51984537E-06   1.16156116E+18   9.06803336E+04   0.00000000E+00   1.35033532E+07   0.31494565      
  11               2.68579588E-04   1.04579991E-02   55.40925420      5.31953451E-06   1.36707435E+18   9.06805268E+04   0.00000000E+00   1.34643673E+07   0.31495753      
  12               3.17748350E-04   1.26807958E-02   57.15973191      6.25264341E-06   1.60687526E+18   9.06806370E+04   0.00000000E+00   1.34258256E+07   0.31496932      
  13               3.75918418E-04   1.52607946E-02   58.63653009      7.33527198E-06   1.88510144E+18   9.06808639E+04   0.00000000E+00   1.33877296E+07   0.31498112      
  14               4.44737657E-04   1.82514769E-02   60.59861142      8.48872914E-06   2.18152995E+18   9.06811599E+04   0.00000000E+00   1.33498294E+07   0.31499302      
  15               5.26155608E-04   2.17143352E-02   62.21932903      9.83622718E-06   2.52782529E+18   9.06815375E+04   0.00000000E+00   1.33119329E+07   0.31500511      
  16               6.22478712E-04   2.57196447E-02   64.34177242      1.12662473E-05   2.89532809E+18   9.06820181E+04   0.00000000E+00   1.32738849E+07   0.31501747      
  17               7.36435649E-04   3.03452416E-02   66.18251398      1.29227421E-05   3.32103291E+18   9.06825529E+04   0.00000000E+00   1.32355494E+07   0.31503018      
  18               8.71254639E-04   3.56835551E-02   68.43264027      1.46964403E-05   3.77685802E+18   9.06832080E+04   0.00000000E+00   1.31968129E+07   0.31504332      
  19               1.03075489E-03   4.18460139E-02   70.56553526      1.67135533E-05   4.29523860E+18   9.06839363E+04   0.00000000E+00   1.31574929E+07   0.31505702      
  20               1.21945479E-03   4.89673664E-02   73.16965900      1.88617964E-05   4.84731849E+18   9.06846968E+04   0.00000000E+00   1.31173844E+07   0.31507136      
  21               1.44269991E-03   5.72047015E-02   75.83276073      2.12609268E-05   5.46387426E+18   9.06852478E+04   0.00000000E+00   1.30762501E+07   0.31508649      
  22               1.70681442E-03   6.67561189E-02   79.13792923      2.37746282E-05   6.10987376E+18   9.06850469E+04   0.00000000E+00   1.30337666E+07   0.31510253      
  23               2.01928028E-03   7.78907455E-02   82.66017940      2.65580909E-05   6.82519960E+18   9.06829280E+04   0.00000000E+00   1.29894547E+07   0.31511966      
  24               2.38894914E-03   9.09531798E-02   86.55076268      2.96179042E-05   7.61154515E+18   9.06781163E+04   0.00000000E+00   1.29428802E+07   0.31513805      
  25               2.82629313E-03   1.06323761E-01   90.85401774      3.29832563E-05   8.47641151E+18   9.06688521E+04   1.08316797E+01   1.28937027E+07   0.31515794      
  26               3.34370152E-03   1.24426538E-01   95.53496848      3.67077688E-05   9.43357901E+18   9.06523638E+04   2.73215819E+01   1.28416768E+07   0.31682886      
  27               3.95583167E-03   1.45786303E-01   100.41002416     4.09210697E-05   1.05163611E+19   9.06257767E+04   5.39094423E+01   1.27865651E+07   0.31897401      
  28               4.68002425E-03   1.71047363E-01   105.74154687     4.55908901E-05   1.17164640E+19   9.05839332E+04   9.57396953E+01   1.27280808E+07   0.3206989       
  29               5.53679448E-03   2.00936626E-01   111.29202306     5.08864925E-05   1.30773849E+19   9.05157975E+04   1.63783918E+02   1.26660261E+07   0.32246201      
  30               6.55041330E-03   2.36038170E-01   117.31326060     5.67078650E-05   1.45734029E+19   9.03997895E+04   2.79555188E+02   1.26006824E+07   0.32377636      
  31               7.74959494E-03   2.75655712E-01   123.28808664     6.30169842E-05   1.61946558E+19   9.02088323E+04   4.72560729E+02   1.25344092E+07   0.32515459      
  32               9.16831029E-03   3.15475534E-01   128.91730919     6.89723442E-05   1.77247571E+19   8.99321698E+04   7.67568451E+02   1.24740093E+07   0.32610069      
  33               1.08467493E-02   3.45913843E-01   132.76236456     7.34503397E-05   1.88720380E+19   8.96083935E+04   1.14360321E+03   1.24312432E+07   0.32562361      
  34               1.28324595E-02   3.70290875E-01   135.82111060     7.68491113E-05   1.97470203E+19   8.93061360E+04   1.47073824E+03   1.23987970E+07   0.32533747      
  35               1.51816929E-02   3.88505709E-01   137.87375181     7.94794042E-05   2.04099364E+19   8.90288487E+04   1.68277850E+03   1.23754882E+07   0.32512484      
  36               1.79609996E-02   4.01233948E-01   139.41175963     8.11777582E-05   2.08460657E+19   8.88056293E+04   1.84207693E+03   1.23596420E+07   0.32504019      
  37               2.12491128E-02   4.16257843E-01   141.00075708     8.32683151E-05   2.13829108E+19   8.86189525E+04   2.02890971E+03   1.23413684E+07   0.32490914      
  38               2.51391797E-02   4.33986503E-01   143.01179495     8.55939674E-05   2.19801274E+19   8.84567162E+04   2.19164313E+03   1.23203687E+07   0.32486739      
  39               2.97413996E-02   4.54900674E-01   145.12640891     8.84115333E-05   2.27036650E+19   8.83161070E+04   2.33304968E+03   1.22963270E+07   0.32464989      
  40               3.51861462E-02   4.79565066E-01   147.72444638     9.15659403E-05   2.35137019E+19   8.81958822E+04   2.45429011E+03   1.22689145E+07   0.32452762      
  41               4.16276604E-02   5.08642818E-01   150.48211021     9.53381754E-05   2.44823941E+19   8.80935472E+04   2.55782809E+03   1.22377930E+07   0.32409578      
  42               4.92484201E-02   5.42912589E-01   153.78552015     9.95756751E-05   2.55705639E+19   8.80049286E+04   2.64771622E+03   1.22026207E+07   0.32383658      
  43               5.82643093E-02   5.83288941E-01   157.30543522     1.04587265E-04   2.68575166E+19   8.79230911E+04   2.73085809E+03   1.21630557E+07   0.32307405      
  44               6.89307339E-02   6.30847830E-01   161.42774888     1.10226299E-04   2.83055933E+19   8.78377932E+04   2.81734593E+03   1.21187612E+07   0.3225404       
  45               8.15498567E-02   6.86856286E-01   165.82055495     1.16833209E-04   3.00022173E+19   8.77291710E+04   2.92702776E+03   1.20694066E+07   0.3212765       
  46               9.64791575E-02   7.52807740E-01   170.85953989     1.24274987E-04   3.19132242E+19   8.75580188E+04   3.09889223E+03   1.20146736E+07   0.32035544      
  47               1.14141560E-01   8.30464136E-01   176.21923264     1.32924928E-04   3.41344898E+19   8.72474915E+04   3.40971084E+03   1.19542534E+07   0.31875939      
  48               1.35037411E-01   9.21901310E-01   182.25951319     1.42670180E-04   3.66370136E+19   8.66779846E+04   3.97888774E+03   1.18878557E+07   0.31768691      
  49               1.59758657E-01   1.02956155E+00   188.67029002     1.53917541E-04   3.95252512E+19   8.55754168E+04   5.08098763E+03   1.18152041E+07   0.31594801      
  50               1.89005613E-01   1.15607146E+00   195.77084481     1.66562414E-04   4.27722902E+19   8.29212840E+04   7.73333003E+03   1.17361923E+07   0.31473617      
  51               2.23606798E-01   1.30413496E+00   203.24393806     1.80987293E-04   4.64762176E+19   7.61645741E+04   1.44869439E+04   1.16509145E+07   0.3128406       
  52               2.64542408E-01   1.47684317E+00   211.35795278     1.97086078E-04   5.06106163E+19   6.40204751E+04   2.66300565E+04   1.15594689E+07   0.31156905      
  53               3.12972084E-01   1.67738587E+00   219.82417670     2.15286311E-04   5.52692236E+19   4.83486391E+04   4.23059063E+04   1.14621051E+07   0.30980746      
  54               3.70267763E-01   1.90936337E+00   228.86482495     2.35329761E-04   6.04276042E+19   3.62399075E+04   5.44210405E+04   1.13590429E+07   0.30866893      
  55               4.38052539E-01   2.17624707E+00   238.22010054     2.58108835E-04   6.61691621E+19   2.90756045E+04   6.15980327E+04   1.12507172E+07   0.30716151      
  56               5.18246648E-01   2.47829040E+00   247.95302374     2.82245232E-04   7.23950088E+19   2.55049282E+04   6.51778948E+04   1.11388109E+07   0.30620137      
  57               6.13121862E-01   2.81772230E+00   257.82870086     3.09860194E-04   7.91576273E+19   2.37189018E+04   6.69490598E+04   1.10239701E+07   0.30498548      
  58               7.25365844E-01   3.18900988E+00   267.77285782     3.37666651E-04   8.62611315E+19   2.27721684E+04   6.78816938E+04   1.09091855E+07   0.30416232      
  59               8.58158289E-01   3.62139245E+00   278.27755912     3.68974427E-04   9.42590908E+19   2.23551425E+04   6.83023022E+04   1.07866884E+07   0.3032646       
  60               1.01526100E+00   4.12379047E+00   289.48317760     4.03898388E-04   1.03180849E+20   2.21913205E+04   6.84690962E+04   1.06565475E+07   0.30264597      
  61               1.20112443E+00   4.70645755E+00   301.24857547     4.42963563E-04   1.13160533E+20   2.23415974E+04   6.83214238E+04   1.05187947E+07   0.30199152      
  62               1.42101382E+00   5.38065356E+00   313.70037844     4.86316324E-04   1.24235533E+20   2.27880311E+04   6.78777662E+04   1.03735358E+07   0.30151043      
  63               1.68115827E+00   6.15838216E+00   326.68801389     5.34481030E-04   1.36539804E+20   2.34334719E+04   6.72354062E+04   1.02209892E+07   0.30104642      
  64               1.98892727E+00   7.05235729E+00   340.32029266     5.87550664E-04   1.50097100E+20   2.41687860E+04   6.65029057E+04   1.00614613E+07   0.3007465       
  65               2.35303941E+00   8.07772500E+00   354.46057963     6.46130115E-04   1.65061946E+20   2.48714380E+04   6.58028631E+04   9.89504460E+06   0.30049331      
  66               2.78380943E+00   9.25371694E+00   369.26714888     7.10516880E-04   1.81510343E+20   2.53797625E+04   6.52976390E+04   9.72148159E+06   0.30028706      
  67               3.29344035E+00   1.06000533E+01   384.59848218     7.81446693E-04   1.99630238E+20   2.55245691E+04   6.51560425E+04   9.54079884E+06   0.30009112      
  68               3.89636920E+00   1.21358851E+01   400.56963096     8.58998231E-04   2.19441759E+20   2.51984479E+04   6.54846163E+04   9.35334349E+06   0.29991887      
  69               4.60967600E+00   1.38786887E+01   416.97519898     9.43708224E-04   2.41081591E+20   2.44560384E+04   6.62278073E+04   9.15977538E+06   0.29976853      
  70               5.45356761E+00   1.58454497E+01   433.91151656     1.03538751E-03   2.64502166E+20   2.35201415E+04   6.71628746E+04   8.96080829E+06   0.29963976      
  71               6.45195012E+00   1.80613704E+01   451.22143602     1.13490761E-03   2.89925768E+20   2.25935123E+04   6.80890457E+04   8.75638870E+06   0.29950013      
  72               7.63310614E+00   2.05514202E+01   469.05733545     1.24226844E-03   3.17352371E+20   2.16534719E+04   6.90297853E+04   8.54667826E+06   0.29934051      
  73               9.03049593E+00   2.33394411E+01   487.21230381     1.35822533E-03   3.46974887E+20   2.03534678E+04   7.03305036E+04   8.33204234E+06   0.2991638       
  74               1.06837053E+01   2.64487335E+01   505.82844904     1.48255034E-03   3.78728048E+20   1.82408944E+04   7.24443513E+04   8.11292742E+06   0.29897415      
  75               1.26395671E+01   2.99047194E+01   524.68979836     1.61602939E-03   4.12822112E+20   1.66256850E+04   7.40581382E+04   7.88965044E+06   0.29876591      
  76               1.49534878E+01   3.37505265E+01   544.04561202     1.75896575E-03   4.49335860E+20   1.60140615E+04   7.46657380E+04   7.66154576E+06   0.29854827      
  77               1.76910170E+01   3.80402823E+01   563.77021323     1.91317081E-03   4.88728251E+20   1.54058839E+04   7.52723251E+04   7.42770135E+06   0.29825582      
  78               2.09297047E+01   4.28219186E+01   584.07776805     2.07876921E-03   5.31032726E+20   1.47824796E+04   7.58954707E+04   7.18793041E+06   0.29790105      
  79               2.47612977E+01   4.81376378E+01   604.72768999     2.25714082E-03   5.76568298E+20   1.41282876E+04   7.65497976E+04   6.94252396E+06   0.2974585       
  80               2.92943389E+01   5.40215393E+01   625.87052494     2.44746329E-03   6.25184634E+20   1.34738198E+04   7.72057229E+04   6.69218527E+06   0.2969909       
  81               3.46572422E+01   6.05015384E+01   647.21058380     2.65066310E-03   6.77090385E+20   1.28729220E+04   7.78041797E+04   6.43777211E+06   0.29648532      
  82               4.10019301E+01   6.76412392E+01   669.01322119     2.86688698E-03   7.32323034E+20   1.23370560E+04   7.83339497E+04   6.17877348E+06   0.29591218      
  83               4.85081376E+01   7.55348827E+01   691.13991327     3.09895516E-03   7.91602988E+20   1.18079100E+04   7.88606995E+04   5.91394506E+06   0.29530199      
  84               5.73885036E+01   8.42667782E+01   713.87103181     3.34711268E-03   8.54992825E+20   1.12327275E+04   7.94358936E+04   5.64282246E+06   0.29454005      
  85               6.78945948E+01   9.39143112E+01   736.92760047     3.61360469E-03   9.23066085E+20   1.05885047E+04   8.00818131E+04   5.36541969E+06   0.29378919      
  86               8.03240320E+01   1.04551484E+02   760.57162521     3.89783761E-03   9.95671143E+20   9.88105131E+03   8.07957380E+04   5.08199087E+06   0.29292161      
  87               9.50289215E+01   1.16260182E+02   784.47378459     4.20229193E-03   1.07344156E+21   9.15398846E+03   8.15295829E+04   4.79268739E+06   0.29199973      
  88               1.12425830E+02   1.29144583E+02   808.96537072     4.52668101E-03   1.15630420E+21   8.51019162E+03   8.21718145E+04   4.49727330E+06   0.29099603      
  89               1.33007583E+02   1.43405550E+02   833.87000422     4.87642248E-03   1.24564258E+21   8.00990863E+03   8.26615119E+04   4.19373857E+06   0.2899369       
  90               1.57357229E+02   1.59234747E+02   859.61319566     5.25252957E-03   1.34171602E+21   7.66812934E+03   8.29779359E+04   3.88096936E+06   0.28883901      
  91               1.86164557E+02   1.76783981E+02   885.82343514     5.65887425E-03   1.44551161E+21   7.45452329E+03   8.31421133E+04   3.55907820E+06   0.28762483      
  92               2.20245630E+02   1.96158691E+02   912.75280609     6.09381120E-03   1.55661144E+21   7.32952687E+03   8.31954557E+04   3.22914518E+06   0.28648521      
  93               2.60565913E+02   2.17415672E+02   939.91217369     6.55903717E-03   1.67544205E+21   7.25467329E+03   8.32027775E+04   2.89291447E+06   0.28517715      
  94               3.08267614E+02   2.40600792E+02   967.48758202     7.05164968E-03   1.80126452E+21   7.25500384E+03   8.31603954E+04   2.55200073E+06   0.28394907      
  95               3.64702046E+02   2.65807917E+02   995.10640007     7.57421136E-03   1.93474722E+21   7.28181245E+03   8.31171869E+04   2.20708798E+06   0.28258072      
  96               4.31467909E+02   2.93332990E+02   1023.21144353    8.12895206E-03   2.07644944E+21   7.28316166E+03   8.31179267E+04   1.85630176E+06   0.28127857      
  97               5.10456573E+02   3.23452997E+02   1051.59043389    8.72175227E-03   2.22787280E+21   7.25084606E+03   8.31657805E+04   1.49858774E+06   0.27985029      
  98               6.03905660E+02   3.56407039E+02   1080.52950349    9.35296408E-03   2.38910635E+21   7.17996167E+03   8.32690015E+04   1.13372270E+06   0.2784577       
  99               7.14462436E+02   3.92408088E+02   1109.72835947    1.00267877E-02   2.56122130E+21   7.08097383E+03   8.34271874E+04   7.61965236E+05   0.27708707      
  100              8.45258798E+02   4.31654240E+02   1139.42943108    1.07421438E-02   2.74393878E+21   6.96302677E+03   8.36636171E+04   3.83809380E+05   0.27565431      
  101              1.00000000E+03   4.74315861E+02   1169.26035042    1.15014605E-02   2.93820616E+21   6.88234902E+03   8.38441450E+04   0.00000000E+00   0.27420817      
