# ATMO pressure-temperature profile
# Effective temperature = 1600.0K
# log(g) = 5.0cm/s^2
# M/H = 0.0
# Optical depth grid in band 17 (1.20-1.33microns)
# All parameters in cgs units
#
# Model Level      Optical Depth    Pressure         Temperature      Density          Number Density   Rad Flux         Conv Flux        Radial Extension Adiabatic Gradient
#                                   [Ba]             [K]              [g/cm^3]         [/cm^3]          [ergs/s/cm^2/sr] [ergs/s/cm^2/sr] [cm]             [K/Ba]          
  1                1.00000000E-07   1.00000000E-05   568.40312051     4.98629326E-10   1.27429326E+14   3.71582522E+08   0.00000000E+00   7.79189947E+06   0.29789729      
  2                1.25892541E-07   1.28866437E-05   577.20106071     6.32748156E-10   1.61710619E+14   3.71582522E+08   0.00000000E+00   7.74050802E+06   0.29793527      
  3                1.58489319E-07   1.69515951E-05   597.07224280     8.04484536E-10   2.05640915E+14   3.71582522E+08   0.00000000E+00   7.68352716E+06   0.29797445      
  4                1.99526231E-07   2.21233019E-05   594.54912605     1.05453576E-09   2.69518165E+14   3.71582522E+08   0.00000000E+00   7.62737442E+06   0.29795839      
  5                2.51188643E-07   2.85546006E-05   611.68744632     1.32275937E-09   3.38121170E+14   3.71582522E+08   0.00000000E+00   7.57291728E+06   0.29796018      
  6                3.16227766E-07   3.65714346E-05   608.81438590     1.70237292E-09   4.35093836E+14   3.71582522E+08   0.00000000E+00   7.51949036E+06   0.29794549      
  7                3.98107171E-07   4.65074606E-05   625.57075117     2.10660254E-09   5.38483042E+14   3.71582522E+08   0.00000000E+00   7.46701957E+06   0.29791821      
  8                5.01187234E-07   5.89090026E-05   623.13068649     2.67914862E-09   6.84744213E+14   3.71582522E+08   0.00000000E+00   7.41481519E+06   0.29790473      
  9                6.30957344E-07   7.43369600E-05   639.90843138     3.29173676E-09   8.41419948E+14   3.71582522E+08   0.00000000E+00   7.36286119E+06   0.29784501      
  10               7.94328235E-07   9.36574978E-05   638.14876699     4.15921281E-09   1.06303229E+15   3.71582522E+08   0.00000000E+00   7.31064344E+06   0.29782975      
  11               1.00000000E-06   1.17772752E-04   655.02476388     5.09474609E-09   1.30230570E+15   3.71582522E+08   0.00000000E+00   7.25825398E+06   0.29801934      
  12               1.25892541E-06   1.48026069E-04   653.94510488     6.41475410E-09   1.63954278E+15   3.71582522E+08   0.00000000E+00   7.20533204E+06   0.29801557      
  13               1.58489319E-06   1.85827564E-04   670.87446013     7.84875416E-09   2.00629465E+15   3.71582522E+08   0.00000000E+00   7.15205564E+06   0.29784945      
  14               1.99526231E-06   2.33229849E-04   670.35658049     9.85948305E-09   2.52002062E+15   3.71582522E+08   0.00000000E+00   7.09816867E+06   0.29783855      
  15               2.51188643E-06   2.92408413E-04   687.31614344     1.20548529E-08   3.08147862E+15   3.71582522E+08   0.00000000E+00   7.04388487E+06   0.29765782      
  16               3.16227766E-06   3.66486243E-04   687.25516257     1.51115668E-08   3.86247344E+15   3.71582522E+08   0.00000000E+00   6.98899869E+06   0.29764032      
  17               3.98107171E-06   4.58835947E-04   704.31920251     1.84592422E-08   4.71860633E+15   3.71582522E+08   0.00000000E+00   6.93370371E+06   0.29744185      
  18               5.01187234E-06   5.74219580E-04   704.66428771     2.30919487E-08   5.90230401E+15   3.71582522E+08   0.00000000E+00   6.87781601E+06   0.29741791      
  19               6.30957344E-06   7.17864084E-04   721.93035618     2.81754431E-08   7.20232577E+15   3.71582522E+08   0.00000000E+00   6.82149976E+06   0.29719769      
  20               7.94328235E-06   8.96991185E-04   722.61737914     3.51755280E-08   8.99095063E+15   3.71582522E+08   0.00000000E+00   6.76459953E+06   0.29716773      
  21               1.00000000E-05   1.11959740E-03   740.13015685     4.28623707E-08   1.09566962E+16   3.71582522E+08   0.00000000E+00   6.70726872E+06   0.29692602      
  22               1.25892541E-05   1.39655806E-03   741.08271180     5.34011180E-08   1.36495444E+16   3.71582522E+08   0.00000000E+00   6.64937751E+06   0.29689006      
  23               1.58489319E-05   1.73991003E-03   758.83001721     6.49687345E-08   1.66076479E+16   3.71582522E+08   0.00000000E+00   6.59108400E+06   0.29662314      
  24               1.99526231E-05   2.16604481E-03   759.99773414     8.07628802E-08   2.06433882E+16   3.71582522E+08   0.00000000E+00   6.53225436E+06   0.29658139      
  25               2.51188643E-05   2.69315952E-03   777.95244728     9.80917164E-08   2.50746492E+16   3.71582523E+08   0.00000000E+00   6.47303140E+06   0.29629143      
  26               3.16227766E-05   3.34586147E-03   779.25842446     1.21670033E-07   3.10994200E+16   3.71582523E+08   0.00000000E+00   6.41328469E+06   0.29624476      
  27               3.98107171E-05   4.15134160E-03   797.43558795     1.47509215E-07   3.77067149E+16   3.71582523E+08   0.00000000E+00   6.35315906E+06   0.29592833      
  28               5.01187234E-05   5.14610031E-03   798.80671656     1.82556108E-07   4.66618958E+16   3.71582523E+08   0.00000000E+00   6.29253892E+06   0.29587731      
  29               6.30957344E-05   6.37030129E-03   817.19861713     2.20883779E-07   5.64622511E+16   3.71582523E+08   0.00000000E+00   6.23157427E+06   0.29553571      
  30               7.94328235E-05   7.87875276E-03   818.71655948     2.72701986E-07   6.97027218E+16   3.71582523E+08   0.00000000E+00   6.17011152E+06   0.29547877      
  31               1.00000000E-04   9.73246212E-03   837.52383707     3.29278786E-07   8.41688484E+16   3.71582523E+08   0.00000000E+00   6.10824998E+06   0.29511339      
  32               1.25892541E-04   1.20139562E-02   839.30020907     4.05638276E-07   1.03679896E+17   3.71582524E+08   0.00000000E+00   6.04582271E+06   0.29498407      
  33               1.58489319E-04   1.48174572E-02   858.83187213     4.88890575E-07   1.24965855E+17   3.71582523E+08   0.00000000E+00   5.98286767E+06   0.29461428      
  34               1.99526231E-04   1.82714638E-02   861.26423249     6.01191669E-07   1.53660687E+17   3.71582522E+08   0.00000000E+00   5.91915638E+06   0.29451316      
  35               2.51188643E-04   2.25236862E-02   881.85701320     7.23764527E-07   1.84998043E+17   3.71582525E+08   0.00000000E+00   5.85469252E+06   0.29409739      
  36               3.16227766E-04   2.77741688E-02   885.31278655     8.89053080E-07   2.27232357E+17   3.71582524E+08   0.00000000E+00   5.78923775E+06   0.2940269       
  37               3.98107171E-04   3.42619033E-02   907.50279394     1.06983588E-06   2.73457195E+17   3.71582523E+08   0.00000000E+00   5.72271410E+06   0.29352883      
  38               5.01187234E-04   4.23073572E-02   912.57171252     1.31378981E-06   3.35795394E+17   3.71582525E+08   0.00000000E+00   5.65485120E+06   0.29330261      
  39               6.30957344E-04   5.22990198E-02   936.82436683     1.58190806E-06   4.04353504E+17   3.71582531E+08   0.00000000E+00   5.58554212E+06   0.29262586      
  40               7.94328235E-04   6.47696540E-02   944.23074117     1.94382625E-06   4.96843121E+17   3.71582518E+08   0.00000000E+00   5.51442548E+06   0.29240349      
  41               1.00000000E-03   8.03810909E-02   971.20266313     2.34517593E-06   5.99473336E+17   3.71582527E+08   0.00000000E+00   5.44130601E+06   0.29170941      
  42               1.25892541E-03   1.00011623E-01   981.43464617     2.88757542E-06   7.38099534E+17   3.71582528E+08   0.00000000E+00   5.36587000E+06   0.29134666      
  43               1.58489319E-03   1.24770072E-01   1011.73700840    3.49424783E-06   8.93240959E+17   3.71582536E+08   0.00000000E+00   5.28792525E+06   0.29040348      
  44               1.99526231E-03   1.56156348E-01   1025.71463776    4.31371000E-06   1.10270395E+18   3.71582509E+08   0.00000000E+00   5.20708312E+06   0.28992419      
  45               2.51188643E-03   1.96032195E-01   1060.15521291    5.23893427E-06   1.33931825E+18   3.71582556E+08   0.00000000E+00   5.12320087E+06   0.28891505      
  46               3.16227766E-03   2.46921073E-01   1078.84518417    6.48463152E-06   1.65777226E+18   3.71582506E+08   0.00000000E+00   5.03589192E+06   0.28830692      
  47               3.98107171E-03   3.11925508E-01   1118.74779965    7.89903043E-06   2.01950316E+18   3.71582545E+08   0.00000000E+00   4.94506379E+06   0.28704678      
  48               5.01187234E-03   3.95185832E-01   1143.43514413    9.79132350E-06   2.50331597E+18   3.71582499E+08   0.00000000E+00   4.85038981E+06   0.28618722      
  49               6.30957344E-03   5.01530111E-01   1189.89880718    1.19401949E-05   3.05290171E+18   3.71582580E+08   0.00000000E+00   4.75203539E+06   0.28460455      
  50               7.94328235E-03   6.37464651E-01   1221.88528135    1.47789560E-05   3.77877918E+18   3.71582442E+08   0.00000000E+00   4.64970547E+06   0.28338908      
  51               1.00000000E-02   8.09301089E-01   1275.79503012    1.79690983E-05   4.59467776E+18   3.71582643E+08   0.00000000E+00   4.54425829E+06   0.28139252      
  52               1.25892541E-02   1.02449267E+00   1315.19881180    2.20652135E-05   5.64213257E+18   3.71582241E+08   0.00000000E+00   4.43618742E+06   0.27993478      
  53               1.58489319E-02   1.28863840E+00   1375.17923696    2.65429748E-05   6.78730868E+18   3.71582520E+08   0.00000000E+00   4.32703888E+06   0.27792523      
  54               1.99526231E-02   1.60775085E+00   1419.15944918    3.20894745E-05   8.20565764E+18   3.71582059E+08   0.00000000E+00   4.21769655E+06   0.27635077      
  55               2.51188643E-02   1.98579754E+00   1482.25869486    3.79483361E-05   9.70368747E+18   3.71582822E+08   0.00000000E+00   4.10936071E+06   0.27399104      
  56               3.16227766E-02   2.42578609E+00   1528.74882866    4.49500395E-05   1.14932328E+19   3.71582667E+08   0.00000000E+00   4.00282750E+06   0.27225807      
  57               3.98107171E-02   2.91854244E+00   1593.56429736    5.19028155E-05   1.32654584E+19   3.71583102E+08   0.00000000E+00   3.90080441E+06   0.26987984      
  58               5.01187234E-02   3.43673898E+00   1640.43184757    5.93780871E-05   1.51744932E+19   3.71578784E+08   0.00000000E+00   3.80745937E+06   0.26814922      
  59               6.30957344E-02   3.95218257E+00   1702.62734554    6.58167914E-05   1.68129234E+19   3.71294380E+08   3.27987525E+05   3.72500424E+06   0.26568525      
  60               7.94328235E-02   4.41155717E+00   1752.95454065    7.14588976E-05   1.82283390E+19   3.66020920E+08   5.59819546E+06   3.65801165E+06   0.26368771      
  61               1.00000000E-01   4.81314545E+00   1793.45205965    7.62010295E-05   1.94386031E+19   3.59782052E+08   1.18218358E+07   3.60358986E+06   0.26199843      
  62               1.25892541E-01   5.18074910E+00   1828.34892370    8.04745754E-05   2.05238730E+19   3.53275309E+08   1.83141002E+07   3.55664531E+06   0.26049521      
  63               1.58489319E-01   5.49459371E+00   1856.39659413    8.40584355E-05   2.14383157E+19   3.46706181E+08   2.48737965E+07   3.51848650E+06   0.25909686      
  64               1.99526231E-01   5.86284615E+00   1887.89389270    8.81899257E-05   2.24934854E+19   3.38421700E+08   3.31376846E+07   3.47571585E+06   0.25780824      
  65               2.51188643E-01   6.14228487E+00   1910.50479058    9.13823599E-05   2.32866847E+19   3.30438781E+08   4.10660397E+07   3.44458400E+06   0.25690593      
  66               3.16227766E-01   6.34507194E+00   1926.62579750    9.36078298E-05   2.38542090E+19   3.23649302E+08   4.78270014E+07   3.42265832E+06   0.2562264       
  67               3.98107171E-01   6.58959133E+00   1945.23029780    9.62833373E-05   2.45365386E+19   3.16448589E+08   5.50306901E+07   3.39690212E+06   0.25539908      
  68               5.01187234E-01   6.88209375E+00   1967.02426421    9.94403210E-05   2.53417561E+19   3.08386226E+08   6.30998128E+07   3.36700889E+06   0.25441541      
  69               6.30957344E-01   7.22916267E+00   1991.62258113    1.03161482E-04   2.62909812E+19   2.99205254E+08   7.22890325E+07   3.33274190E+06   0.25322683      
  70               7.94328235E-01   7.63751771E+00   2019.59726747    1.07474326E-04   2.73913411E+19   2.88873111E+08   8.26205494E+07   3.29396017E+06   0.25186288      
  71               1.00000000E+00   8.11628096E+00   2050.54515589    1.12481144E-04   2.86690680E+19   2.77540064E+08   9.39527546E+07   3.25041610E+06   0.25026279      
  72               1.25892541E+00   8.67668816E+00   2085.12142389    1.18244772E-04   3.01403630E+19   2.65082133E+08   1.06416729E+08   3.20182311E+06   0.2484525       
  73               1.58489319E+00   9.32899326E+00   2122.74068675    1.24869334E-04   3.18319816E+19   2.51177507E+08   1.20327580E+08   3.14814060E+06   0.24633807      
  74               1.99526231E+00   1.00844358E+01   2163.80733770    1.32403056E-04   3.37566122E+19   2.35703577E+08   1.35807427E+08   3.08938819E+06   0.2440408       
  75               2.51188643E+00   1.09554102E+01   2207.65706017    1.40959887E-04   3.59437077E+19   2.18635899E+08   1.52880235E+08   3.02563379E+06   0.24143601      
  76               3.16227766E+00   1.19557191E+01   2254.59629272    1.50598760E-04   3.84089781E+19   2.00125126E+08   1.71395008E+08   2.95697792E+06   0.2384959       
  77               3.98107171E+00   1.31008305E+01   2303.87020259    1.61454585E-04   4.11876165E+19   1.80448894E+08   1.91073922E+08   2.88354103E+06   0.23521185      
  78               5.01187234E+00   1.44075466E+01   2355.73688225    1.73615163E-04   4.42985071E+19   1.60244218E+08   2.11279683E+08   2.80549009E+06   0.2316971       
  79               6.30957344E+00   1.58956221E+01   2409.45123586    1.87209312E-04   4.77843000E+19   1.40513260E+08   2.31010410E+08   2.72294883E+06   0.22787277      
  80               7.94328235E+00   1.75880378E+01   2465.29741082    2.02360738E-04   5.16742177E+19   1.22037434E+08   2.49483766E+08   2.63599584E+06   0.22388576      
  81               1.00000000E+01   1.95102895E+01   2522.57085463    2.19266814E-04   5.60203968E+19   1.05151162E+08   2.66365066E+08   2.54473894E+06   0.21974274      
  82               1.25892541E+01   2.16916930E+01   2581.57681553    2.38063528E-04   6.08603207E+19   9.02227538E+07   2.81286926E+08   2.44925972E+06   0.215389        
  83               1.58489319E+01   2.41656557E+01   2641.57448015    2.59005477E-04   6.62615456E+19   7.72919628E+07   2.94210121E+08   2.34962775E+06   0.21098423      
  84               1.99526231E+01   2.69701476E+01   2702.98881295    2.82260692E-04   7.22711416E+19   6.61778609E+07   3.05316734E+08   2.24590315E+06   0.20656496      
  85               2.51188643E+01   3.01479755E+01   2765.07870285    3.08142053E-04   7.89726108E+19   5.65700393E+07   3.14918457E+08   2.13814812E+06   0.20201907      
  86               3.16227766E+01   3.37469402E+01   2828.21865126    3.36864240E-04   8.64265665E+19   4.84276944E+07   3.23056961E+08   2.02644039E+06   0.19772992      
  87               3.98107171E+01   3.78198332E+01   2891.86550875    3.68769416E-04   9.47255984E+19   4.14213038E+07   3.30062987E+08   1.91088047E+06   0.19358373      
  88               5.01187234E+01   4.24249753E+01   2956.34017864    4.04111740E-04   1.03942470E+20   3.53666678E+07   3.36121766E+08   1.79158483E+06   0.18958032      
  89               6.30957344E+01   4.76263847E+01   3021.07796967    4.43289679E-04   1.14185648E+20   3.00782926E+07   3.41421522E+08   1.66868915E+06   0.18578093      
  90               7.94328235E+01   5.34904302E+01   3086.42340185    4.86554638E-04   1.25529682E+20   2.54528114E+07   3.46065919E+08   1.54241971E+06   0.18207542      
  91               1.00000000E+02   6.00821709E+01   3151.62303254    5.34299242E-04   1.38082039E+20   2.14419822E+07   3.50099838E+08   1.41313335E+06   0.17868061      
  92               1.25892541E+02   6.74711376E+01   3217.17859842    5.86710872E-04   1.51903822E+20   1.80626077E+07   3.53505022E+08   1.28115877E+06   0.17555636      
  93               1.58489319E+02   7.57318789E+01   3282.34744479    6.44235367E-04   1.67116765E+20   1.52072801E+07   3.56388716E+08   1.14679088E+06   0.17267461      
  94               1.99526231E+02   8.49468508E+01   3347.71622805    7.07083075E-04   1.83791103E+20   1.28073866E+07   3.58819160E+08   1.01025479E+06   0.17009361      
  95               2.51188643E+02   9.52077577E+01   3412.64905379    7.75786814E-04   2.02072190E+20   1.07689580E+07   3.60889494E+08   8.71710042E+05   0.16780708      
  96               3.16227766E+02   1.06617502E+02   3477.83379058    8.50605045E-04   2.22047311E+20   9.04612504E+06   3.62645191E+08   7.31250406E+05   0.16573498      
  97               3.98107171E+02   1.19292406E+02   3542.61936819    9.32220620E-04   2.43901318E+20   7.58044262E+06   3.64143557E+08   5.88908781E+05   0.16392138      
  98               5.01187234E+02   1.33363560E+02   3607.81316726    1.02095154E-03   2.67743528E+20   6.35934664E+06   3.65395707E+08   4.44671199E+05   0.16226953      
  99               6.30957344E+02   1.48977202E+02   3672.69797495    1.11766073E-03   2.93805849E+20   5.34084599E+06   3.66443064E+08   2.98501621E+05   0.16079819      
  100              7.94328235E+02   1.66299772E+02   3738.15914893    1.22274140E-03   3.22225352E+20   4.49454074E+06   3.67315293E+08   1.50317890E+05   0.15951929      
  101              1.00000000E+03   1.85520868E+02   3803.50125360    1.33727536E-03   3.53293009E+20   4.09352129E+06   3.67739543E+08   0.00000000E+00   0.15842914      
