# ATMO pressure-temperature profile
# Effective temperature = 1700.0K
# log(g) = 5.5cm/s^2
# M/H = 0.0
# Optical depth grid in band 17 (1.20-1.33microns)
# All parameters in cgs units
#
# Model Level      Optical Depth    Pressure         Temperature      Density          Number Density   Rad Flux         Conv Flux        Radial Extension Adiabatic Gradient
#                                   [Ba]             [K]              [g/cm^3]         [/cm^3]          [ergs/s/cm^2/sr] [ergs/s/cm^2/sr] [cm]             [K/Ba]          
  1                1.00000000E-07   1.00000000E-05   597.15144336     4.74420290E-10   1.21294568E+14   4.73556103E+08   0.00000000E+00   2.65167160E+06   0.29800209      
  2                1.25892541E-07   2.50074666E-05   623.38155854     1.13648745E-09   2.90563854E+14   4.73556103E+08   0.00000000E+00   2.58704010E+06   0.29795135      
  3                1.58489319E-07   4.23996885E-05   633.81777244     1.89528283E-09   4.84533816E+14   4.73556103E+08   0.00000000E+00   2.54956518E+06   0.29789966      
  4                1.99526231E-07   6.27545168E-05   646.00409160     2.75223505E-09   7.03615763E+14   4.73556103E+08   0.00000000E+00   2.52138215E+06   0.2978096       
  5                2.51188643E-07   8.70609265E-05   652.40504807     3.78096242E-09   9.66566661E+14   4.73556103E+08   0.00000000E+00   2.49755458E+06   0.29776352      
  6                3.16227766E-07   1.16383992E-04   662.92090627     4.97419564E-09   1.27162007E+15   4.73556103E+08   0.00000000E+00   2.47617265E+06   0.29789652      
  7                3.98107171E-07   1.52100847E-04   668.59920357     6.44575274E-09   1.64775113E+15   4.73556103E+08   0.00000000E+00   2.45622569E+06   0.29785989      
  8                5.01187234E-07   1.95794661E-04   678.82403036     8.17229082E-09   2.08914930E+15   4.73556103E+08   0.00000000E+00   2.43718812E+06   0.29771432      
  9                6.30957344E-07   2.49548746E-04   684.53587380     1.03293505E-08   2.64049298E+15   4.73556103E+08   0.00000000E+00   2.41868673E+06   0.29767359      
  10               7.94328235E-07   3.15791648E-04   694.85796897     1.28768466E-08   3.29177723E+15   4.73556103E+08   0.00000000E+00   2.40052327E+06   0.29751578      
  11               1.00000000E-06   3.97688133E-04   700.81767102     1.60788242E-08   4.11020447E+15   4.73556103E+08   0.00000000E+00   2.38252486E+06   0.29746759      
  12               1.25892541E-06   4.98928369E-04   711.31648269     1.98738942E-08   5.08043812E+15   4.73556103E+08   0.00000000E+00   2.36461529E+06   0.29729402      
  13               1.58489319E-06   6.24276251E-04   717.54644786     2.46516036E-08   6.30162615E+15   4.73556103E+08   0.00000000E+00   2.34670702E+06   0.29723779      
  14               1.99526231E-06   7.79298792E-04   728.22318767     3.03214066E-08   7.75113568E+15   4.73556103E+08   0.00000000E+00   2.32877629E+06   0.29705027      
  15               2.51188643E-06   9.71154989E-04   734.72291589     3.74528573E-08   9.57394217E+15   4.73556103E+08   0.00000000E+00   2.31077269E+06   0.29698567      
  16               3.16227766E-06   1.20825570E-03   745.60324898     4.59159151E-08   1.17375350E+16   4.73556103E+08   0.00000000E+00   2.29269224E+06   0.29678107      
  17               3.98107171E-06   1.50136631E-03   752.38758884     5.65414556E-08   1.44534287E+16   4.73556103E+08   0.00000000E+00   2.27450080E+06   0.29670531      
  18               5.01187234E-06   1.86323535E-03   763.51381782     6.91457863E-08   1.76757013E+16   4.73556103E+08   0.00000000E+00   2.25619935E+06   0.29648353      
  19               6.30957344E-06   2.31018939E-03   770.58426969     8.49477509E-08   2.17146725E+16   4.73556103E+08   0.00000000E+00   2.23775750E+06   0.29639609      
  20               7.94328235E-06   2.86150518E-03   781.94948399     1.03689381E-07   2.65058465E+16   4.73556103E+08   0.00000000E+00   2.21918126E+06   0.29615648      
  21               1.00000000E-05   3.54155617E-03   789.27345775     1.27143639E-07   3.25006821E+16   4.73556103E+08   0.00000000E+00   2.20045170E+06   0.29605628      
  22               1.25892541E-05   4.37913571E-03   800.87079334     1.54934893E-07   3.96051615E+16   4.73556103E+08   0.00000000E+00   2.18158029E+06   0.2957962       
  23               1.58489319E-05   5.41038380E-03   808.40665127     1.89640573E-07   4.84756940E+16   4.73556103E+08   0.00000000E+00   2.16255534E+06   0.29568384      
  24               1.99526231E-05   6.67793833E-03   820.21499985     2.30698441E-07   5.89712776E+16   4.73556103E+08   0.00000000E+00   2.14339166E+06   0.29540492      
  25               2.51188643E-05   8.23561663E-03   827.99421616     2.81843856E-07   7.20434760E+16   4.73556103E+08   0.00000000E+00   2.12407412E+06   0.29527918      
  26               3.16227766E-05   1.01464809E-02   840.01188711     3.42272296E-07   8.74894834E+16   4.73556104E+08   0.00000000E+00   2.10461872E+06   0.29493843      
  27               3.98107171E-05   1.24891505E-02   847.95182509     4.17362929E-07   1.06681118E+17   4.73556104E+08   0.00000000E+00   2.08501814E+06   0.2948051       
  28               5.01187234E-05   1.53572617E-02   860.24411975     5.05871688E-07   1.29305773E+17   4.73556103E+08   0.00000000E+00   2.06527942E+06   0.29450744      
  29               6.30957344E-05   1.88680858E-02   868.46353272     6.15661812E-07   1.57362807E+17   4.73556101E+08   0.00000000E+00   2.04538558E+06   0.29434838      
  30               7.94328235E-05   2.31604666E-02   881.11132429     7.44867870E-07   1.90389223E+17   4.73556106E+08   0.00000000E+00   2.02534143E+06   0.29404381      
  31               1.00000000E-04   2.84105457E-02   889.78765974     9.04827865E-07   2.31269860E+17   4.73556105E+08   0.00000000E+00   2.00511851E+06   0.293918        
  32               1.25892541E-04   3.48324660E-02   903.19398898     1.09287890E-06   2.79337359E+17   4.73556102E+08   0.00000000E+00   1.98469662E+06   0.29354824      
  33               1.58489319E-04   4.26993910E-02   912.79138585     1.32564582E-06   3.38825422E+17   4.73556102E+08   0.00000000E+00   1.96402827E+06   0.29327895      
  34               1.99526231E-04   5.23443438E-02   927.37710598     1.59950418E-06   4.08826679E+17   4.73556117E+08   0.00000000E+00   1.94308262E+06   0.29279083      
  35               2.51188643E-04   6.42032535E-02   938.48184486     1.93869259E-06   4.95515222E+17   4.73556107E+08   0.00000000E+00   1.92178663E+06   0.29254751      
  36               3.16227766E-04   7.88213115E-02   954.93384735     2.33905372E-06   5.97855473E+17   4.73556104E+08   0.00000000E+00   1.90007885E+06   0.29207923      
  37               3.98107171E-04   9.68977633E-02   968.09055024     2.83641710E-06   7.24975969E+17   4.73556093E+08   0.00000000E+00   1.87788625E+06   0.29173322      
  38               5.01187234E-04   1.19307791E-01   986.84666074     3.42594843E-06   8.75679065E+17   4.73556126E+08   0.00000000E+00   1.85515268E+06   0.29107638      
  39               6.30957344E-04   1.47188719E-01   1002.64940384    4.15992875E-06   1.06328887E+18   4.73556105E+08   0.00000000E+00   1.83179800E+06   0.2906201       
  40               7.94328235E-04   1.81982564E-01   1024.40509820    5.03390352E-06   1.28671952E+18   4.73556109E+08   0.00000000E+00   1.80775392E+06   0.28992179      
  41               1.00000000E-03   2.25554506E-01   1043.55650434    6.12459286E-06   1.56552994E+18   4.73556077E+08   0.00000000E+00   1.78293882E+06   0.28939784      
  42               1.25892541E-03   2.80289031E-01   1069.01965782    7.42926330E-06   1.89909308E+18   4.73556184E+08   0.00000000E+00   1.75727912E+06   0.28855527      
  43               1.58489319E-03   3.49284688E-01   1092.41805602    9.05955784E-06   2.31588248E+18   4.73556050E+08   0.00000000E+00   1.73068437E+06   0.28785085      
  44               1.99526231E-03   4.36444653E-01   1122.57419232    1.10156953E-05   2.81604742E+18   4.73556218E+08   0.00000000E+00   1.70309386E+06   0.28681233      
  45               2.51188643E-03   5.46857507E-01   1151.25075542    1.34582906E-05   3.44056756E+18   4.73555975E+08   0.00000000E+00   1.67441778E+06   0.28588401      
  46               3.16227766E-03   6.87017670E-01   1187.29369895    1.63936587E-05   4.19117296E+18   4.73556311E+08   0.00000000E+00   1.64457808E+06   0.28455483      
  47               3.98107171E-03   8.65043602E-01   1222.52003546    2.00463040E-05   5.12516501E+18   4.73555816E+08   0.00000000E+00   1.61352322E+06   0.283291        
  48               5.01187234E-03   1.09053783E+00   1265.56504045    2.44112530E-05   6.24140128E+18   4.73556545E+08   0.00000000E+00   1.58128834E+06   0.28167914      
  49               6.30957344E-03   1.37472733E+00   1308.11889545    2.97707574E-05   7.61193702E+18   4.73555825E+08   0.00000000E+00   1.54795187E+06   0.28018851      
  50               7.94328235E-03   1.72845442E+00   1358.17219355    3.60502916E-05   9.21783514E+18   4.73556359E+08   0.00000000E+00   1.51380732E+06   0.27840687      
  51               1.00000000E-02   2.16243460E+00   1406.70008199    4.35449769E-05   1.11344126E+19   4.73555079E+08   0.00000000E+00   1.47916971E+06   0.27674517      
  52               1.25892541E-02   2.68758587E+00   1461.12530927    5.21036174E-05   1.33229601E+19   4.73556621E+08   0.00000000E+00   1.44430516E+06   0.27472816      
  53               1.58489319E-02   3.31139015E+00   1512.84128141    6.20028969E-05   1.58541450E+19   4.73554939E+08   0.00000000E+00   1.40959861E+06   0.27285487      
  54               1.99526231E-02   4.02156856E+00   1568.73105462    7.26523247E-05   1.85683290E+19   4.73558274E+08   0.00000000E+00   1.37613442E+06   0.27075239      
  55               2.51188643E-02   4.81085158E+00   1620.81101210    8.41194207E-05   2.14988594E+19   4.73557055E+08   0.00000000E+00   1.34420719E+06   0.26886323      
  56               3.16227766E-02   5.66744782E+00   1675.64389433    9.58675398E-05   2.44980570E+19   4.73562324E+08   0.00000000E+00   1.31404249E+06   0.26680846      
  57               3.98107171E-02   6.52867635E+00   1724.85720293    1.07320584E-04   2.74156049E+19   4.73542023E+08   0.00000000E+00   1.28719200E+06   0.26494209      
  58               5.01187234E-02   7.31673245E+00   1777.52249417    1.16878908E-04   2.98145260E+19   4.71908948E+08   1.68356017E+06   1.26493809E+06   0.2629494       
  59               6.30957344E-02   8.00582661E+00   1819.89226657    1.24904960E-04   3.18629763E+19   4.67505245E+08   6.06502497E+06   1.24690289E+06   0.26129555      
  60               7.94328235E-02   8.59814169E+00   1854.08220427    1.31710614E-04   3.35893385E+19   4.62294122E+08   1.12508609E+07   1.23229882E+06   0.25979025      
  61               1.00000000E-01   9.06150724E+00   1879.40892804    1.36935733E-04   3.49224735E+19   4.57058000E+08   1.64703621E+07   1.22138805E+06   0.25840356      
  62               1.25892541E-01   9.60821261E+00   1908.06990245    1.43013248E-04   3.64732248E+19   4.50523083E+08   2.30050994E+07   1.20903407E+06   0.2571492       
  63               1.58489319E-01   1.02481852E+01   1939.83849815    1.50030885E-04   3.82654857E+19   4.41781255E+08   3.17247193E+07   1.19521804E+06   0.25630766      
  64               1.99526231E-01   1.07366940E+01   1963.16169280    1.55449977E-04   3.96132380E+19   4.32995955E+08   4.04588535E+07   1.18510132E+06   0.25569959      
  65               2.51188643E-01   1.10990172E+01   1979.80704497    1.59341760E-04   4.06057465E+19   4.25235268E+08   4.81923305E+07   1.17782124E+06   0.25495924      
  66               3.16227766E-01   1.15355279E+01   1999.41448586    1.63980553E-04   4.17888559E+19   4.16837267E+08   5.65883992E+07   1.16928170E+06   0.2540746       
  67               3.98107171E-01   1.20559694E+01   2021.85127684    1.69472183E-04   4.31895590E+19   4.07360748E+08   6.60641699E+07   1.15940921E+06   0.25303365      
  68               5.01187234E-01   1.26725720E+01   2047.54864422    1.75897281E-04   4.48287242E+19   3.96829854E+08   7.65960420E+07   1.14811576E+06   0.25184052      
  69               6.30957344E-01   1.34026772E+01   2076.50059611    1.83428431E-04   4.67504008E+19   3.85102414E+08   8.83264325E+07   1.13526221E+06   0.25044103      
  70               7.94328235E-01   1.42617253E+01   2109.03933656    1.92161814E-04   4.89793735E+19   3.71750204E+08   1.01682709E+08   1.12079279E+06   0.24883348      
  71               1.00000000E+00   1.52664706E+01   2144.88502571    2.02245842E-04   5.15537745E+19   3.56495581E+08   1.16942220E+08   1.10467582E+06   0.24700606      
  72               1.25892541E+00   1.64351902E+01   2184.24932338    2.13783057E-04   5.45002335E+19   3.39136008E+08   1.34306977E+08   1.08690184E+06   0.24497547      
  73               1.58489319E+00   1.77879289E+01   2226.73524173    2.26935270E-04   5.78605613E+19   3.19517863E+08   1.53930064E+08   1.06748057E+06   0.24264664      
  74               1.99526231E+00   1.93468814E+01   2272.43757494    2.41821135E-04   6.16658678E+19   2.97599275E+08   1.75853911E+08   1.04643618E+06   0.24001485      
  75               2.51188643E+00   2.11368125E+01   2320.86980263    2.58628367E-04   6.59651503E+19   2.73473789E+08   1.99983190E+08   1.02380261E+06   0.23709732      
  76               3.16227766E+00   2.31847678E+01   2372.07087038    2.77522855E-04   7.07947301E+19   2.47559543E+08   2.25896878E+08   9.99628613E+05   0.23394196      
  77               3.98107171E+00   2.55221412E+01   2425.53342277    2.98677418E-04   7.62141629E+19   2.20786185E+08   2.52667516E+08   9.73955380E+05   0.23053065      
  78               5.01187234E+00   2.81850582E+01   2481.31737777    3.22307022E-04   8.22739709E+19   1.94194293E+08   2.79254685E+08   9.46814422E+05   0.22695294      
  79               6.30957344E+00   3.12139872E+01   2538.93856272    3.48690023E-04   8.90477388E+19   1.68769430E+08   3.04671995E+08   9.18242551E+05   0.22315823      
  80               7.94328235E+00   3.46558578E+01   2598.45037645    3.78074754E-04   9.66024332E+19   1.45594822E+08   3.27838051E+08   8.88265365E+05   0.21921929      
  81               1.00000000E+01   3.85647387E+01   2659.42312200    4.10820756E-04   1.05033731E+20   1.25114126E+08   3.48310196E+08   8.56900532E+05   0.21518407      
  82               1.25892541E+01   4.30027680E+01   2721.96953651    4.47251987E-04   1.14429761E+20   1.07307131E+08   3.66110542E+08   8.24159366E+05   0.21098213      
  83               1.58489319E+01   4.80410528E+01   2785.61796082    4.87836558E-04   1.24915635E+20   9.19185063E+07   3.81495828E+08   7.90049788E+05   0.206814        
  84               1.99526231E+01   5.37601981E+01   2850.61470832    5.32965196E-04   1.36599207E+20   7.86251155E+07   3.94790415E+08   7.54580522E+05   0.20276523      
  85               2.51188643E+01   6.02506574E+01   2916.51974522    5.83197526E-04   1.49631389E+20   6.71270595E+07   4.06294602E+08   7.17765383E+05   0.19879381      
  86               3.16227766E+01   6.76120381E+01   2983.54443876    6.38994280E-04   1.64141106E+20   5.73500393E+07   4.16083128E+08   6.79631425E+05   0.19494845      
  87               3.98107171E+01   7.59518427E+01   3051.21983989    7.00977494E-04   1.80297894E+20   4.89477029E+07   4.24503779E+08   6.40225208E+05   0.19117984      
  88               5.01187234E+01   8.53745403E+01   3119.61567260    7.69564850E-04   1.98222580E+20   4.16458046E+07   4.31829858E+08   5.99654697E+05   0.18754483      
  89               6.30957344E+01   9.59875566E+01   3188.18528632    8.45316725E-04   2.18070652E+20   3.52908754E+07   4.38213008E+08   5.58042889E+05   0.18420897      
  90               7.94328235E+01   1.07907255E+02   3257.16886555    9.28617960E-04   2.39958539E+20   2.97822594E+07   4.43753923E+08   5.15498000E+05   0.18105026      
  91               1.00000000E+02   1.21261257E+02   3326.00101928    1.02014896E-03   2.64073930E+20   2.50396016E+07   4.48532559E+08   4.72109811E+05   0.17817297      
  92               1.25892541E+02   1.36188974E+02   3395.10224187    1.12032436E-03   2.90546020E+20   2.10638934E+07   4.52546726E+08   4.27952739E+05   0.17560481      
  93               1.58489319E+02   1.52840801E+02   3463.97263712    1.22991535E-03   3.19588167E+20   1.77306575E+07   4.55919661E+08   3.83092369E+05   0.17328946      
  94               1.99526231E+02   1.71384413E+02   3533.07556336    1.34940825E-03   3.51353461E+20   1.49292904E+07   4.58760412E+08   3.37573068E+05   0.17122609      
  95               2.51188643E+02   1.92008743E+02   3601.97296469    1.47975929E-03   3.86105863E+20   1.25503876E+07   4.61176892E+08   2.91417615E+05   0.16936538      
  96               3.16227766E+02   2.14929110E+02   3671.18404916    1.62161778E-03   4.24047905E+20   1.05363125E+07   4.63226188E+08   2.44626626E+05   0.16765043      
  97               3.98107171E+02   2.40392474E+02   3740.27571906    1.77624324E-03   4.65525085E+20   8.82737414E+06   4.64967311E+08   1.97180520E+05   0.16614537      
  98               5.01187234E+02   2.68681878E+02   3809.89733845    1.94447143E-03   5.10800062E+20   7.41147341E+06   4.66411229E+08   1.49043168E+05   0.16480561      
  99               6.30957344E+02   3.00118877E+02   3879.59828002    2.12791785E-03   5.60315188E+20   6.23866994E+06   4.67607535E+08   1.00169700E+05   0.16358792      
  100              7.94328235E+02   3.35069134E+02   3950.03633897    2.32766951E-03   6.14411267E+20   5.25961734E+06   4.68605886E+08   5.05078659E+04   0.16255132      
  101              1.00000000E+03   3.73947955E+02   4020.81100223    2.54570300E-03   6.73632982E+20   4.80044627E+06   4.69087891E+08   0.00000000E+00   0.16176461      
