# ATMO pressure-temperature profile
# Effective temperature = 1800.0K
# log(g) = 3.5cm/s^2
# M/H = 0.0
# Optical depth grid in band 17 (1.20-1.33microns)
# All parameters in cgs units
#
# Model Level      Optical Depth    Pressure         Temperature      Density          Number Density   Rad Flux         Conv Flux        Radial Extension Adiabatic Gradient
#                                   [Ba]             [K]              [g/cm^3]         [/cm^3]          [ergs/s/cm^2/sr] [ergs/s/cm^2/sr] [cm]             [K/Ba]          
  1                3.00000000E-06   1.00000000E-05   608.32730600     4.65652170E-10   1.19066210E+14   5.95206689E+08   0.00000000E+00   2.39070157E+08   0.29800785      
  2                3.65048058E-06   1.55027880E-05   645.99090424     6.79718000E-10   1.73823802E+14   5.95206689E+08   0.00000000E+00   2.35976815E+08   0.29788512      
  3                4.44200282E-06   2.31371391E-05   667.09427402     9.82337484E-10   2.51216571E+14   5.95206689E+08   0.00000000E+00   2.33022347E+08   0.29763422      
  4                5.40514834E-06   3.25208573E-05   683.82900257     1.34694498E-09   3.44461199E+14   5.95206689E+08   0.00000000E+00   2.30442642E+08   0.29750832      
  5                6.57712968E-06   4.38885287E-05   698.12967073     1.78052849E-09   4.55345203E+14   5.95206689E+08   0.00000000E+00   2.28121389E+08   0.29719749      
  6                8.00322805E-06   5.75980094E-05   711.26864989     2.29354410E-09   5.86542718E+14   5.95206689E+08   0.00000000E+00   2.25976064E+08   0.29708106      
  7                9.73854285E-06   7.41000758E-05   723.51624808     2.90070431E-09   7.41816012E+14   5.95206689E+08   0.00000000E+00   2.23952891E+08   0.29671975      
  8                1.18501205E-05   9.39403987E-05   735.39857353     3.61796880E-09   9.25242249E+14   5.95206689E+08   0.00000000E+00   2.22016179E+08   0.29660247      
  9                1.44195449E-05   1.17775056E-04   746.86147643     4.46629832E-09   1.14219197E+15   5.95206689E+08   0.00000000E+00   2.20141173E+08   0.2966884       
  10               1.75460896E-05   1.46385671E-04   758.20147896     5.46831916E-09   1.39842693E+15   5.95206689E+08   0.00000000E+00   2.18310432E+08   0.29660916      
  11               2.13505531E-05   1.80722843E-04   769.23286629     6.65417957E-09   1.70169239E+15   5.95206689E+08   0.00000000E+00   2.16510358E+08   0.29630507      
  12               2.59799264E-05   2.21934196E-04   780.25581965     8.05626648E-09   2.06021738E+15   5.95206690E+08   0.00000000E+00   2.14730428E+08   0.29622528      
  13               3.16130723E-05   2.71394424E-04   791.09608493     9.71668295E-09   2.48483482E+15   5.95206690E+08   0.00000000E+00   2.12962640E+08   0.29589704      
  14               3.84676354E-05   3.30756673E-04   802.02733995     1.16806105E-08   2.98706918E+15   5.95206690E+08   0.00000000E+00   2.11200588E+08   0.29581345      
  15               4.68084520E-05   4.01988355E-04   812.87554508     1.40066835E-08   3.58191482E+15   5.95206691E+08   0.00000000E+00   2.09439534E+08   0.29545743      
  16               5.69577817E-05   4.87438458E-04   823.89523238     1.67568935E-08   4.28522511E+15   5.95206691E+08   0.00000000E+00   2.07675738E+08   0.29536834      
  17               6.93077586E-05   5.89907833E-04   834.90526031     2.00120932E-08   5.11767621E+15   5.95206692E+08   0.00000000E+00   2.05906236E+08   0.2949818       
  18               8.43355422E-05   7.12733242E-04   846.13570230     2.38579097E-08   6.10116590E+15   5.95206693E+08   0.00000000E+00   2.04128670E+08   0.29488476      
  19               1.02621753E-04   8.59886585E-04   857.38375362     2.84060726E-08   7.26426642E+15   5.95206694E+08   0.00000000E+00   2.02341161E+08   0.29446374      
  20               1.24872905E-04   1.03609021E-03   868.88783485     3.37737275E-08   8.63693579E+15   5.95206696E+08   0.00000000E+00   2.00542208E+08   0.29435929      
  21               1.51948705E-04   1.24695030E-03   880.44840865     4.01134733E-08   1.02581978E+16   5.95206697E+08   0.00000000E+00   1.98730618E+08   0.29390296      
  22               1.84895266E-04   1.49911356E-03   892.31713528     4.75839215E-08   1.21686146E+16   5.95206699E+08   0.00000000E+00   1.96905435E+08   0.2937887       
  23               2.24985526E-04   1.80044693E-03   904.31700214     5.63903080E-08   1.44206709E+16   5.95206701E+08   0.00000000E+00   1.95065871E+08   0.2932925       
  24               2.73768430E-04   2.16024882E-03   916.66460587     6.67479690E-08   1.70694352E+16   5.95206704E+08   0.00000000E+00   1.93211305E+08   0.29316707      
  25               3.33128779E-04   2.58956752E-03   929.14206511     7.89386649E-08   2.01869616E+16   5.95206707E+08   0.00000000E+00   1.91340985E+08   0.29262982      
  26               4.05360046E-04   3.10180383E-03   942.00152618     9.32625521E-08   2.38500098E+16   5.95206711E+08   0.00000000E+00   1.89453116E+08   0.29248987      
  27               4.93252992E-04   3.71288262E-03   955.11578835     1.10103136E-07   2.81566534E+16   5.95206714E+08   0.00000000E+00   1.87546147E+08   0.29190534      
  28               6.00203489E-04   4.44165533E-03   968.67510487     1.29870683E-07   3.32118108E+16   5.95206719E+08   0.00000000E+00   1.85618903E+08   0.29174581      
  29               7.30343727E-04   5.31039851E-03   982.51938771     1.53084181E-07   3.91482023E+16   5.95206722E+08   0.00000000E+00   1.83670536E+08   0.2911082       
  30               8.88701864E-04   6.34533804E-03   996.93968655     1.80272767E-07   4.61011457E+16   5.95206727E+08   0.00000000E+00   1.81700452E+08   0.29092061      
  31               1.08139630E-03   7.57722598E-03   1011.85113344    2.12098587E-07   5.42399720E+16   5.95206729E+08   0.00000000E+00   1.79708232E+08   0.29021926      
  32               1.31587206E-03   9.04200180E-03   1027.45371468    2.49256437E-07   6.37423634E+16   5.95206732E+08   0.00000000E+00   1.77693678E+08   0.28999277      
  33               1.60118847E-03   1.07814332E-02   1043.70586856    2.92578445E-07   7.48211207E+16   5.95206735E+08   0.00000000E+00   1.75656809E+08   0.28935886      
  34               1.94836913E-03   1.28437339E-02   1060.88735970    3.42898721E-07   8.76895544E+16   5.95206740E+08   0.00000000E+00   1.73597849E+08   0.28901804      
  35               2.37082789E-03   1.52840859E-02   1079.07605171    4.01172478E-07   1.02591943E+17   5.95206751E+08   0.00000000E+00   1.71517175E+08   0.28785252      
  36               2.88488706E-03   1.81651835E-02   1098.40143320    4.68405814E-07   1.19785580E+17   5.95206755E+08   0.00000000E+00   1.69415424E+08   0.28739185      
  37               3.51040806E-03   2.15574139E-02   1119.00998991    5.45639908E-07   1.39536729E+17   5.95206754E+08   0.00000000E+00   1.67293543E+08   0.2862167       
  38               4.27155881E-03   2.55405803E-02   1141.11693043    6.33933767E-07   1.62116213E+17   5.95206709E+08   0.00000000E+00   1.65151868E+08   0.28579229      
  39               5.19774750E-03   3.02101764E-02   1164.92899564    7.34508647E-07   1.87836352E+17   5.95206690E+08   0.00000000E+00   1.62987860E+08   0.2846617       
  40               6.32475876E-03   3.56733914E-02   1190.54548952    8.48674856E-07   2.17032236E+17   5.95206573E+08   0.00000000E+00   1.60799699E+08   0.28424402      
  41               7.69613634E-03   4.20474201E-02   1218.31545939    9.77512690E-07   2.49980101E+17   5.95206416E+08   0.00000000E+00   1.58586695E+08   0.28319325      
  42               9.36486541E-03   4.94571382E-02   1248.42080807    1.12204609E-06   2.86941803E+17   5.95206086E+08   0.00000000E+00   1.56349339E+08   0.28259738      
  43               1.13954198E-02   5.80319117E-02   1281.24474339    1.28285625E-06   3.28065545E+17   5.95205771E+08   0.00000000E+00   1.54089234E+08   0.28117155      
  44               1.38662528E-02   6.78977194E-02   1316.91230785    1.46030388E-06   3.73442869E+17   5.95205153E+08   0.00000000E+00   1.51809824E+08   0.28013672      
  45               1.68728289E-02   7.91545119E-02   1355.86465922    1.65353509E-06   4.22848870E+17   5.95204500E+08   0.00000000E+00   1.49519021E+08   0.27834276      
  46               2.05313114E-02   9.18231446E-02   1399.05592968    1.85904457E-06   4.75382209E+17   5.95203098E+08   0.00000000E+00   1.47234046E+08   0.27726988      
  47               2.49830512E-02   1.05373758E-01   1453.26161470    2.05483402E-06   5.25187652E+17   5.94239803E+08   9.52970202E+05   1.45041409E+08   0.27505836      
  48               3.04000477E-02   1.19547214E-01   1504.37670476    2.25216182E-06   5.75583980E+17   5.91425785E+08   3.78237904E+06   1.42957920E+08   0.27254198      
  49               3.69915946E-02   1.34088175E-01   1551.93804752    2.44981343E-06   6.25809194E+17   5.87144729E+08   8.15590120E+06   1.41000205E+08   0.2700247       
  50               4.50123658E-02   1.47630524E-01   1592.61185262    2.63036725E-06   6.71416574E+17   5.81961939E+08   1.36934084E+07   1.39313095E+08   0.26779779      
  51               5.47722558E-02   1.60225018E-01   1627.78087602    2.79562445E-06   7.12951892E+17   5.76529748E+08   1.89283297E+07   1.37844310E+08   0.26600497      
  52               6.66483519E-02   1.72073296E-01   1658.89668664    2.94585295E-06   7.51311397E+17   5.71588966E+08   2.32805794E+07   1.36538708E+08   0.26440898      
  53               8.10995048E-02   1.83235251E-01   1686.61121993    3.08801628E-06   7.86900611E+17   5.67098637E+08   2.77495754E+07   1.35368276E+08   0.26297319      
  54               9.86840557E-02   1.92975740E-01   1709.70575572    3.20814676E-06   8.17536556E+17   5.63205687E+08   3.16331399E+07   1.34389656E+08   0.26156555      
  55               1.20081410E-01   2.04151874E-01   1735.01282933    3.34431517E-06   8.52268663E+17   5.58701535E+08   3.61621194E+07   1.33310681E+08   0.26005067      
  56               1.46118284E-01   2.16900662E-01   1762.50709859    3.49756149E-06   8.91365545E+17   5.53384371E+08   4.15069346E+07   1.32131900E+08   0.25836856      
  57               1.77800653E-01   2.31340826E-01   1792.01965315    3.66874632E-06   9.35051116E+17   5.47044396E+08   4.78801844E+07   1.30857132E+08   0.25644807      
  58               2.16352610E-01   2.47537286E-01   1823.29888949    3.85794789E-06   9.83351075E+17   5.39504039E+08   5.54499513E+07   1.29495737E+08   0.2543318       
  59               2.63263667E-01   2.65402375E-01   1855.78383295    4.06357417E-06   1.03586523E+18   5.30891577E+08   6.40654588E+07   1.28068901E+08   0.25193286      
  60               3.20346302E-01   2.85136305E-01   1889.48540160    4.28730979E-06   1.09303688E+18   5.21608314E+08   7.33583010E+07   1.26573807E+08   0.24916291      
  61               3.89805984E-01   3.07406341E-01   1925.04526023    4.53605179E-06   1.15663869E+18   5.11311002E+08   8.36928266E+07   1.24976858E+08   0.24599614      
  62               4.74326391E-01   3.32474503E-01   1962.31585807    4.81179877E-06   1.22719979E+18   4.99460413E+08   9.55867303E+07   1.23280052E+08   0.24245664      
  63               5.77173093E-01   3.60632824E-01   2001.11868678    5.11681935E-06   1.30532377E+18   4.85693884E+08   1.09400218E+08   1.21485502E+08   0.23840172      
  64               7.02319722E-01   3.92209684E-01   2041.24162471    5.45374431E-06   1.39171317E+18   4.69738256E+08   1.25402605E+08   1.19595227E+08   0.23378208      
  65               8.54601502E-01   4.27579538E-01   2082.47589597    5.82559208E-06   1.48717738E+18   4.51455904E+08   1.43722163E+08   1.17610869E+08   0.22870379      
  66               1.03990206E+00   4.67169059E-01   2124.63824713    6.23575210E-06   1.59263009E+18   4.30835990E+08   1.64373273E+08   1.15533706E+08   0.22328641      
  67               1.26538076E+00   5.11458889E-01   2167.55437699    6.68800751E-06   1.70909644E+18   4.07918941E+08   1.87319322E+08   1.13364920E+08   0.21754725      
  68               1.53974930E+00   5.60989776E-01   2211.03653742    7.18665156E-06   1.83774338E+18   3.82808061E+08   2.12450693E+08   1.11105636E+08   0.21154962      
  69               1.87360830E+00   6.16368586E-01   2254.92497718    7.73639733E-06   1.97985889E+18   3.55641232E+08   2.39629516E+08   1.08756987E+08   0.20527793      
  70               2.27985690E+00   6.78275613E-01   2299.01412991    8.34267426E-06   2.13693052E+18   3.26528652E+08   2.68750294E+08   1.06320154E+08   0.19861712      
  71               2.77419111E+00   7.47347091E-01   2343.00320235    9.01142249E-06   2.31033685E+18   2.95865983E+08   2.99412084E+08   1.03800911E+08   0.19195479      
  72               3.37571026E+00   8.24427192E-01   2386.87062351    9.74705638E-06   2.50178087E+18   2.64597279E+08   3.30666588E+08   1.01200046E+08   0.1856258       
  73               4.10765492E+00   9.10587766E-01   2430.62998322    1.05585437E-05   2.71349359E+18   2.33436805E+08   3.61797009E+08   9.85142109E+07   0.17939059      
  74               4.99830483E+00   1.00686997E+00   2474.13030635    1.14537991E-05   2.94765504E+18   2.02878863E+08   3.92317913E+08   9.57454908E+07   0.17346482      
  75               6.08207157E+00   1.11439705E+00   2517.40433123    1.24402662E-05   3.20636397E+18   1.73608136E+08   4.21536037E+08   9.28968453E+07   0.16798704      
  76               7.40082804E+00   1.23444358E+00   2560.39150166    1.35269536E-05   3.49213245E+18   1.46564595E+08   4.48491489E+08   8.99703684E+07   0.16273852      
  77               9.00552635E+00   1.36841309E+00   2603.04681203    1.47236070E-05   3.80768561E+18   1.22566991E+08   4.72388075E+08   8.69683778E+07   0.15784179      
  78               1.09581663E+01   1.51782767E+00   2645.38165772    1.60402285E-05   4.15585099E+18   1.02063159E+08   4.92791907E+08   8.38937605E+07   0.15342628      
  79               1.33341911E+01   1.68432508E+00   2687.42790485    1.74871257E-05   4.53957225E+18   8.49983811E+07   5.09759581E+08   8.07499709E+07   0.14928117      
  80               1.62254019E+01   1.86968114E+00   2729.09369001    1.90762424E-05   4.96220773E+18   7.10858813E+07   5.23600986E+08   7.75406620E+07   0.14545586      
  81               1.97435049E+01   2.07582197E+00   2770.45698834    2.08189791E-05   5.42705886E+18   5.98626197E+07   5.34784690E+08   7.42695294E+07   0.14208972      
  82               2.40244270E+01   2.30481587E+00   2811.52122731    2.27278643E-05   5.93773361E+18   5.07273071E+07   5.43910417E+08   7.09404436E+07   0.13914263      
  83               2.92335681E+01   2.55888419E+00   2852.36080152    2.48153067E-05   6.49788487E+18   4.31667655E+07   5.51470574E+08   6.75572931E+07   0.13648576      
  84               3.55721908E+01   2.84042425E+00   2892.92138986    2.70958009E-05   7.11168348E+18   3.68371439E+07   5.57820618E+08   6.41237768E+07   0.13410313      
  85               4.32851972E+01   3.15202815E+00   2933.28905985    2.95831694E-05   7.78325151E+18   3.15152227E+07   5.63182423E+08   6.06432973E+07   0.13200565      
  86               5.26705906E+01   3.49650001E+00   2973.43335665    3.22935355E-05   8.51728471E+18   2.70139914E+07   5.67741512E+08   5.71189157E+07   0.13011963      
  87               6.40909893E+01   3.87690664E+00   3013.41767799    3.52431133E-05   9.31862533E+18   2.32068584E+07   5.71616294E+08   5.35530723E+07   0.12843018      
  88               7.79876373E+01   4.29651197E+00   3053.21339758    3.84500379E-05   1.01925935E+19   1.99665972E+07   5.74948757E+08   4.99484119E+07   0.12694414      
  89               9.48974517E+01   4.75872095E+00   3092.88731418    4.19309682E-05   1.11442791E+19   1.71986658E+07   5.77821138E+08   4.63081618E+07   0.12568278      
  90               1.15473768E+02   5.26726086E+00   3132.43269317    4.57053405E-05   1.21794848E+19   1.48258659E+07   5.80304826E+08   4.26346403E+07   0.12462041      
  91               1.40511583E+02   5.82622700E+00   3171.92550904    4.97927814E-05   1.33042458E+19   1.27874926E+07   5.82448496E+08   3.89293084E+07   0.12371343      
  92               1.70978268E+02   6.44013386E+00   3211.35148479    5.42167590E-05   1.45255602E+19   1.10298219E+07   5.84297608E+08   3.51928461E+07   0.12292833      
  93               2.08050949E+02   7.11397174E+00   3250.78448802    5.90010870E-05   1.58507493E+19   9.51695150E+06   5.85898499E+08   3.14252305E+07   0.12225013      
  94               2.53161982E+02   7.85328378E+00   3290.21582686    6.41742494E-05   1.72883180E+19   8.21695538E+06   5.87280755E+08   2.76257420E+07   0.12166551      
  95               3.08054300E+02   8.66421767E+00   3329.72550748    6.97652234E-05   1.88471966E+19   7.09931079E+06   5.88472033E+08   2.37931446E+07   0.12117519      
  96               3.74848746E+02   9.55356729E+00   3369.31352692    7.58080741E-05   2.05376137E+19   6.13389729E+06   5.89490254E+08   1.99258897E+07   0.12077516      
  97               4.56126023E+02   1.05288445E+01   3409.06474537    8.23372915E-05   2.23702740E+19   5.29897389E+06   5.90365207E+08   1.60221624E+07   0.12046937      
  98               5.55026396E+02   1.15983506E+01   3448.98603605    8.93931943E-05   2.43573837E+19   4.57465343E+06   5.91121339E+08   1.20799497E+07   0.12025203      
  99               6.75371026E+02   1.27712624E+01   3489.16360181    9.70167031E-05   2.65117462E+19   3.94653353E+06   5.91770971E+08   8.09707075E+06   0.1201251       
  100              8.21809604E+02   1.40577196E+01   3529.60819816    1.05255409E-04   2.88479009E+19   3.40192172E+06   5.92325560E+08   4.07122542E+06   0.12007653      
  101              1.00000000E+03   1.54689348E+01   3570.40178055    1.14157942E-04   3.13811719E+19   3.15012478E+06   5.92612317E+08   0.00000000E+00   0.1200989       
