# ATMO pressure-temperature profile
# Effective temperature = 600.0K
# log(g) = 5.5cm/s^2
# M/H = 0.0
# Optical depth grid in band 17 (1.20-1.33microns)
# All parameters in cgs units
#
# Model Level      Optical Depth    Pressure         Temperature      Density          Number Density   Rad Flux         Conv Flux        Radial Extension Adiabatic Gradient
#                                   [Ba]             [K]              [g/cm^3]         [/cm^3]          [ergs/s/cm^2/sr] [ergs/s/cm^2/sr] [cm]             [K/Ba]          
  1                8.00000000E-07   1.00000000E-05   118.51808441     2.37987534E-09   6.11140712E+14   7.34805304E+06   0.00000000E+00   1.26603484E+06   0.34249236      
  2                9.86413681E-07   4.75262758E-05   123.41416348     1.08619453E-08   2.78929610E+15   7.34805304E+06   0.00000000E+00   1.24269464E+06   0.34121737      
  3                1.21626494E-06   9.34283131E-05   129.85547731     2.02935052E-08   5.21127599E+15   7.34805304E+06   0.00000000E+00   1.23291778E+06   0.32343985      
  4                1.49967547E-06   1.49559602E-04   136.27683059     3.09550220E-08   7.94910284E+15   7.34805304E+06   0.00000000E+00   1.22583570E+06   0.3244952       
  5                1.84912550E-06   2.18261344E-04   142.41041558     4.32288719E-08   1.11009695E+16   7.34805304E+06   0.00000000E+00   1.21989667E+06   0.32559027      
  6                2.28000336E-06   3.02441058E-04   147.49213588     5.78377560E-08   1.48524372E+16   7.34805304E+06   0.00000000E+00   1.21457295E+06   0.32553143      
  7                2.81128314E-06   4.05685376E-04   151.88857323     7.53361645E-08   1.93459513E+16   7.34805304E+06   0.00000000E+00   1.20962690E+06   0.32571363      
  8                3.46636019E-06   5.32399258E-04   155.64456475     9.64817160E-08   2.47758933E+16   7.34805304E+06   0.00000000E+00   1.20492687E+06   0.32590252      
  9                4.27408139E-06   6.87962198E-04   159.22122646     1.21872135E-07   3.12960445E+16   7.34805304E+06   0.00000000E+00   1.20039026E+06   0.32589099      
  10               5.27001545E-06   8.78964620E-04   162.65070490     1.52426992E-07   3.91418442E+16   7.34805304E+06   0.00000000E+00   1.19595871E+06   0.32562247      
  11               6.49801917E-06   1.11350478E-03   165.76158465     1.89475164E-07   4.86557348E+16   7.34805307E+06   0.00000000E+00   1.19159445E+06   0.32507428      
  12               8.01216876E-06   1.40146528E-03   168.63213706     2.34425134E-07   6.01960285E+16   7.34805311E+06   0.00000000E+00   1.18727372E+06   0.32430601      
  13               9.87914110E-06   1.75488717E-03   171.53519948     2.88574611E-07   7.41006105E+16   7.34805292E+06   0.00000000E+00   1.18297675E+06   0.32333635      
  14               1.21811499E-05   2.18892809E-03   174.24285935     3.54348937E-07   9.09918184E+16   7.34805333E+06   0.00000000E+00   1.17868449E+06   0.32232758      
  15               1.50195662E-05   2.72108680E-03   176.99691070     4.33700205E-07   1.11353161E+17   7.34805341E+06   0.00000000E+00   1.17439171E+06   0.32122434      
  16               1.85193820E-05   3.37238070E-03   180.75420699     5.26333606E-07   1.35136921E+17   7.34805252E+06   0.00000000E+00   1.17008097E+06   0.32011263      
  17               2.28347147E-05   4.17112362E-03   183.63880888     6.40732032E-07   1.64518384E+17   7.34805364E+06   0.00000000E+00   1.16573148E+06   0.31897786      
  18               2.81555937E-05   5.14593578E-03   186.73113876     7.77730462E-07   1.99605937E+17   7.34805404E+06   0.00000000E+00   1.16136435E+06   0.31781358      
  19               3.47163285E-05   6.33030741E-03   190.61426809     9.37240158E-07   2.40544391E+17   7.34805094E+06   0.00000000E+00   1.15697755E+06   0.31665583      
  20               4.28058268E-05   7.77970125E-03   194.15107791     1.13068695E-06   2.90234445E+17   7.34805440E+06   0.00000000E+00   1.15252519E+06   0.31550937      
  21               5.27803164E-05   9.53047715E-03   197.54830743     1.36282549E-06   3.49435618E+17   7.34805859E+06   0.00000000E+00   1.14806455E+06   0.31437368      
  22               6.50790328E-05   1.16282334E-02   203.15455929     1.61601450E-06   4.14584446E+17   7.34805641E+06   0.00000000E+00   1.14359450E+06   0.31320511      
  23               8.02435604E-05   1.40820869E-02   206.06151246     1.93763544E-06   4.94989490E+17   7.34804912E+06   0.00000000E+00   1.13920652E+06   0.31210308      
  24               9.89416822E-05   1.68541918E-02   214.05574614     2.23245634E-06   5.70304609E+17   7.34804094E+06   0.00000000E+00   1.13499167E+06   0.31099091      
  25               1.21996786E-04   2.02223158E-02   222.01739960     2.58253257E-06   6.59735290E+17   7.34804771E+06   0.00000000E+00   1.13055585E+06   0.30997852      
  26               1.50424124E-04   2.43155074E-02   229.95850948     2.99802869E-06   7.65878171E+17   7.34805166E+06   0.00000000E+00   1.12590404E+06   0.30898873      
  27               1.85475517E-04   2.92892205E-02   237.16457915     3.50154666E-06   8.94507169E+17   7.34805408E+06   0.00000000E+00   1.12104967E+06   0.30804295      
  28               2.28694484E-04   3.53326881E-02   244.64401945     4.09490667E-06   1.04608727E+18   7.34805539E+06   0.00000000E+00   1.11600266E+06   0.30709801      
  29               2.81984210E-04   4.26745706E-02   251.68918678     4.80735878E-06   1.22809070E+18   7.34805652E+06   0.00000000E+00   1.11076989E+06   0.30626285      
  30               3.47691354E-04   5.15908188E-02   259.22746957     5.64278278E-06   1.44150861E+18   7.34805685E+06   0.00000000E+00   1.10535634E+06   0.3054285       
  31               4.28709385E-04   6.24139900E-02   266.48782950     6.64058744E-06   1.69640837E+18   7.34805728E+06   0.00000000E+00   1.09976514E+06   0.30468885      
  32               5.28606003E-04   7.55461754E-02   274.39748828     7.80610310E-06   1.99415169E+18   7.34805702E+06   0.00000000E+00   1.09399726E+06   0.30397526      
  33               6.51780242E-04   9.14736928E-02   282.10952711     9.19348965E-06   2.34857427E+18   7.34805711E+06   0.00000000E+00   1.08805172E+06   0.30337447      
  34               8.03656185E-04   1.10785420E-01   290.49911786     1.08128387E-05   2.76225412E+18   7.34805650E+06   0.00000000E+00   1.08192665E+06   0.30275371      
  35               9.90921819E-04   1.34191735E-01   298.71582515     1.27370680E-05   3.25381889E+18   7.34805641E+06   0.00000000E+00   1.07561957E+06   0.30224602      
  36               1.22182355E-03   1.62558241E-01   307.70357246     1.49788470E-05   3.82650506E+18   7.34805561E+06   0.00000000E+00   1.06912528E+06   0.30179874      
  37               1.50652933E-03   1.96939587E-01   316.67341854     1.76328838E-05   4.50450686E+18   7.34805542E+06   0.00000000E+00   1.06243534E+06   0.30146168      
  38               1.85757643E-03   2.38611782E-01   326.62735965     2.07129166E-05   5.29133384E+18   7.34805453E+06   0.00000000E+00   1.05553987E+06   0.30108464      
  39               2.29042351E-03   2.89102283E-01   336.76052766     2.43406557E-05   6.21807820E+18   7.34805425E+06   0.00000000E+00   1.04842900E+06   0.3007422       
  40               2.82413135E-03   3.50252967E-01   348.01404910     2.85355985E-05   7.28972065E+18   7.34805336E+06   0.00000000E+00   1.04109161E+06   0.30044706      
  41               3.48220225E-03   4.24300559E-01   359.61112732     3.34535661E-05   8.54606757E+18   7.34805307E+06   0.00000000E+00   1.03351288E+06   0.30028374      
  42               4.29361493E-03   5.13943910E-01   372.58699751     3.91101957E-05   9.99111296E+18   7.34805226E+06   0.00000000E+00   1.02567584E+06   0.30011553      
  43               5.29410063E-03   6.22411893E-01   386.24802720     4.56891944E-05   1.16717895E+19   7.34805191E+06   0.00000000E+00   1.01756157E+06   0.29994499      
  44               6.52771662E-03   7.53565118E-01   401.66886932     5.31931440E-05   1.35887170E+19   7.34805113E+06   0.00000000E+00   1.00914868E+06   0.29977683      
  45               8.04878622E-03   9.11985680E-01   418.18967093     6.18326363E-05   1.57957611E+19   7.34805067E+06   0.00000000E+00   1.00041344E+06   0.2996752       
  46               9.92429106E-03   1.10315587E+00   436.85866946     7.15976825E-05   1.82903393E+19   7.34804984E+06   0.00000000E+00   9.91327668E+05   0.29955844      
  47               1.22368206E-02   1.33356781E+00   457.04182656     8.27298433E-05   2.11341602E+19   7.34804925E+06   0.00000000E+00   9.81860406E+05   0.29940542      
  48               1.50882091E-02   1.61069971E+00   479.87170302     9.51682718E-05   2.43116972E+19   7.34804817E+06   0.00000000E+00   9.71983759E+05   0.29921725      
  49               1.86040198E-02   1.94328844E+00   504.77920261     1.09162268E-04   2.78844224E+19   7.34804715E+06   0.00000000E+00   9.61664752E+05   0.29904844      
  50               2.29390746E-02   2.34208838E+00   531.68188817     1.24907366E-04   3.19063593E+19   7.34804620E+06   0.00000000E+00   9.50864725E+05   0.29883126      
  51               2.82842712E-02   2.81999996E+00   559.46144629     1.42927362E-04   3.65094069E+19   7.34804558E+06   0.00000000E+00   9.39553857E+05   0.29853132      
  52               3.48749902E-02   3.39216337E+00   589.05540287     1.63288901E-04   4.17106019E+19   7.34804479E+06   0.00000000E+00   9.27710242E+05   0.29815308      
  53               4.30014593E-02   4.07681711E+00   618.83476974     1.86802172E-04   4.77169154E+19   7.34804447E+06   0.00000000E+00   9.15313659E+05   0.29776611      
  54               5.30215347E-02   4.89765846E+00   649.72730891     2.13742920E-04   5.45988147E+19   7.34804395E+06   0.00000000E+00   9.02323250E+05   0.29728597      
  55               6.53764590E-02   5.88328773E+00   680.38449179     2.45187695E-04   6.26313139E+19   7.34804404E+06   0.00000000E+00   8.88708211E+05   0.2963482       
  56               8.06102920E-02   7.06628795E+00   712.24962017     2.81313305E-04   7.18596246E+19   7.34804376E+06   0.00000000E+00   8.74463917E+05   0.29558494      
  57               9.93938685E-02   8.48506865E+00   744.59555623     3.23120115E-04   8.25392959E+19   7.34804412E+06   0.00000000E+00   8.59582690E+05   0.29474964      
  58               1.22554340E-01   1.01884740E+01   779.50366140     3.70610388E-04   9.46709692E+19   7.34804372E+06   0.00000000E+00   8.44016657E+05   0.29372406      
  59               1.51111597E-01   1.22325533E+01   816.49419806     4.24803553E-04   1.08515019E+20   7.34804405E+06   0.00000000E+00   8.27725736E+05   0.29269369      
  60               1.86323183E-01   1.46763433E+01   857.41423390     4.85345302E-04   1.23980394E+20   7.34804313E+06   0.00000000E+00   8.10706276E+05   0.29151123      
  61               2.29739671E-01   1.75851433E+01   901.05026523     5.53375557E-04   1.41358762E+20   7.34804300E+06   0.00000000E+00   7.92957035E+05   0.29036921      
  62               2.83272943E-01   2.10272819E+01   948.11249490     6.28844485E-04   1.60638303E+20   7.34804204E+06   0.00000000E+00   7.74504864E+05   0.2890613       
  63               3.49280383E-01   2.50542428E+01   996.25018084     7.13067817E-04   1.82153998E+20   7.34804192E+06   0.00000000E+00   7.55487906E+05   0.28784109      
  64               4.30668686E-01   2.97023143E+01   1045.58039077    8.05473759E-04   2.05758933E+20   7.34804121E+06   0.00000000E+00   7.36093231E+05   0.28647527      
  65               5.31021855E-01   3.50182844E+01   1093.73332849    9.07848378E-04   2.31904544E+20   7.34804169E+06   0.00000000E+00   7.16434660E+05   0.28524279      
  66               6.54759028E-01   4.10835667E+01   1141.12398331    1.02085375E-03   2.60772113E+20   7.34804073E+06   0.00000000E+00   6.96511287E+05   0.28384638      
  67               8.07329079E-01   4.79823005E+01   1186.09574408    1.14706554E-03   2.93013182E+20   7.34804232E+06   0.00000000E+00   6.76351139E+05   0.28258343      
  68               9.95450561E-01   5.57819270E+01   1230.17111829    1.28574167E-03   3.28438323E+20   7.34803881E+06   0.00000000E+00   6.56041460E+05   0.28110854      
  69               1.22740757E+00   6.45422378E+01   1272.17302513    1.43854196E-03   3.67471512E+20   7.34804142E+06   0.00000000E+00   6.35671901E+05   0.27976608      
  70               1.51341452E+00   7.44050512E+01   1314.16252335    1.60537659E-03   4.10090002E+20   7.34803324E+06   0.00000000E+00   6.15148405E+05   0.27820662      
  71               1.86606598E+00   8.55079452E+01   1355.25307706    1.78899243E-03   4.56995483E+20   7.34806094E+06   0.00000000E+00   5.94430599E+05   0.27678959      
  72               2.30089127E+00   9.79560363E+01   1397.61720761    1.98730240E-03   5.07655159E+20   7.34804216E+06   0.00000000E+00   5.73553657E+05   0.27508143      
  73               2.83703828E+00   1.11874569E+02   1440.32132581    2.20237505E-03   5.62597532E+20   7.34806155E+06   0.00000000E+00   5.52515086E+05   0.27350191      
  74               3.49811672E+00   1.27362143E+02   1485.42776628    2.43111714E-03   6.21032973E+20   7.34800395E+06   0.00000000E+00   5.31349253E+05   0.27168065      
  75               4.31323774E+00   1.44588681E+02   1531.92043355    2.67616265E-03   6.83634430E+20   7.34801727E+06   0.00000000E+00   5.09992289E+05   0.2698803       
  76               5.31829590E+00   1.63696451E+02   1581.69125496    2.93446573E-03   7.49623840E+20   7.34805129E+06   0.00000000E+00   4.88430228E+05   0.26818174      
  77               6.55754979E+00   1.84720559E+02   1633.46883561    3.20636401E-03   8.19087353E+20   7.14147416E+06   2.06567690E+05   4.66755779E+05   0.26647911      
  78               8.08557104E+00   2.07644338E+02   1685.17071656    3.49364421E-03   8.92487269E+20   6.73050841E+06   6.17533683E+05   4.45096566E+05   0.26483909      
  79               9.96964736E+00   2.32430340E+02   1735.94463536    3.79814000E-03   9.69801355E+20   6.27764125E+06   1.07040110E+06   4.23576897E+05   0.2631974       
  80               1.22927457E+01   2.59177081E+02   1786.42029894    4.11555670E-03   1.05084531E+21   5.83842673E+06   1.50961588E+06   4.02183797E+05   0.26163037      
  81               1.51571657E+01   2.88186281E+02   1836.39904918    4.45162447E-03   1.13666394E+21   5.41929050E+06   1.92875245E+06   3.80751749E+05   0.26007781      
  82               1.86890445E+01   3.19718828E+02   1886.66754626    4.80725482E-03   1.22743548E+21   4.99583312E+06   2.35221023E+06   3.59196459E+05   0.25859833      
  83               2.30439114E+01   3.53887914E+02   1936.56506134    5.18440516E-03   1.32360829E+21   4.52467963E+06   2.82336409E+06   3.37552373E+05   0.25712923      
  84               2.84135369E+01   3.90344363E+02   1986.01846969    5.57776082E-03   1.42360816E+21   3.99670773E+06   3.35133669E+06   3.16113338E+05   0.25570286      
  85               3.50343769E+01   4.28336265E+02   2033.45593998    5.98104911E-03   1.52572379E+21   3.57250699E+06   3.77553777E+06   2.95312270E+05   0.25428373      
  86               4.31979859E+01   4.70614949E+02   2082.74293213    6.42112341E-03   1.63665028E+21   3.20128181E+06   4.14676325E+06   2.73737611E+05   0.25289009      
  87               5.32638553E+01   5.14385456E+02   2129.80831131    6.86364361E-03   1.74933910E+21   2.74537215E+06   4.60267402E+06   2.52887674E+05   0.25150549      
  88               6.56752445E+01   5.58030216E+02   2173.92762087    7.29465948E-03   1.85925293E+21   2.43083442E+06   4.91721259E+06   2.33382361E+05   0.25015579      
  89               8.09786996E+01   6.07559511E+02   2220.37758327    7.77559242E-03   1.98192780E+21   2.14409213E+06   5.20395605E+06   2.12585699E+05   0.24881459      
  90               9.98481215E+01   6.55479342E+02   2262.75513112    8.23370276E-03   2.09820197E+21   1.76133335E+06   5.58671714E+06   1.93646256E+05   0.24752556      
  91               1.23114441E+02   6.99481813E+02   2299.17666823    8.64694134E-03   2.20358559E+21   1.53231115E+06   5.81574100E+06   1.77155193E+05   0.24629226      
  92               1.51802212E+02   7.50856701E+02   2339.74396160    9.12165806E-03   2.32441980E+21   1.44403494E+06   5.90401799E+06   1.58861625E+05   0.24513437      
  93               1.87174723E+02   8.10747286E+02   2383.89814283    9.66596524E-03   2.46333597E+21   1.24521537E+06   6.10283645E+06   1.38691913E+05   0.24415299      
  94               2.30789634E+02   8.60919677E+02   2419.20346182    1.01231319E-02   2.57760330E+21   9.66798788E+05   6.38124713E+06   1.22650544E+05   0.24326061      
  95               2.84567566E+02   9.00092838E+02   2445.30015024    1.04704544E-02   2.66612785E+21   8.25619444E+05   6.52242132E+06   1.10618245E+05   0.24225895      
  96               3.50876675E+02   9.46538677E+02   2475.41257318    1.08763605E-02   2.76959720E+21   7.90398774E+05   6.55764231E+06   9.68549448E+04   0.2411243       
  97               4.32636941E+02   1.00125408E+03   2508.91453867    1.13509073E-02   2.89057518E+21   7.51658174E+05   6.59638335E+06   8.12826393E+04   0.23985259      
  98               5.33448747E+02   1.06530451E+03   2546.59880303    1.18976236E-02   3.02997521E+21   7.13664175E+05   6.63437690E+06   6.38534504E+04   0.23840101      
  99               6.57751428E+02   1.13995082E+03   2587.72322663    1.25281168E-02   3.19075995E+21   6.74399927E+05   6.67364110E+06   4.45188151E+04   0.23680064      
  100              8.11018759E+02   1.22662839E+03   2633.06774976    1.32474681E-02   3.37424660E+21   6.36038033E+05   6.71200327E+06   2.32424135E+04   0.23504387      
  101              1.00000000E+03   1.32697094E+03   2681.79095977    1.40694382E-02   3.58395318E+21   6.14025303E+05   6.73401567E+06   0.00000000E+00   0.2331847       
