# ATMO pressure-temperature profile
# Effective temperature = 900.0K
# log(g) = 3.0cm/s^2
# M/H = 0.0
# Optical depth grid in band 17 (1.20-1.33microns)
# All parameters in cgs units
#
# Model Level      Optical Depth    Pressure         Temperature      Density          Number Density   Rad Flux         Conv Flux        Radial Extension Adiabatic Gradient
#                                   [Ba]             [K]              [g/cm^3]         [/cm^3]          [ergs/s/cm^2/sr] [ergs/s/cm^2/sr] [cm]             [K/Ba]          
  1                1.00000000E-04   1.00000000E-05   289.30641147     9.79987581E-10   2.50361636E+14   3.72000064E+07   0.00000000E+00   4.64802717E+08   0.30424143      
  2                1.17489755E-04   2.62368648E-05   341.67726233     2.17698049E-09   5.56188106E+14   3.72000064E+07   0.00000000E+00   4.53685359E+08   0.30138883      
  3                1.38038426E-04   4.79062164E-05   359.93973950     3.77332183E-09   9.64024149E+14   3.72000064E+07   0.00000000E+00   4.46124712E+08   0.29970891      
  4                1.62181010E-04   7.21857583E-05   376.57525776     5.43446871E-09   1.38843509E+15   3.72000064E+07   0.00000000E+00   4.40762951E+08   0.29944531      
  5                1.90546072E-04   1.01528769E-04   386.19288422     7.45318292E-09   1.90419180E+15   3.72000064E+07   0.00000000E+00   4.36152373E+08   0.29870331      
  6                2.23872114E-04   1.35756983E-04   397.68171291     9.67794161E-09   2.47259164E+15   3.72000064E+07   0.00000000E+00   4.32122217E+08   0.29862976      
  7                2.63026799E-04   1.75585051E-04   404.32064894     1.23118136E-08   3.14548383E+15   3.72000064E+07   0.00000000E+00   4.28473520E+08   0.30030999      
  8                3.09029543E-04   2.21895295E-04   414.06393145     1.51930707E-08   3.88156204E+15   3.72000064E+07   0.00000000E+00   4.25087462E+08   0.30030901      
  9                3.63078055E-04   2.75721502E-04   419.83446975     1.86192382E-08   4.75683824E+15   3.72000064E+07   0.00000000E+00   4.21887158E+08   0.30008661      
  10               4.26579519E-04   3.38288601E-04   428.99254289     2.23569548E-08   5.71167465E+15   3.72000063E+07   0.00000000E+00   4.18820539E+08   0.30009975      
  11               5.01187234E-04   4.11018392E-04   434.42944554     2.68239634E-08   6.85279660E+15   3.72000063E+07   0.00000000E+00   4.15850612E+08   0.29992502      
  12               5.88843655E-04   4.95559475E-04   443.22554741     3.16995830E-08   8.09835553E+15   3.72000063E+07   0.00000000E+00   4.12951402E+08   0.29994149      
  13               6.91830971E-04   5.93817521E-04   448.34914340     3.75509015E-08   9.59317800E+15   3.72000064E+07   0.00000000E+00   4.10103460E+08   0.29979869      
  14               8.12830516E-04   7.08033794E-04   456.81423068     4.39439629E-08   1.12263920E+16   3.72000062E+07   0.00000000E+00   4.07291765E+08   0.29981332      
  15               9.54992586E-04   8.40807077E-04   461.73142336     5.16287695E-08   1.31896347E+16   3.72000063E+07   0.00000000E+00   4.04504262E+08   0.29969214      
  16               1.12201845E-03   9.95167126E-04   470.05369843     6.00251640E-08   1.53346683E+16   3.72000063E+07   0.00000000E+00   4.01731438E+08   0.29970504      
  17               1.31825674E-03   1.17459293E-03   474.99954523     7.01098422E-08   1.79110080E+16   3.72000063E+07   0.00000000E+00   3.98965588E+08   0.29959843      
  18               1.54881662E-03   1.38311398E-03   483.49888591     8.11049306E-08   2.07199323E+16   3.72000062E+07   0.00000000E+00   3.96200322E+08   0.29960897      
  19               1.81970086E-03   1.62536672E-03   488.76371074     9.42838190E-08   2.40867525E+16   3.72000063E+07   0.00000000E+00   3.93430024E+08   0.29951112      
  20               2.13796209E-03   1.90671149E-03   497.67759163     1.08622954E-07   2.77499840E+16   3.72000062E+07   0.00000000E+00   3.90649930E+08   0.29951947      
  21               2.51188643E-03   2.23331778E-03   503.36579024     1.25791565E-07   3.21360627E+16   3.72000064E+07   0.00000000E+00   3.87855856E+08   0.29942819      
  22               2.95120923E-03   2.61230404E-03   512.78105781     1.44436314E-07   3.68992542E+16   3.72000062E+07   0.00000000E+00   3.85044217E+08   0.29943423      
  23               3.46736850E-03   3.05193294E-03   519.00822405     1.66719104E-07   4.25918580E+16   3.72000064E+07   0.00000000E+00   3.82211160E+08   0.29934509      
  24               4.07380278E-03   3.56177246E-03   529.07499347     1.90868169E-07   4.87612439E+16   3.72000062E+07   0.00000000E+00   3.79353082E+08   0.29934888      
  25               4.78630092E-03   4.15280931E-03   535.95590223     2.19683514E-07   5.61227277E+16   3.72000064E+07   0.00000000E+00   3.76466732E+08   0.29925664      
  26               5.62341325E-03   4.83769077E-03   546.76065852     2.50856481E-07   6.40865195E+16   3.72000061E+07   0.00000000E+00   3.73549278E+08   0.29925661      
  27               6.60693448E-03   5.63078987E-03   554.52671748     2.87893117E-07   7.35483077E+16   3.72000065E+07   0.00000000E+00   3.70598074E+08   0.29915869      
  28               7.76247117E-03   6.54852266E-03   566.37256609     3.27812492E-07   8.37465578E+16   3.72000061E+07   0.00000000E+00   3.67610712E+08   0.29915632      
  29               9.12010839E-03   7.60941844E-03   575.32446862     3.74992812E-07   9.57997688E+16   3.72000066E+07   0.00000000E+00   3.64584854E+08   0.29904493      
  30               1.07151931E-02   8.83452992E-03   588.43158968     4.25668704E-07   1.08746004E+17   3.72000061E+07   0.00000000E+00   3.61518458E+08   0.29903569      
  31               1.25892541E-02   1.02473421E-02   598.80710798     4.85186247E-07   1.23951026E+17   3.72000067E+07   0.00000000E+00   3.58409647E+08   0.29890514      
  32               1.47910839E-02   1.18741652E-02   613.50480413     5.48743347E-07   1.40188038E+17   3.72000061E+07   0.00000000E+00   3.55256810E+08   0.29891932      
  33               1.73780083E-02   1.37438455E-02   625.75860077     6.22709568E-07   1.59084284E+17   3.72000067E+07   0.00000000E+00   3.52058357E+08   0.29875819      
  34               2.04173794E-02   1.58899290E-02   642.48115680     7.01206261E-07   1.79137868E+17   3.72000061E+07   0.00000000E+00   3.48810619E+08   0.29869723      
  35               2.39883292E-02   1.83498208E-02   656.96088679     7.91911459E-07   2.02310374E+17   3.72000068E+07   0.00000000E+00   3.45509548E+08   0.29846972      
  36               2.81838293E-02   2.11649265E-02   676.01830490     8.87652792E-07   2.26769242E+17   3.72000062E+07   0.00000000E+00   3.42151901E+08   0.29840211      
  37               3.31131121E-02   2.43796229E-02   693.07555786     9.97314505E-07   2.54784052E+17   3.72000069E+07   0.00000000E+00   3.38735234E+08   0.29815094      
  38               3.89045145E-02   2.80426876E-02   714.79581974     1.11230533E-06   2.84160344E+17   3.72000064E+07   0.00000000E+00   3.35257335E+08   0.29804948      
  39               4.57088190E-02   3.22069729E-02   734.57201328     1.24308803E-06   3.17571390E+17   3.72000070E+07   0.00000000E+00   3.31715908E+08   0.29767675      
  40               5.37031796E-02   3.69337058E-02   759.04067538     1.37956708E-06   3.52438769E+17   3.72000064E+07   0.00000000E+00   3.28106463E+08   0.29750719      
  41               6.30957344E-02   4.23012142E-02   781.88355994     1.53388035E-06   3.91865105E+17   3.72000071E+07   0.00000000E+00   3.24416613E+08   0.29701653      
  42               7.41310241E-02   4.84327999E-02   809.75826081     1.69572198E-06   4.33221527E+17   3.72000066E+07   0.00000000E+00   3.20614662E+08   0.29674144      
  43               8.70963590E-02   5.55144673E-02   836.40530199     1.88167116E-06   4.80745513E+17   3.72000070E+07   0.00000000E+00   3.16650074E+08   0.29601677      
  44               1.02329299E-01   6.38504251E-02   868.53236448     2.08402239E-06   5.32480400E+17   3.72000065E+07   0.00000000E+00   3.12440370E+08   0.29557308      
  45               1.20226443E-01   7.39120219E-02   899.82531622     2.32830198E-06   5.94953077E+17   3.72000069E+07   0.00000000E+00   3.07872430E+08   0.29467376      
  46               1.41253754E-01   8.64148577E-02   937.05765725     2.61367262E-06   6.67956138E+17   3.72000061E+07   0.00000000E+00   3.02803785E+08   0.29405672      
  47               1.65958691E-01   1.02411406E-01   973.97612388     2.97969774E-06   7.61598110E+17   3.72000072E+07   0.00000000E+00   2.97071309E+08   0.29291767      
  48               1.94984460E-01   1.23397813E-01   1016.29826086    3.44033514E-06   8.79451955E+17   3.72000062E+07   0.00000000E+00   2.90516255E+08   0.29201465      
  49               2.29086765E-01   1.51206130E-01   1056.87072090    4.05335361E-06   1.03627106E+18   3.72000079E+07   0.00000000E+00   2.83069197E+08   0.2905027       
  50               2.69153480E-01   1.87705838E-01   1100.78813901    4.83063616E-06   1.23509362E+18   3.72000065E+07   0.00000000E+00   2.74820371E+08   0.28939044      
  51               3.16227766E-01   2.34276396E-01   1140.98761867    5.81638575E-06   1.48721392E+18   3.72000088E+07   0.00000000E+00   2.66034409E+08   0.28777042      
  52               3.71535229E-01   2.91795496E-01   1183.21720521    6.98558318E-06   1.78624056E+18   3.72000066E+07   0.00000000E+00   2.57010639E+08   0.28652253      
  53               4.36515832E-01   3.60801437E-01   1221.45255629    8.36699021E-06   2.13952564E+18   3.72000088E+07   0.00000000E+00   2.47984490E+08   0.2847639       
  54               5.12861384E-01   4.41638235E-01   1262.46409267    9.90871734E-06   2.53380664E+18   3.72000047E+07   0.00000000E+00   2.39106451E+08   0.28345846      
  55               6.02559586E-01   5.34726956E-01   1300.23678631    1.16486190E-05   2.97875969E+18   3.72000089E+07   0.00000000E+00   2.30441782E+08   0.28160557      
  56               7.07945784E-01   6.40514644E-01   1341.24584523    1.35264182E-05   3.45896776E+18   3.72000020E+07   0.00000000E+00   2.22014116E+08   0.28027907      
  57               8.31763771E-01   7.59351196E-01   1379.30814982    1.55935205E-05   3.98755989E+18   3.72000171E+07   0.00000000E+00   2.13831589E+08   0.27857321      
  58               9.77237221E-01   8.91557386E-01   1420.95797411    1.77721092E-05   4.54458163E+18   3.72000033E+07   0.00000000E+00   2.05889916E+08   0.27753082      
  59               1.14815362E+00   1.03682212E+00   1459.73090225    2.01209071E-05   5.14466727E+18   3.72000006E+07   0.00000000E+00   1.98207929E+08   0.27585115      
  60               1.34896288E+00   1.19405544E+00   1502.31675216    2.25178750E-05   5.75690180E+18   3.71999878E+07   0.00000000E+00   1.90820999E+08   0.2746103       
  61               1.58489319E+00   1.36125202E+00   1542.52926455    2.50053855E-05   6.39191460E+18   3.72000390E+07   0.00000000E+00   1.83774797E+08   0.27271193      
  62               1.86208714E+00   1.53302270E+00   1587.21335902    2.73738815E-05   6.99582787E+18   3.72000059E+07   0.00000000E+00   1.77209203E+08   0.27143702      
  63               2.18776162E+00   1.70071304E+00   1631.13493664    2.95607017E-05   7.55208710E+18   3.58801261E+07   1.32931640E+06   1.71314043E+08   0.26951935      
  64               2.57039578E+00   1.85575368E+00   1671.08386505    3.14968579E-05   8.04355293E+18   3.30604260E+07   4.14555358E+06   1.66232861E+08   0.26825446      
  65               3.01995172E+00   2.00318150E+00   1704.35735218    3.33480939E-05   8.51305586E+18   2.99465321E+07   7.25251226E+06   1.61683816E+08   0.26618341      
  66               3.54813389E+00   2.13979258E+00   1735.65317564    3.49941644E-05   8.92965273E+18   2.68882376E+07   1.03212297E+07   1.57684697E+08   0.26478099      
  67               4.16869383E+00   2.26203641E+00   1760.09670420    3.64914858E-05   9.30869713E+18   2.42645700E+07   1.29402970E+07   1.54263776E+08   0.26311268      
  68               4.89778819E+00   2.37889982E+00   1784.71222683    3.78542028E-05   9.65458910E+18   2.20982747E+07   1.50885515E+07   1.51119422E+08   0.26217144      
  69               5.75439937E+00   2.49686944E+00   1806.27379882    3.92585568E-05   1.00123977E+19   2.01949323E+07   1.70097326E+07   1.48059225E+08   0.26096404      
  70               6.76082975E+00   2.60787236E+00   1828.03360510    4.05241006E-05   1.03330373E+19   1.83977913E+07   1.88898207E+07   1.45276162E+08   0.26024458      
  71               7.94328235E+00   2.70590245E+00   1844.46804208    4.16787123E-05   1.06259273E+19   1.68780473E+07   2.04315949E+07   1.42890799E+08   0.25901643      
  72               9.33254301E+00   2.80008825E+00   1862.02153292    4.27289261E-05   1.08921311E+19   1.55981776E+07   2.16289668E+07   1.40658891E+08   0.25845743      
  73               1.09647820E+01   2.89311097E+00   1876.63906398    4.38107656E-05   1.11663228E+19   1.44950421E+07   2.26863029E+07   1.38508850E+08   0.25749205      
  74               1.28824955E+01   2.98680607E+00   1893.23364020    4.48397180E-05   1.14269059E+19   1.35758508E+07   2.35996273E+07   1.36394855E+08   0.25700987      
  75               1.51356125E+01   3.08590000E+00   1908.01585872    4.59674257E-05   1.17145526E+19   1.27531531E+07   2.44268695E+07   1.34212172E+08   0.25606956      
  76               1.77827941E+01   3.19720664E+00   1926.52766157    4.71665657E-05   1.20204658E+19   1.20660512E+07   2.51148126E+07   1.31821726E+08   0.25564167      
  77               2.08929613E+01   3.32176670E+00   1944.28527425    4.85550725E-05   1.23747086E+19   1.13272874E+07   2.58536863E+07   1.29218903E+08   0.25444021      
  78               2.45470892E+01   3.46084016E+00   1965.76464864    5.00332943E-05   1.27519283E+19   1.07073681E+07   2.64734151E+07   1.26397288E+08   0.25383467      
  79               2.88403150E+01   3.61572823E+00   1986.59198128    5.17222010E-05   1.31829602E+19   1.00456970E+07   2.71356472E+07   1.23352548E+08   0.25244177      
  80               3.38844156E+01   3.78791039E+00   2011.09537260    5.35221322E-05   1.36424657E+19   9.49717778E+06   2.76854314E+07   1.20080021E+08   0.25163161      
  81               3.98107171E+01   3.97914617E+00   2035.05403838    5.55587716E-05   1.41624956E+19   8.91781811E+06   2.82659614E+07   1.16573095E+08   0.25006491      
  82               4.67735141E+01   4.19136944E+00   2062.64971209    5.77345158E-05   1.47182543E+19   8.42284370E+06   2.87617072E+07   1.12825959E+08   0.24886166      
  83               5.49540874E+01   4.42632959E+00   2089.71794805    6.01757999E-05   1.53419978E+19   7.87148784E+06   2.93138577E+07   1.08839694E+08   0.24695198      
  84               6.45654229E+01   4.68591300E+00   2120.25617344    6.27804389E-05   1.60078027E+19   7.38641499E+06   2.97997008E+07   1.04616368E+08   0.24545612      
  85               7.58577575E+01   4.97213971E+00   2150.22562020    6.56784153E-05   1.67488553E+19   6.85005842E+06   3.03368496E+07   1.00158906E+08   0.24310845      
  86               8.91250938E+01   5.28721201E+00   2183.41379725    6.87683009E-05   1.75394720E+19   6.38098124E+06   3.08066821E+07   9.54707089E+07   0.24133617      
  87               1.04712855E+02   5.63350098E+00   2216.02079793    7.21815314E-05   1.84132471E+19   5.87151349E+06   3.13169239E+07   9.05556043E+07   0.23854393      
  88               1.23026877E+02   6.01361349E+00   2251.50885561    7.58217045E-05   1.93458445E+19   5.42499025E+06   3.17642062E+07   8.54174884E+07   0.23640849      
  89               1.44543977E+02   6.43030134E+00   2286.42566257    7.98199696E-05   2.03704245E+19   4.93895759E+06   3.22510426E+07   8.00612172E+07   0.23278741      
  90               1.69824365E+02   6.88659940E+00   2323.69198579    8.40915389E-05   2.14660482E+19   4.51981806E+06   3.26708287E+07   7.44916525E+07   0.23027805      
  91               1.99526231E+02   7.38584946E+00   2360.55190850    8.87534460E-05   2.26627567E+19   4.09629299E+06   3.30949523E+07   6.87126332E+07   0.22692295      
  92               2.34422882E+02   7.93175109E+00   2399.40925592    9.37378548E-05   2.39436628E+19   3.72567449E+06   3.34661960E+07   6.27275613E+07   0.22416088      
  93               2.75422870E+02   8.52828190E+00   2437.89877147    9.91581599E-05   2.53379642E+19   3.36033142E+06   3.38322694E+07   5.65400431E+07   0.22060417      
  94               3.23593657E+02   9.17985882E+00   2478.02763369    1.04957205E-04   2.68321638E+19   3.03728564E+06   3.41559749E+07   5.01530202E+07   0.21755398      
  95               3.80189396E+02   9.89142284E+00   2517.82912677    1.11247901E-04   2.84549845E+19   2.72384549E+06   3.44700254E+07   4.35678753E+07   0.21390937      
  96               4.46683592E+02   1.06682011E+01   2558.97192159    1.17987265E-04   3.01961457E+19   2.44902573E+06   3.47454279E+07   3.67877568E+07   0.21062461      
  97               5.24807460E+02   1.15158356E+01   2599.77550838    1.25283482E-04   3.20837739E+19   2.19035939E+06   3.50046868E+07   2.98159059E+07   0.20691981      
  98               6.16595002E+02   1.24404185E+01   2641.65892474    1.33102927E-04   3.41101861E+19   1.96179189E+06   3.52338615E+07   2.26559647E+07   0.20344051      
  99               7.24435960E+02   1.34484636E+01   2683.14212333    1.41555289E-04   3.63040296E+19   1.75395355E+06   3.54395233E+07   1.53120510E+07   0.19986587      
  100              8.51138038E+02   1.45539059E+01   2725.81928163    1.50676015E-04   3.86730427E+19   1.56900115E+06   3.56232885E+07   7.74302529E+06   0.19626578      
  101              1.00000000E+03   1.57580809E+01   2767.91844614    1.60517921E-04   4.12359378E+19   1.46552146E+06   3.57280525E+07   0.00000000E+00   0.19279452      
