# ATMO pressure-temperature profile
# Effective temperature = 2700.0K
# log(g) = 5.0cm/s^2
# M/H = 0.0
# Optical depth grid in band 17 (1.20-1.33microns)
# All parameters in cgs units
#
# Model Level      Optical Depth    Pressure         Temperature      Density          Number Density   Rad Flux         Conv Flux        Radial Extension Adiabatic Gradient
#                                   [Ba]             [K]              [g/cm^3]         [/cm^3]          [ergs/s/cm^2/sr] [ergs/s/cm^2/sr] [cm]             [K/Ba]          
  1                1.00000000E-08   1.00000000E-05   989.93122012     2.86112764E-10   7.31679384E+13   3.01326578E+09   0.00000000E+00   1.26352640E+07   0.2899105       
  2                1.28824955E-08   1.05718437E-05   1065.85527155    2.80927383E-10   7.18419873E+13   3.01326578E+09   0.00000000E+00   1.26150937E+07   0.28747474      
  3                1.65958691E-08   1.13009122E-05   1002.82983124    3.19174706E-10   8.16229139E+13   3.01326578E+09   0.00000000E+00   1.25907460E+07   0.28939954      
  4                2.13796209E-08   1.22317123E-05   1077.75690802    3.21445888E-10   8.22038732E+13   3.01326578E+09   0.00000000E+00   1.25616865E+07   0.28700867      
  5                2.75422870E-08   1.34169821E-05   1017.08659261    3.73627725E-10   9.55482528E+13   3.01326578E+09   0.00000000E+00   1.25274850E+07   0.2888384       
  6                3.54813389E-08   1.49278373E-05   1091.52080273    3.87352275E-10   9.90582649E+13   3.01326578E+09   0.00000000E+00   1.24877704E+07   0.28647312      
  7                4.57088190E-08   1.68478929E-05   1033.56168836    4.61690900E-10   1.18068768E+14   3.01326578E+09   0.00000000E+00   1.24423673E+07   0.2881938       
  8                5.88843655E-08   1.92904198E-05   1107.62266398    4.93277033E-10   1.26146639E+14   3.01326578E+09   0.00000000E+00   1.23911851E+07   0.28585204      
  9                7.58577575E-08   2.23868731E-05   1052.66539309    6.02344859E-10   1.54038376E+14   3.01326578E+09   0.00000000E+00   1.23343787E+07   0.28745211      
  10               9.77237221E-08   2.63157605E-05   1126.54748206    6.61617871E-10   1.69196846E+14   3.01326578E+09   0.00000000E+00   1.22721424E+07   0.28513011      
  11               1.25892541E-07   3.12814919E-05   1074.83420368    8.24305263E-10   2.10800588E+14   3.01326578E+09   0.00000000E+00   1.22049011E+07   0.2866003       
  12               1.62181010E-07   3.75634389E-05   1148.63033532    9.26244724E-10   2.36870459E+14   3.01326578E+09   0.00000000E+00   1.21330079E+07   0.28429824      
  13               2.08929613E-07   4.54790612E-05   1100.11786968    1.17088590E-09   2.99431931E+14   3.01326578E+09   0.00000000E+00   1.20569988E+07   0.28564103      
  14               2.69153480E-07   5.54693610E-05   1173.71299947    1.33854065E-09   3.42308030E+14   3.01326578E+09   0.00000000E+00   1.19771982E+07   0.283367        
  15               3.46736850E-07   6.80383562E-05   1128.06446269    1.70829231E-09   4.36863473E+14   3.01326578E+09   0.00000000E+00   1.18940785E+07   0.28459504      
  16               4.46683592E-07   8.38758554E-05   1201.32855743    1.97750390E-09   5.05709371E+14   3.01326578E+09   0.00000000E+00   1.18079101E+07   0.28235606      
  17               5.75439937E-07   1.03774532E-04   1158.05158914    2.53809370E-09   6.49065786E+14   3.01326578E+09   0.00000000E+00   1.17190898E+07   0.2834895       
  18               7.41310241E-07   1.28802120E-04   1230.95433765    2.96364272E-09   7.57891274E+14   3.01326578E+09   0.00000000E+00   1.16278355E+07   0.28188943      
  19               9.54992586E-07   1.60200160E-04   1189.51359577    3.81453181E-09   9.75482257E+14   3.01326578E+09   0.00000000E+00   1.15344521E+07   0.28332176      
  20               1.23026877E-06   1.99566499E-04   1262.30780846    4.47798665E-09   1.14511264E+15   3.01326578E+09   0.00000000E+00   1.14392018E+07   0.28045162      
  21               1.58489319E-06   2.48793788E-04   1222.34606236    5.76513499E-09   1.47425019E+15   3.01326578E+09   0.00000000E+00   1.13423160E+07   0.28200918      
  22               2.04173794E-06   3.10209585E-04   1295.58953720    6.78223790E-09   1.73425766E+15   3.01326577E+09   0.00000000E+00   1.12440976E+07   0.2789185       
  23               2.63026799E-06   3.86625496E-04   1257.04998194    8.71205571E-09   2.22773631E+15   3.01326577E+09   0.00000000E+00   1.11446859E+07   0.28051541      
  24               3.38844156E-06   4.78721808E-04   1331.57623547    1.01885021E-08   2.60401221E+15   3.01326577E+09   0.00000000E+00   1.10469249E+07   0.27715894      
  25               4.36515832E-06   5.89314044E-04   1294.05469001    1.29061073E-08   3.29852667E+15   3.01326577E+09   0.00000000E+00   1.09504815E+07   0.27888319      
  26               5.62341325E-06   7.26918020E-04   1368.76147585    1.50508179E-08   3.84665734E+15   3.01326576E+09   0.00000000E+00   1.08517499E+07   0.27518368      
  27               7.24435960E-06   8.97532158E-04   1332.73062174    1.90860403E-08   4.87790661E+15   3.01326576E+09   0.00000000E+00   1.07510850E+07   0.27696558      
  28               9.33254301E-06   1.10539519E-03   1408.95981691    2.22417581E-08   5.68257010E+15   3.01326575E+09   0.00000000E+00   1.06501928E+07   0.27286778      
  29               1.20226443E-05   1.35586196E-03   1374.27955863    2.79705576E-08   7.14605294E+15   3.01326574E+09   0.00000000E+00   1.05497737E+07   0.27483138      
  30               1.54881662E-05   1.65124713E-03   1451.59010188    3.22649637E-08   8.23936834E+15   3.01326573E+09   0.00000000E+00   1.04514422E+07   0.27009695      
  31               1.99526231E-05   1.99734485E-03   1418.99164482    3.99234245E-08   1.01952776E+16   3.01326571E+09   0.00000000E+00   1.03550103E+07   0.27237297      
  32               2.57039578E-05   2.36667880E-03   1497.98781423    4.49062037E-08   1.14434474E+16   3.01326567E+09   0.00000000E+00   1.02677586E+07   0.2671697       
  33               3.31131121E-05   2.73582287E-03   1468.23942731    5.29652819E-08   1.34963687E+16   3.01326572E+09   0.00000000E+00   1.01920669E+07   0.26942879      
  34               4.26579519E-05   3.19274257E-03   1537.54002082    5.90183223E-08   1.50405360E+16   3.01326574E+09   0.00000000E+00   1.01103419E+07   0.26400244      
  35               5.49540874E-05   3.75595828E-03   1509.61404921    7.07190345E-08   1.80210740E+16   3.01326575E+09   0.00000000E+00   1.00231623E+07   0.26639916      
  36               7.07945784E-05   4.44912326E-03   1580.96478770    7.99771215E-08   2.03834682E+16   3.01326575E+09   0.00000000E+00   9.93099194E+06   0.26027676      
  37               9.12010839E-05   5.29793374E-03   1555.23505764    9.68199542E-08   2.46738162E+16   3.01326574E+09   0.00000000E+00   9.83453195E+06   0.26290606      
  38               1.17489755E-04   6.33498348E-03   1628.97880211    1.10507669E-07   2.81679923E+16   3.01326570E+09   0.00000000E+00   9.73427182E+06   0.25565433      
  39               1.51356125E-04   7.59320092E-03   1606.49490627    1.34325511E-07   3.42350825E+16   3.01326564E+09   0.00000000E+00   9.63099992E+06   0.25817842      
  40               1.94984460E-04   9.11015805E-03   1684.63354918    1.53639067E-07   3.91693447E+16   3.01326544E+09   0.00000000E+00   9.52540244E+06   0.24928976      
  41               2.51188643E-04   1.09102321E-02   1669.58583998    1.85678610E-07   4.73315881E+16   3.01326462E+09   0.00000000E+00   9.41882627E+06   0.25074235      
  42               3.23593657E-04   1.29946835E-02   1757.56596665    2.09975837E-07   5.35525198E+16   3.01326353E+09   0.00000000E+00   9.31325530E+06   0.24043005      
  43               4.16869383E-04   1.52743948E-02   1759.59488581    2.46543158E-07   6.28748787E+16   3.01326402E+09   0.00000000E+00   9.21305964E+06   0.24075414      
  44               5.37031796E-04   1.80402583E-02   1807.71673126    2.83332709E-07   7.22833404E+16   3.01326419E+09   0.00000000E+00   9.10840906E+06   0.23469881      
  45               6.91830971E-04   2.13921309E-02   1808.33385851    3.35894648E-07   8.56843039E+16   3.01326443E+09   0.00000000E+00   8.99975699E+06   0.23546841      
  46               8.91250938E-04   2.54533848E-02   1855.60407732    3.89321953E-07   9.93541619E+16   3.01326467E+09   0.00000000E+00   8.88744917E+06   0.22964425      
  47               1.14815362E-03   3.03574903E-02   1857.52838549    4.63904059E-07   1.18373979E+17   3.01326502E+09   0.00000000E+00   8.77205292E+06   0.23051292      
  48               1.47910839E-03   3.62724829E-02   1905.05226520    5.40208574E-07   1.37910149E+17   3.01326542E+09   0.00000000E+00   8.65389423E+06   0.22453365      
  49               1.90546072E-03   4.33788865E-02   1909.03752641    6.44769569E-07   1.64584819E+17   3.01326597E+09   0.00000000E+00   8.53348294E+06   0.22513756      
  50               2.45470892E-03   5.19042292E-02   1957.28201833    7.52053263E-07   1.92076918E+17   3.01326655E+09   0.00000000E+00   8.41105170E+06   0.21890395      
  51               3.16227766E-03   6.20876202E-02   1964.23578856    8.96503482E-07   2.28948200E+17   3.01326728E+09   0.00000000E+00   8.28703153E+06   0.21918826      
  52               4.07380278E-03   7.42311196E-02   2013.86449645    1.04473776E-06   2.66981768E+17   3.01326809E+09   0.00000000E+00   8.16155219E+06   0.21274859      
  53               5.24807460E-03   8.86469941E-02   2024.50395730    1.24113612E-06   3.17154752E+17   3.01326909E+09   0.00000000E+00   8.03495395E+06   0.21242526      
  54               6.76082975E-03   1.05733586E-01   2076.03060309    1.44244102E-06   3.68896937E+17   3.01327018E+09   0.00000000E+00   7.90724942E+06   0.2054336       
  55               8.70963590E-03   1.25895124E-01   2091.41218023    1.70479688E-06   4.36008663E+17   3.01327155E+09   0.00000000E+00   7.77867981E+06   0.20443544      
  56               1.12201845E-02   1.49645889E-01   2145.78319359    1.97300383E-06   5.05131893E+17   3.01327300E+09   0.00000000E+00   7.64917394E+06   0.19731368      
  57               1.44543977E-02   1.77488495E-01   2167.23731868    2.31646392E-06   5.93184202E+17   3.01327462E+09   0.00000000E+00   7.51893719E+06   0.19535933      
  58               1.86208714E-02   2.10061164E-01   2225.79340333    2.66569415E-06   6.83575922E+17   3.01327613E+09   0.00000000E+00   7.38785249E+06   0.1876115       
  59               2.39883292E-02   2.47949910E-01   2255.65756501    3.10318965E-06   7.96189830E+17   3.01327786E+09   0.00000000E+00   7.25611695E+06   0.18434966      
  60               3.09029543E-02   2.91848012E-01   2322.66996608    3.53961491E-06   9.10112490E+17   3.01306932E+09   1.55886386E+06   7.12365505E+06   0.17501056      
  61               3.98107171E-02   3.41624381E-01   2385.79810785    4.02448551E-06   1.03714865E+18   3.00291867E+09   1.03338953E+07   6.99175996E+06   0.16598445      
  62               5.12861384E-02   3.98358115E-01   2445.79314427    4.56583552E-06   1.17972229E+18   2.98333483E+09   2.99111947E+07   6.85940151E+06   0.1581786       
  63               6.60693448E-02   4.63334338E-01   2503.66535239    5.17320804E-06   1.34042972E+18   2.95392909E+09   5.93149226E+07   6.72569905E+06   0.15144247      
  64               8.51138038E-02   5.37811229E-01   2559.60135507    5.85590147E-06   1.52189039E+18   2.91374911E+09   9.94907256E+07   6.59037692E+06   0.14574065      
  65               1.09647820E-01   6.23271824E-01   2614.31922047    6.62312302E-06   1.72681065E+18   2.86166377E+09   1.51564792E+08   6.45314306E+06   0.14069909      
  66               1.41253754E-01   7.21338340E-01   2667.64475008    7.48685770E-06   1.95855991E+18   2.79647549E+09   2.16736980E+08   6.31387158E+06   0.13644815      
  67               1.81970086E-01   8.33772592E-01   2720.30920690    8.45636427E-06   2.22001129E+18   2.71671185E+09   2.96480445E+08   6.17255950E+06   0.13268078      
  68               2.34422882E-01   9.62506534E-01   2771.82614616    9.54586550E-06   2.51514796E+18   2.62083597E+09   3.92335535E+08   6.02926989E+06   0.12937846      
  69               3.01995172E-01   1.10966308E+00   2822.91860227    1.07653597E-05   2.84720424E+18   2.50717630E+09   5.05974972E+08   5.88409939E+06   0.12660168      
  70               3.89045145E-01   1.27755802E+00   2873.12312789    1.21308585E-05   3.22071455E+18   2.37402302E+09   6.39103273E+08   5.73717389E+06   0.12434766      
  71               5.01187234E-01   1.46872859E+00   2923.19161239    1.36526717E-05   3.63923504E+18   2.21981011E+09   7.93287881E+08   5.58861939E+06   0.12241153      
  72               6.45654229E-01   1.68598766E+00   2972.49658885    1.53504404E-05   4.10826895E+18   2.04410478E+09   9.68962007E+08   5.43853798E+06   0.1207953       
  73               8.31763771E-01   1.93248222E+00   3021.84881298    1.72357038E-05   4.63200069E+18   1.84826740E+09   1.16476080E+09   5.28698987E+06   0.11938019      
  74               1.07151931E+00   2.21166448E+00   3070.51872128    1.93327210E-05   5.21715012E+18   1.63642451E+09   1.37656653E+09   5.13404189E+06   0.11817598      
  75               1.38038426E+00   2.52732157E+00   3119.35559243    2.16536041E-05   5.86842365E+18   1.41561439E+09   1.59734214E+09   4.97975790E+06   0.11713661      
  76               1.77827941E+00   2.88378371E+00   3167.59612532    2.42286521E-05   6.59414847E+18   1.19600773E+09   1.81691669E+09   4.82412571E+06   0.11634058      
  77               2.29086765E+00   3.28598668E+00   3216.22551678    2.70722635E-05   7.40022877E+18   9.89091839E+08   2.02379288E+09   4.66707705E+06   0.11573139      
  78               2.95120923E+00   3.73955333E+00   3264.43661833    3.02233251E-05   8.29731025E+18   8.05188194E+08   2.20766762E+09   4.50850649E+06   0.11530878      
  79               3.80189396E+00   4.25091153E+00   3313.26567097    3.36995457E-05   9.29290817E+18   6.50400993E+08   2.36244028E+09   4.34827154E+06   0.11496732      
  80               4.89778819E+00   4.82739067E+00   3361.80549420    3.75516013E-05   1.04007751E+19   5.25107193E+08   2.48772886E+09   4.18621313E+06   0.11473125      
  81               6.30957344E+00   5.47735679E+00   3411.15228413    4.18011216E-05   1.16304298E+19   4.25505131E+08   2.58732764E+09   4.02215524E+06   0.11455766      
  82               8.12830516E+00   6.21035427E+00   3460.33969978    4.65128811E-05   1.29994051E+19   3.45829742E+08   2.66701585E+09   3.85591519E+06   0.11450662      
  83               1.04712855E+01   7.03726993E+00   3510.55081306    5.17124496E-05   1.45196045E+19   2.81544115E+08   2.73132543E+09   3.68730208E+06   0.11452867      
  84               1.34896288E+01   7.97052818E+00   3560.74873666    5.74822277E-05   1.62133072E+19   2.29044116E+08   2.78384840E+09   3.51612288E+06   0.11467549      
  85               1.73780083E+01   9.02432152E+00   3612.19783809    6.38524740E-05   1.80954285E+19   1.86547819E+08   2.82635270E+09   3.34217704E+06   0.11491028      
  86               2.23872114E+01   1.02148179E+01   3663.79733657    7.09271251E-05   2.01941243E+19   1.51910220E+08   2.86100082E+09   3.16526940E+06   0.11525457      
  87               2.88403150E+01   1.15604979E+01   3716.86711528    7.87424536E-05   2.25281404E+19   1.24104383E+08   2.88881868E+09   2.98519764E+06   0.11564842      
  88               3.71535229E+01   1.30824957E+01   3770.22092591    8.74307112E-05   2.51333073E+19   1.01478014E+08   2.91145215E+09   2.80175876E+06   0.11612294      
  89               4.78630092E+01   1.48050625E+01   3825.24877098    9.70362300E-05   2.80334405E+19   8.33335461E+07   2.92958971E+09   2.61473709E+06   0.11666794      
  90               6.16595002E+01   1.67559528E+01   3880.72289193    1.07725431E-04   3.12739211E+19   6.84485042E+07   2.94446931E+09   2.42391836E+06   0.11729714      
  91               7.94328235E+01   1.89670801E+01   3938.09059072    1.19553300E-04   3.48851517E+19   5.63975218E+07   2.95651422E+09   2.22907345E+06   0.11796411      
  92               1.02329299E+02   2.14751387E+01   3996.04845946    1.32732053E-04   3.89252196E+19   4.63734390E+07   2.96652127E+09   2.02996786E+06   0.11867942      
  93               1.31825674E+02   2.43225479E+01   4056.10455724    1.47332541E-04   4.34335938E+19   3.82124930E+07   2.97465066E+09   1.82634435E+06   0.11940787      
  94               1.69824365E+02   2.75582943E+01   4116.88938370    1.63626820E-04   4.84851758E+19   3.14195781E+07   2.98142399E+09   1.61793742E+06   0.12020719      
  95               2.18776162E+02   3.12391386E+01   4180.02333255    1.81703964E-04   5.41310167E+19   2.59294777E+07   2.98690498E+09   1.40445949E+06   0.12111287      
  96               2.81838293E+02   3.54304601E+01   4244.13778683    2.01903969E-04   6.04662669E+19   2.13916932E+07   2.99142901E+09   1.18562774E+06   0.1221723       
  97               3.63078055E+02   4.02079658E+01   4310.95981725    2.24334888E-04   6.75560061E+19   1.77241992E+07   2.99506578E+09   9.61138613E+05   0.12336258      
  98               4.67735141E+02   4.56591659E+01   4379.06421640    2.49425426E-04   7.55218289E+19   1.46713168E+07   2.99808133E+09   7.30682873E+05   0.12463322      
  99               6.02559586E+02   5.18859948E+01   4450.19107955    2.77321686E-04   8.44495479E+19   1.21887608E+07   3.00052396E+09   4.93916543E+05   0.12595098      
  100              7.76247117E+02   5.90068863E+01   4522.84675946    3.08572949E-04   9.44967047E+19   1.01174426E+07   3.00253602E+09   2.50484282E+05   0.12727914      
  101              1.00000000E+03   6.71601508E+01   4598.79801647    3.43380611E-04   1.05777468E+20   9.24423892E+06   3.00336432E+09   0.00000000E+00   0.12864988      
