# ATMO pressure-temperature profile
# Effective temperature = 1300.0K
# log(g) = 5.0cm/s^2
# M/H = 0.0
# Optical depth grid in band 17 (1.20-1.33microns)
# All parameters in cgs units
#
# Model Level      Optical Depth    Pressure         Temperature      Density          Number Density   Rad Flux         Conv Flux        Radial Extension Adiabatic Gradient
#                                   [Ba]             [K]              [g/cm^3]         [/cm^3]          [ergs/s/cm^2/sr] [ergs/s/cm^2/sr] [cm]             [K/Ba]          
  1                1.00000000E-07   1.00000000E-05   378.72995110     7.48593567E-10   1.91247685E+14   1.61937744E+08   0.00000000E+00   6.65866687E+06   0.29823756      
  2                1.25892541E-07   1.28580719E-05   411.19331200     8.86555626E-10   2.26493450E+14   1.61937744E+08   0.00000000E+00   6.62358382E+06   0.2976146       
  3                1.58489319E-07   1.63214667E-05   421.53565754     1.09776389E-09   2.80446940E+14   1.61937744E+08   0.00000000E+00   6.58847669E+06   0.29756128      
  4                1.99526231E-07   2.06043738E-05   430.01523460     1.35850003E-09   3.47057488E+14   1.61937744E+08   0.00000000E+00   6.55340519E+06   0.29748139      
  5                2.51188643E-07   2.59248247E-05   436.31044822     1.68462907E-09   4.30374028E+14   1.61937744E+08   0.00000000E+00   6.51823567E+06   0.29747063      
  6                3.16227766E-07   3.25409205E-05   443.74762216     2.07911193E-09   5.31152994E+14   1.61937744E+08   0.00000000E+00   6.48288393E+06   0.29743622      
  7                3.98107171E-07   4.07714373E-05   449.64266036     2.57082548E-09   6.56771581E+14   1.61937744E+08   0.00000000E+00   6.44728378E+06   0.29743247      
  8                5.01187234E-07   5.10127048E-05   456.85175360     3.16582672E-09   8.08777191E+14   1.61937744E+08   0.00000000E+00   6.41138548E+06   0.29742659      
  9                6.30957344E-07   6.37552675E-05   462.80530926     3.90572653E-09   9.97800183E+14   1.61937744E+08   0.00000000E+00   6.37514764E+06   0.29742793      
  10               7.94328235E-07   7.96081055E-05   470.14533394     4.80075180E-09   1.22645325E+15   1.61937744E+08   0.00000000E+00   6.33853750E+06   0.29744369      
  11               1.00000000E-06   9.93245188E-05   476.39233081     5.91120214E-09   1.51014117E+15   1.61937744E+08   0.00000000E+00   6.30152611E+06   0.29745067      
  12               1.25892541E-06   1.23839340E-04   483.99449830     7.25441355E-09   1.85329282E+15   1.61937744E+08   0.00000000E+00   6.26409009E+06   0.29928766      
  13               1.58489319E-06   1.54308949E-04   490.57116763     8.91811787E-09   2.27832111E+15   1.61937744E+08   0.00000000E+00   6.22620842E+06   0.29927335      
  14               1.99526231E-06   1.92167076E-04   498.45313836     1.09304682E-08   2.79241838E+15   1.61937744E+08   0.00000000E+00   6.18786391E+06   0.29921693      
  15               2.51188643E-06   2.39184758E-04   505.38519161     1.34182264E-08   3.42796854E+15   1.61937744E+08   0.00000000E+00   6.14904045E+06   0.29919972      
  16               3.16227766E-06   2.97556305E-04   513.59049035     1.64261701E-08   4.19641105E+15   1.61937744E+08   0.00000000E+00   6.10972299E+06   0.29914159      
  17               3.98107171E-06   3.70011933E-04   520.85891861     2.01409414E-08   5.14542752E+15   1.61937744E+08   0.00000000E+00   6.06988805E+06   0.29912325      
  18               5.01187234E-06   4.59942033E-04   529.35487262     2.46343065E-08   6.29335202E+15   1.61937744E+08   0.00000000E+00   6.02951468E+06   0.29906217      
  19               6.30957344E-06   5.71544944E-04   536.90633402     3.01811667E-08   7.71041403E+15   1.61937744E+08   0.00000000E+00   5.98858510E+06   0.29904029      
  20               7.94328235E-06   7.10027820E-04   545.62191544     3.68950183E-08   9.42560855E+15   1.61937743E+08   0.00000000E+00   5.94708547E+06   0.29897504      
  21               1.00000000E-05   8.81843881E-04   553.33497586     4.51843215E-08   1.15432851E+16   1.61937744E+08   0.00000000E+00   5.90500447E+06   0.29895069      
  22               1.25892541E-05   1.09499095E-03   562.18604665     5.52223216E-08   1.41077030E+16   1.61937743E+08   0.00000000E+00   5.86233393E+06   0.29887989      
  23               1.58489319E-05   1.35938322E-03   569.94820185     6.76224221E-08   1.72755688E+16   1.61937744E+08   0.00000000E+00   5.81906800E+06   0.29885211      
  24               1.99526231E-05   1.68731980E-03   578.78377820     8.26542652E-08   2.11157685E+16   1.61937743E+08   0.00000000E+00   5.77520363E+06   0.29877531      
  25               2.51188643E-05   2.09404315E-03   586.48956560     1.01230082E-07   2.58613491E+16   1.61937744E+08   0.00000000E+00   5.73073931E+06   0.29874587      
  26               3.16227766E-05   2.59843975E-03   595.26730915     1.23761305E-07   3.16174222E+16   1.61937743E+08   0.00000000E+00   5.68567581E+06   0.29866226      
  27               3.98107171E-05   3.22391036E-03   602.86663837     1.51616335E-07   3.87335717E+16   1.61937744E+08   0.00000000E+00   5.64001522E+06   0.29863021      
  28               5.01187234E-05   3.99942090E-03   611.60352535     1.85400760E-07   4.73645015E+16   1.61937744E+08   0.00000000E+00   5.59376019E+06   0.2985392       
  29               6.30957344E-05   4.96081060E-03   619.14151556     2.27167985E-07   5.80348091E+16   1.61937744E+08   0.00000000E+00   5.54691445E+06   0.29850605      
  30               7.94328235E-05   6.15252019E-03   627.91129159     2.77804453E-07   7.09709460E+16   1.61937743E+08   0.00000000E+00   5.49947635E+06   0.29840532      
  31               1.00000000E-04   7.62971048E-03   635.63214533     3.40319382E-07   8.69416835E+16   1.61937744E+08   0.00000000E+00   5.45143408E+06   0.29836695      
  32               1.25892541E-04   9.46046044E-03   644.73315548     4.16022623E-07   1.06281606E+17   1.61937744E+08   0.00000000E+00   5.40277911E+06   0.29825407      
  33               1.58489319E-04   1.17286940E-02   652.83398763     5.09368021E-07   1.30128594E+17   1.61937744E+08   0.00000000E+00   5.35350560E+06   0.29823055      
  34               1.99526231E-04   1.45375848E-02   662.54394269     6.22103094E-07   1.58929096E+17   1.61937743E+08   0.00000000E+00   5.30360706E+06   0.29812042      
  35               2.51188643E-04   1.80137050E-02   671.42338775     7.60662317E-07   1.94326675E+17   1.61937747E+08   0.00000000E+00   5.25307492E+06   0.29803433      
  36               3.16227766E-04   2.23118969E-02   682.06982645     9.27455781E-07   2.36937334E+17   1.61937740E+08   0.00000000E+00   5.20190163E+06   0.29786747      
  37               3.98107171E-04   2.76208968E-02   692.07290843     1.13154401E-06   2.89075820E+17   1.61937750E+08   0.00000000E+00   5.15007770E+06   0.29779087      
  38               5.01187234E-04   3.41699085E-02   704.24221346     1.37565472E-06   3.51437095E+17   1.61937734E+08   0.00000000E+00   5.09758660E+06   0.29759382      
  39               6.30957344E-04   4.22361984E-02   715.90808636     1.67269273E-06   4.27320171E+17   1.61937759E+08   0.00000000E+00   5.04441115E+06   0.29749834      
  40               7.94328235E-04   5.21531092E-02   730.02267984     2.02550084E-06   5.17451550E+17   1.61937722E+08   0.00000000E+00   4.99053430E+06   0.29725269      
  41               1.00000000E-03   6.43194503E-02   743.99564767     2.45109624E-06   6.26177947E+17   1.61937770E+08   0.00000000E+00   4.93593167E+06   0.29704875      
  42               1.25892541E-03   7.92096712E-02   760.73685456     2.95212125E-06   7.54170592E+17   1.61937707E+08   0.00000000E+00   4.88057701E+06   0.29667144      
  43               1.58489319E-03   9.73987601E-02   777.48855143     3.55180940E-06   9.07371774E+17   1.61937791E+08   0.00000000E+00   4.82440511E+06   0.29642457      
  44               1.99526231E-03   1.19583762E-01   797.38893162     4.25198606E-06   1.08624514E+18   1.61937680E+08   0.00000000E+00   4.76731789E+06   0.29600347      
  45               2.51188643E-03   1.46595352E-01   817.61543840     5.08347139E-06   1.29866447E+18   1.61937822E+08   0.00000000E+00   4.70921814E+06   0.29568994      
  46               3.16227766E-03   1.79421486E-01   841.23691927     6.04706092E-06   1.54483452E+18   1.61937646E+08   0.00000000E+00   4.65001185E+06   0.2951388       
  47               3.98107171E-03   2.19233577E-01   865.39365976     7.18257456E-06   1.83492873E+18   1.61937852E+08   0.00000000E+00   4.58960259E+06   0.29463562      
  48               5.01187234E-03   2.67456602E-01   893.20410006     8.48959663E-06   2.16884469E+18   1.61937611E+08   0.00000000E+00   4.52784752E+06   0.29382777      
  49               6.30957344E-03   3.25837937E-01   921.64439588     1.00235181E-05   2.56073184E+18   1.61937894E+08   0.00000000E+00   4.46455928E+06   0.29313084      
  50               7.94328235E-03   3.96696194E-01   953.91473796     1.17904621E-05   3.01213418E+18   1.61937594E+08   0.00000000E+00   4.39937831E+06   0.2921259       
  51               1.00000000E-02   4.83327081E-01   987.14280181     1.38811897E-05   3.54639402E+18   1.61937907E+08   0.00000000E+00   4.33166085E+06   0.29124112      
  52               1.25892541E-02   5.90651595E-01   1024.66960879    1.63412621E-05   4.17516233E+18   1.61937578E+08   0.00000000E+00   4.26039946E+06   0.2900167       
  53               1.58489319E-02   7.25840879E-01   1063.80328775    1.93411638E-05   4.94203635E+18   1.61937911E+08   0.00000000E+00   4.18435432E+06   0.28890122      
  54               1.99526231E-02   8.99685209E-01   1108.34275495    2.30076106E-05   5.87952625E+18   1.61937567E+08   0.00000000E+00   4.10194023E+06   0.28734131      
  55               2.51188643E-02   1.12736353E+00   1155.35506980    2.76537640E-05   7.06763877E+18   1.61937928E+08   0.00000000E+00   4.01167405E+06   0.28582566      
  56               3.16227766E-02   1.42943336E+00   1207.91791698    3.35336923E-05   8.57141118E+18   1.61937467E+08   0.00000000E+00   3.91247544E+06   0.28383604      
  57               3.98107171E-02   1.82941044E+00   1261.79498762    4.10805138E-05   1.05014240E+19   1.61938048E+08   0.00000000E+00   3.80470809E+06   0.28200557      
  58               5.01187234E-02   2.35125352E+00   1318.96394333    5.05062639E-05   1.29119660E+19   1.61937217E+08   0.00000000E+00   3.69014165E+06   0.279853        
  59               6.30957344E-02   3.01601050E+00   1375.28818949    6.21288322E-05   1.58841864E+19   1.61938668E+08   0.00000000E+00   3.57146965E+06   0.27801363      
  60               7.94328235E-02   3.84013107E+00   1434.16066508    7.58547462E-05   1.93942987E+19   1.61936428E+08   0.00000000E+00   3.45142120E+06   0.27579871      
  61               1.00000000E-01   4.84299500E+00   1492.37989492    9.19303809E-05   2.35050116E+19   1.61939630E+08   0.00000000E+00   3.33132638E+06   0.27376548      
  62               1.25892541E-01   6.03207697E+00   1553.46624399    1.10002878E-04   2.81248939E+19   1.61934369E+08   0.00000000E+00   3.21307996E+06   0.27139037      
  63               1.58489319E-01   7.37794791E+00   1613.06863957    1.29630192E-04   3.31290190E+19   1.61940335E+08   0.00000000E+00   3.10036469E+06   0.26937236      
  64               1.99526231E-01   8.84485780E+00   1674.07208748    1.49748781E-04   3.82685969E+19   1.61931238E+08   0.00000000E+00   2.99507789E+06   0.26713264      
  65               2.51188643E-01   1.03598179E+01   1731.90865293    1.69579208E-04   4.33264374E+19   1.61945275E+08   0.00000000E+00   2.90000799E+06   0.26517232      
  66               3.16227766E-01   1.17268682E+01   1789.88454379    1.85903740E-04   4.74550970E+19   1.58553540E+08   3.38275839E+06   2.82300771E+06   0.2629187       
  67               3.98107171E-01   1.27951012E+01   1830.76525208    1.98453407E-04   5.06217207E+19   1.51551320E+08   1.03904797E+07   2.76739095E+06   0.261028        
  68               5.01187234E-01   1.40005760E+01   1874.62817407    2.12061098E-04   5.40949348E+19   1.43146426E+08   1.88290769E+07   2.70862865E+06   0.25940236      
  69               6.30957344E-01   1.50100450E+01   1908.18144816    2.23420907E-04   5.69755027E+19   1.34013729E+08   2.79270199E+07   2.66224963E+06   0.2579173       
  70               7.94328235E-01   1.57976238E+01   1933.93689199    2.32007678E-04   5.91664225E+19   1.25700647E+08   3.62166668E+07   2.62765720E+06   0.25667656      
  71               1.00000000E+00   1.67267499E+01   1961.96623894    2.42137802E-04   6.17512669E+19   1.17305187E+08   4.46417928E+07   2.58845663E+06   0.25545072      
  72               1.25892541E+00   1.78140423E+01   1994.20554597    2.53691528E-04   6.47021034E+19   1.07198898E+08   5.48464718E+07   2.54458716E+06   0.25463373      
  73               1.58489319E+00   1.86594019E+01   2017.36126879    2.62898616E-04   6.69946127E+19   9.70693266E+07   6.49022949E+07   2.51184992E+06   0.25392531      
  74               1.99526231E+00   1.93047870E+01   2035.32144831    2.69585684E-04   6.87001754E+19   8.90125943E+07   7.28921930E+07   2.48760747E+06   0.25322023      
  75               2.51188643E+00   2.00809344E+01   2055.22012102    2.77702667E-04   7.07703617E+19   8.22675425E+07   7.96399133E+07   2.45924096E+06   0.25231211      
  76               3.16227766E+00   2.10079374E+01   2079.20839157    2.87160678E-04   7.31831729E+19   7.62151586E+07   8.56951022E+07   2.42641414E+06   0.25136148      
  77               3.98107171E+00   2.21120780E+01   2105.60700829    2.98451527E-04   7.60638109E+19   7.05760741E+07   9.13371435E+07   2.38869817E+06   0.25014043      
  78               5.01187234E+00   2.34188264E+01   2136.48939338    3.11502947E-04   7.93944648E+19   6.52242888E+07   9.66918464E+07   2.34584091E+06   0.2488307       
  79               6.30957344E+00   2.49557451E+01   2169.96067691    3.26804057E-04   8.32999070E+19   5.99740997E+07   1.01944787E+08   2.29767091E+06   0.24726098      
  80               7.94328235E+00   2.67527989E+01   2207.97543094    3.44275292E-04   8.77608514E+19   5.49047756E+07   1.07016589E+08   2.24409553E+06   0.24553542      
  81               1.00000000E+01   2.88426695E+01   2248.47608038    3.64444840E-04   9.29122595E+19   4.99138599E+07   1.12009686E+08   2.18509560E+06   0.24343222      
  82               1.25892541E+01   3.12614263E+01   2293.29944586    3.87232716E-04   9.87356209E+19   4.51537480E+07   1.16771657E+08   2.12070958E+06   0.2411486       
  83               1.58489319E+01   3.40481557E+01   2340.26960688    4.13259917E-04   1.05378871E+20   4.05422039E+07   1.21384728E+08   2.05104500E+06   0.23857637      
  84               1.99526231E+01   3.72475388E+01   2391.19317904    4.42371305E-04   1.12825887E+20   3.63019448E+07   1.25626196E+08   1.97621715E+06   0.23579632      
  85               2.51188643E+01   4.09103222E+01   2443.81896580    4.75289666E-04   1.21252223E+20   3.22855998E+07   1.29643446E+08   1.89633660E+06   0.23280022      
  86               3.16227766E+01   4.50930504E+01   2500.00438008    5.11949299E-04   1.30645569E+20   2.85788819E+07   1.33350713E+08   1.81154163E+06   0.22963047      
  87               3.98107171E+01   4.98609610E+01   2557.41683367    5.53167662E-04   1.41216344E+20   2.50654642E+07   1.36864494E+08   1.72194540E+06   0.22613502      
  88               5.01187234E+01   5.52919621E+01   2617.98041051    5.98959541E-04   1.52975348E+20   2.19377469E+07   1.39992535E+08   1.62759210E+06   0.22268468      
  89               6.30957344E+01   6.14766900E+01   2679.51036847    6.50324631E-04   1.66180811E+20   1.90568972E+07   1.42873746E+08   1.52849487E+06   0.21880803      
  90               7.94328235E+01   6.85195911E+01   2743.78268051    7.07407459E-04   1.80880143E+20   1.65791767E+07   1.45351919E+08   1.42465664E+06   0.21505723      
  91               1.00000000E+02   7.65390325E+01   2808.81848898    7.71357678E-04   1.97371814E+20   1.43534516E+07   1.47578290E+08   1.31609222E+06   0.21107393      
  92               1.25892541E+02   8.56703402E+01   2876.25811028    8.42440521E-04   2.15738907E+20   1.24258259E+07   1.49506856E+08   1.20281503E+06   0.20736695      
  93               1.58489319E+02   9.60658253E+01   2944.34358088    9.21963928E-04   2.36323152E+20   1.06885580E+07   1.51245451E+08   1.08485751E+06   0.20354651      
  94               1.99526231E+02   1.07897216E+02   3014.53031670    1.01032893E-03   2.59248601E+20   9.16993133E+06   1.52766282E+08   9.62267299E+05   0.19987761      
  95               2.51188643E+02   1.21347619E+02   3085.09864181    1.10899000E-03   2.84897110E+20   7.80965934E+06   1.54129763E+08   8.35195613E+05   0.19616839      
  96               3.16227766E+02   1.36592597E+02   3157.26542045    1.21818971E-03   3.13358811E+20   6.64305027E+06   1.55300086E+08   7.04031508E+05   0.19255714      
  97               3.98107171E+02   1.53815189E+02   3229.21307387    1.33935018E-03   3.45007361E+20   5.63461061E+06   1.56312631E+08   5.69196242E+05   0.18912564      
  98               5.01187234E+02   1.73212173E+02   3302.32665201    1.47260144E-03   3.79913057E+20   4.77174195E+06   1.57179971E+08   4.31076864E+05   0.18583706      
  99               6.30957344E+02   1.94998022E+02   3374.76884007    1.61963114E-03   4.18515952E+20   4.02204976E+06   1.57934406E+08   2.90007167E+05   0.18287564      
  100              7.94328235E+02   2.19409381E+02   3448.23956406    1.78047513E-03   4.60875478E+20   3.38444461E+06   1.58576943E+08   1.46251064E+05   0.18015703      
  101              1.00000000E+03   2.46710331E+02   3520.85908083    1.95722868E-03   5.07533289E+20   3.06673763E+06   1.58898524E+08   0.00000000E+00   0.17770865      
