# ATMO pressure-temperature profile
# Effective temperature = 400.0K
# log(g) = 3.0cm/s^2
# M/H = 0.0
# Optical depth grid in band 17 (1.20-1.33microns)
# All parameters in cgs units
#
# Model Level      Optical Depth    Pressure         Temperature      Density          Number Density   Rad Flux         Conv Flux        Radial Extension Adiabatic Gradient
#                                   [Ba]             [K]              [g/cm^3]         [/cm^3]          [ergs/s/cm^2/sr] [ergs/s/cm^2/sr] [cm]             [K/Ba]          
  1                1.00000000E-04   1.00000000E-05   59.01457224      4.77586284E-09   1.22734477E+15   1.45139512E+06   0.00000000E+00   2.79052849E+08   0.34612403      
  2                1.17489755E-04   9.25053312E-05   66.85467574      3.89983367E-08   1.00221481E+16   1.45139512E+06   0.00000000E+00   2.73007337E+08   0.34616436      
  3                1.38038426E-04   1.87999931E-04   83.98097419      6.30939753E-08   1.62144649E+16   1.45139512E+06   0.00000000E+00   2.71082200E+08   0.31479361      
  4                1.62181010E-04   2.92976395E-04   85.47273164      9.66086818E-08   2.48273797E+16   1.45139512E+06   0.00000000E+00   2.69737609E+08   0.31481323      
  5                1.90546072E-04   4.10782685E-04   100.31933622     1.15407613E-07   2.96587825E+16   1.45139512E+06   0.00000000E+00   2.68621920E+08   0.31482971      
  6                2.23872114E-04   5.30212038E-04   106.80682326     1.39907168E-07   3.59564184E+16   1.45139346E+06   3.08380559E+01   2.67682021E+08   0.31484137      
  7                2.63026799E-04   5.91681226E-04   112.53296420     1.48301947E-07   3.80832383E+16   1.45139099E+06   3.11189927E+03   2.67255189E+08   0.31522542      
  8                3.09029543E-04   6.21178787E-04   112.27413007     1.56054299E-07   4.00740058E+16   1.45138954E+06   4.95987969E+02   2.67061290E+08   0.31870568      
  9                3.63078055E-04   6.55728654E-04   116.28033831     1.59058432E-07   4.08454528E+16   1.45138885E+06   4.04531148E+02   2.66841994E+08   0.31933164      
  10               4.26579519E-04   6.96185303E-04   116.43669204     1.68645133E-07   4.33072724E+16   1.45138870E+06   3.55888985E+02   2.66594978E+08   0.32145175      
  11               5.01187234E-04   7.43544844E-04   121.07450046     1.73218112E-07   4.44815918E+16   1.45138904E+06   2.19649859E+02   2.66317886E+08   0.32183042      
  12               5.88843655E-04   7.98969291E-04   121.71313603     1.85153299E-07   4.75464914E+16   1.45138986E+06   1.41634975E+02   2.66008402E+08   0.32351017      
  13               6.91830971E-04   8.63811385E-04   127.09174687     1.91708070E-07   4.92297255E+16   1.45139106E+06   6.07101704E+01   2.65664233E+08   0.3239177       
  14               8.12830516E-04   9.39646691E-04   128.27813441     2.06609732E-07   5.30564018E+16   1.45139264E+06   7.81678112E+00   2.65283189E+08   0.32508644      
  15               9.54992586E-04   1.02831918E-03   134.50219571     2.15644003E-07   5.53763594E+16   1.45139414E+06   3.95935111E+02   2.64863096E+08   0.32538112      
  16               1.12201845E-03   1.13198344E-03   136.29147612     2.34266505E-07   6.01585301E+16   1.45139502E+06   0.00000000E+00   2.64401879E+08   0.32582491      
  17               1.31825674E-03   1.25321961E-03   142.22747064     2.48532125E-07   6.38218713E+16   1.45139510E+06   0.00000000E+00   2.63899438E+08   0.32591116      
  18               1.54881662E-03   1.39506148E-03   143.22889376     2.74727123E-07   7.05486243E+16   1.45139517E+06   0.00000000E+00   2.63356609E+08   0.32593024      
  19               1.81970086E-03   1.56104431E-03   148.96054895     2.95585332E-07   7.59048990E+16   1.45139511E+06   0.00000000E+00   2.62774143E+08   0.32583554      
  20               2.13796209E-03   1.75529403E-03   149.66666905     3.30798590E-07   8.49475039E+16   1.45139512E+06   0.00000000E+00   2.62152935E+08   0.32562842      
  21               2.51188643E-03   1.98261284E-03   155.49308820     3.59638387E-07   9.23533526E+16   1.45139508E+06   0.00000000E+00   2.61493881E+08   0.32530136      
  22               2.95120923E-03   2.24858556E-03   156.21145264     4.06008919E-07   1.04261120E+17   1.45139508E+06   0.00000000E+00   2.60797838E+08   0.32496716      
  23               3.46736850E-03   2.55972328E-03   162.37831875     4.44636859E-07   1.14180205E+17   1.45139506E+06   0.00000000E+00   2.60065549E+08   0.32437976      
  24               4.07380278E-03   2.92359508E-03   163.30894501     5.04948409E-07   1.29668082E+17   1.45139506E+06   0.00000000E+00   2.59297618E+08   0.3239051       
  25               4.78630092E-03   3.34907034E-03   169.79693242     5.56339354E-07   1.42863165E+17   1.45139503E+06   0.00000000E+00   2.58494865E+08   0.32309623      
  26               5.62341325E-03   3.84645430E-03   170.79479571     6.35227032E-07   1.63121717E+17   1.45139497E+06   0.00000000E+00   2.57658189E+08   0.3225303       
  27               6.60693448E-03   4.42775441E-03   177.25012396     7.04624889E-07   1.80935097E+17   1.45139495E+06   0.00000000E+00   2.56789310E+08   0.3216285       
  28               7.76247117E-03   5.10669511E-03   178.28013670     8.07960780E-07   2.07473585E+17   1.45139533E+06   0.00000000E+00   2.55889485E+08   0.32101104      
  29               9.12010839E-03   5.89885878E-03   185.07732805     8.99140464E-07   2.30855708E+17   1.45139503E+06   0.00000000E+00   2.54960060E+08   0.32000534      
  30               1.07151931E-02   6.82168046E-03   186.37339210     1.03250884E-06   2.65114391E+17   1.45139510E+06   0.00000000E+00   2.54002299E+08   0.31932016      
  31               1.25892541E-02   7.89375591E-03   193.76056442     1.14976435E-06   2.95082967E+17   1.45139507E+06   0.00000000E+00   2.53018278E+08   0.31823905      
  32               1.47910839E-02   9.13337330E-03   195.36144944     1.31850251E-06   3.38624346E+17   1.45139393E+06   0.00000000E+00   2.52011479E+08   0.31747238      
  33               1.73780083E-02   1.05211252E-02   205.24248107     1.45343693E-06   3.71296431E+17   1.45123653E+06   1.58449442E+02   2.51007671E+08   0.31614574      
  34               2.04173794E-02   1.19594598E-02   212.74209132     1.59389385E-06   4.07177696E+17   1.45055402E+06   8.41074050E+02   2.50062670E+08   0.31441448      
  35               2.39883292E-02   1.36279161E-02   222.63703697     1.73553467E-06   4.43361398E+17   1.45062692E+06   7.68209064E+02   2.49059514E+08   0.31261463      
  36               2.81838293E-02   1.55621090E-02   230.99537647     1.91014537E-06   4.87967622E+17   1.45102206E+06   3.73064888E+02   2.47997207E+08   0.31104465      
  37               3.31131121E-02   1.78028996E-02   241.93448946     2.08638385E-06   5.32989676E+17   1.45139515E+06   0.00000000E+00   2.46874747E+08   0.30945934      
  38               3.89045145E-02   2.03980916E-02   250.77669999     2.30623527E-06   5.89153137E+17   1.45139510E+06   0.00000000E+00   2.45691650E+08   0.3082481       
  39               4.57088190E-02   2.34058238E-02   260.31491404     2.54933046E-06   6.51254474E+17   1.45139518E+06   0.00000000E+00   2.44451214E+08   0.30704424      
  40               5.37031796E-02   2.68911154E-02   269.29621941     2.83126040E-06   7.23276574E+17   1.45139508E+06   0.00000000E+00   2.43153927E+08   0.30601786      
  41               6.30957344E-02   3.09285784E-02   279.43605324     3.13818668E-06   8.01684265E+17   1.45139515E+06   0.00000000E+00   2.41799426E+08   0.30499468      
  42               7.41310241E-02   3.56031012E-02   289.45483770     3.48745226E-06   8.90907993E+17   1.45139507E+06   0.00000000E+00   2.40386421E+08   0.30413059      
  43               8.70963590E-02   4.10114544E-02   301.22781566     3.86021375E-06   9.86134013E+17   1.45139509E+06   0.00000000E+00   2.38912394E+08   0.30321072      
  44               1.02329299E-01   4.72590925E-02   314.76468590     4.25697041E-06   1.08748986E+18   1.44865450E+06   2.74056518E+03   2.37371191E+08   0.30252712      
  45               1.20226443E-01   5.44711982E-02   328.23532222     4.70525180E-06   1.20200826E+18   1.44210857E+06   9.28654563E+03   2.35759728E+08   0.30188611      
  46               1.41253754E-01   6.27933278E-02   342.96332292     5.19119183E-06   1.32614698E+18   1.43086228E+06   2.05327897E+04   2.34075855E+08   0.30141293      
  47               1.65958691E-01   7.23935796E-02   357.61890231     5.73959003E-06   1.46624122E+18   1.41377716E+06   3.76178818E+04   2.32317086E+08   0.3009459       
  48               1.94984460E-01   8.34684818E-02   373.63556168     6.33396243E-06   1.61808059E+18   1.38958148E+06   6.18135349E+04   2.30480287E+08   0.30060546      
  49               2.29086765E-01   9.62433646E-02   389.58092993     7.00448336E-06   1.78936504E+18   1.35759623E+06   9.37986463E+04   2.28562360E+08   0.30031771      
  50               2.69153480E-01   1.10975595E-01   407.00554589     7.73090083E-06   1.97493585E+18   1.31809841E+06   1.33296552E+05   2.26560353E+08   0.3001394       
  51               3.16227766E-01   1.27961413E-01   424.35459543     8.54974072E-06   2.18411729E+18   1.27282036E+06   1.78574335E+05   2.24471081E+08   0.29997347      
  52               3.71535229E-01   1.47563985E-01   443.32737866     9.43753064E-06   2.41091368E+18   1.22363423E+06   2.27760772E+05   2.22288816E+08   0.29983541      
  53               4.36515832E-01   1.70241076E-01   462.28077740     1.04414217E-05   2.66737675E+18   1.17161481E+06   2.79779729E+05   2.20004381E+08   0.29968174      
  54               5.12861384E-01   1.96615741E-01   483.14562354     1.15391553E-05   2.94758320E+18   1.11939986E+06   3.31994901E+05   2.17601500E+08   0.29957274      
  55               6.02559586E-01   2.27555111E-01   504.26691936     1.27955134E-05   3.26852608E+18   1.07375391E+06   3.77639456E+05   2.15055275E+08   0.29946622      
  56               7.07945784E-01   2.64369833E-01   527.94575127     1.41987595E-05   3.62700736E+18   1.04064662E+06   4.10747298E+05   2.12323975E+08   0.29935828      
  57               8.31763771E-01   3.08980467E-01   552.62473169     1.58534379E-05   4.04973446E+18   1.01687952E+06   4.34513170E+05   2.09350572E+08   0.2991903       
  58               9.77237221E-01   3.64073374E-01   580.99389565     1.77677983E-05   4.53882240E+18   9.93563652E+05   4.57829989E+05   2.06067956E+08   0.29900264      
  59               1.14815362E+00   4.32783459E-01   611.20637911     2.00767171E-05   5.12871558E+18   9.59000022E+05   4.92392531E+05   2.02429980E+08   0.29875359      
  60               1.34896288E+00   5.18310450E-01   645.65757359     2.27610124E-05   5.81451580E+18   9.07765197E+05   5.43628384E+05   1.98429027E+08   0.2984737       
  61               1.58489319E+00   6.23403473E-01   681.54892304     2.59341106E-05   6.62518518E+18   8.43739938E+05   6.07653247E+05   1.94103451E+08   0.29803621      
  62               1.86208714E+00   7.49913576E-01   720.80039191     2.94979413E-05   7.53567294E+18   7.76353703E+05   6.75040271E+05   1.89529464E+08   0.29753355      
  63               2.18776162E+00   8.98697112E-01   759.90587708     3.35310396E-05   8.56602588E+18   7.18675405E+05   7.32718078E+05   1.84798645E+08   0.29690872      
  64               2.57039578E+00   1.07042263E+00   801.12754673     3.78833221E-05   9.67786268E+18   6.81588726E+05   7.69806414E+05   1.79980405E+08   0.29625964      
  65               3.01995172E+00   1.26637354E+00   841.17865586     4.26843859E-05   1.09043409E+19   6.65238033E+05   7.86155832E+05   1.75107483E+08   0.29535771      
  66               3.54813389E+00   1.48774469E+00   882.93910320     4.77740579E-05   1.22045985E+19   6.66084549E+05   7.85311805E+05   1.70205285E+08   0.29442341      
  67               4.16869383E+00   1.73571890E+00   922.99790355     5.33178889E-05   1.36208596E+19   6.81502127E+05   7.69893238E+05   1.65291972E+08   0.29330786      
  68               4.89778819E+00   2.01208834E+00   964.69381076     5.91362329E-05   1.51071796E+19   7.10273011E+05   7.41124603E+05   1.60370127E+08   0.29227165      
  69               5.75439937E+00   2.32005692E+00   1004.69231581    6.54745105E-05   1.67259733E+19   7.52501512E+05   6.98896583E+05   1.55420801E+08   0.2909916       
  70               6.76082975E+00   2.66359149E+00   1046.73966987    7.21491115E-05   1.84312494E+19   8.06902470E+05   6.44496829E+05   1.50422511E+08   0.28977727      
  71               7.94328235E+00   3.04779706E+00   1087.34757683    7.94715996E-05   2.03022184E+19   8.74799612E+05   5.76602050E+05   1.45348562E+08   0.28829727      
  72               9.33254301E+00   3.47987824E+00   1130.60071720    8.72640036E-05   2.22936219E+19   9.54449161E+05   4.96951750E+05   1.40159980E+08   0.28695359      
  73               1.09647820E+01   3.97050038E+00   1173.08068128    9.59571314E-05   2.45156379E+19   1.05437128E+06   3.97035061E+05   1.34798314E+08   0.28532485      
  74               1.28824955E+01   4.53629825E+00   1219.44170231    1.05455484E-04   2.69442685E+19   1.17387848E+06   2.77524808E+05   1.29173590E+08   0.28386479      
  75               1.51356125E+01   5.19899678E+00   1266.37196265    1.16372049E-04   2.97361063E+19   1.31947221E+06   1.31942795E+05   1.23191250E+08   0.28207787      
  76               1.77827941E+01   5.98689753E+00   1318.71687367    1.28674626E-04   3.28833535E+19   1.45140716E+06   0.00000000E+00   1.16752259E+08   0.28042714      
  77               2.08929613E+01   6.92939695E+00   1370.91979326    1.43245417E-04   3.66108012E+19   1.45144360E+06   0.00000000E+00   1.09809890E+08   0.27837985      
  78               2.45470892E+01   8.04690809E+00   1419.64372656    1.60624435E-04   4.10558940E+19   1.45136944E+06   0.00000000E+00   1.02442501E+08   0.27656365      
  79               2.88403150E+01   9.36118799E+00   1471.06587083    1.80313900E-04   4.60919080E+19   1.45144424E+06   0.00000000E+00   9.47197048E+07   0.27454072      
  80               3.38844156E+01   1.08859560E+01   1520.63811592    2.02838489E-04   5.18521229E+19   1.45141072E+06   0.00000000E+00   8.67467565E+07   0.2727172       
  81               3.98107171E+01   1.26215246E+01   1573.88516996    2.27216156E-04   5.80850832E+19   1.45149840E+06   0.00000000E+00   7.86622506E+07   0.27071446      
  82               4.67735141E+01   1.45452464E+01   1625.95479395    2.53482055E-04   6.47945468E+19   1.45146837E+06   0.00000000E+00   7.06462249E+07   0.26889253      
  83               5.49540874E+01   1.66024086E+01   1681.99939979    2.79784898E-04   7.14942478E+19   1.45142321E+06   0.00000000E+00   6.29211354E+07   0.26684153      
  84               6.45654229E+01   1.87151897E+01   1736.46051262    3.05518865E-04   7.80647839E+19   1.33963629E+06   1.11746997E+05   5.56946146E+07   0.26493584      
  85               7.58577575E+01   2.08175538E+01   1785.90387740    3.30541240E-04   8.44301293E+19   1.17487342E+06   2.76509843E+05   4.90787096E+07   0.26321493      
  86               8.91250938E+01   2.27891681E+01   1828.85312784    3.53565613E-04   9.02558754E+19   9.95214917E+05   4.56325838E+05   4.33111672E+07   0.26172932      
  87               1.04712855E+02   2.45566562E+01   1864.80940706    3.73944120E-04   9.53807250E+19   8.36875396E+05   6.14617987E+05   3.84500530E+07   0.26039415      
  88               1.23026877E+02   2.61142922E+01   1894.87740734    3.91345415E-04   9.98212448E+19   7.50437178E+05   7.01122518E+05   3.43782871E+07   0.2592138       
  89               1.44543977E+02   2.78222800E+01   1926.14933757    4.10157382E-04   1.04623345E+20   6.67874728E+05   7.83705905E+05   3.01151464E+07   0.2581296       
  90               1.69824365E+02   2.91923367E+01   1950.16873523    4.25177773E-04   1.08423272E+20   5.47912190E+05   9.03715796E+05   2.68342114E+07   0.25714441      
  91               1.99526231E+02   3.02171782E+01   1967.48522863    4.36224676E-04   1.11241866E+20   4.83759065E+05   9.68017015E+05   2.44545431E+07   0.25618765      
  92               2.34422882E+02   3.13710417E+01   1986.46379682    4.48548211E-04   1.14386330E+20   4.66047229E+05   9.85804237E+05   2.18460190E+07   0.25530389      
  93               2.75422870E+02   3.26648460E+01   2007.00100493    4.62259560E-04   1.17885086E+20   4.47005138E+05   1.00500619E+06   1.90046920E+07   0.25448873      
  94               3.23593657E+02   3.41099457E+01   2029.23279099    4.77411441E-04   1.21751690E+20   4.27363578E+05   1.02487181E+06   1.59285340E+07   0.25385585      
  95               3.80189396E+02   3.57175185E+01   2053.03988456    4.94084166E-04   1.26011370E+20   3.78492017E+05   1.07370512E+06   1.26185648E+07   0.25330026      
  96               4.46683592E+02   3.68891628E+01   2069.89635676    5.06570885E-04   1.29085077E+20   3.10541030E+05   1.14118560E+06   1.02763536E+07   0.25277024      
  97               5.24807460E+02   3.77214210E+01   2081.56398252    5.15089024E-04   1.31257497E+20   2.77635170E+05   1.17377799E+06   8.64706940E+06   0.25227894      
  98               6.16595002E+02   3.86715600E+01   2094.68410165    5.24747983E-04   1.33720809E+20   2.69638566E+05   1.18180585E+06   6.81951348E+06   0.25174361      
  99               7.24435960E+02   3.97528058E+01   2109.23238755    5.35689046E-04   1.36511486E+20   2.61451839E+05   1.18998063E+06   4.78015891E+06   0.25114318      
  100              8.51138038E+02   4.09821968E+01   2125.43705522    5.48033021E-04   1.39660253E+20   2.53391022E+05   1.19805987E+06   2.51118042E+06   0.2504733       
  101              1.00000000E+03   4.23757582E+01   2143.26071416    5.61939949E-04   1.43208342E+20   2.48756100E+05   1.20270415E+06   0.00000000E+00   0.24973739      
