# ATMO pressure-temperature profile
# Effective temperature = 1300.0K
# log(g) = 4.5cm/s^2
# M/H = 0.0
# Optical depth grid in band 17 (1.20-1.33microns)
# All parameters in cgs units
#
# Model Level      Optical Depth    Pressure         Temperature      Density          Number Density   Rad Flux         Conv Flux        Radial Extension Adiabatic Gradient
#                                   [Ba]             [K]              [g/cm^3]         [/cm^3]          [ergs/s/cm^2/sr] [ergs/s/cm^2/sr] [cm]             [K/Ba]          
  1                5.00000000E-06   1.00000000E-05   436.86924157     6.48981322E-10   1.65796123E+14   1.61937793E+08   0.00000000E+00   2.07912360E+07   0.29746868      
  2                6.05313423E-06   4.25331086E-05   493.70458086     2.44255078E-09   6.24001750E+14   1.61937793E+08   0.00000000E+00   1.99741123E+07   0.29748579      
  3                7.32808679E-06   7.92820770E-05   512.91486363     4.38241365E-09   1.11958114E+15   1.61937793E+08   0.00000000E+00   1.96189175E+07   0.2975896       
  4                8.87157859E-06   1.22229532E-04   532.85912471     6.50350253E-09   1.66145883E+15   1.61937793E+08   0.00000000E+00   1.93645233E+07   0.29905564      
  5                1.07401712E-05   1.72853784E-04   543.12473527     9.02324735E-09   2.30518162E+15   1.61937793E+08   0.00000000E+00   1.91555439E+07   0.29897942      
  6                1.30023396E-05   2.32814215E-04   558.06270675     1.18279625E-08   3.02170686E+15   1.61937793E+08   0.00000000E+00   1.89720049E+07   0.2989162       
  7                1.57409813E-05   3.03989853E-04   565.71167798     1.52351727E-08   3.89215192E+15   1.61937793E+08   0.00000000E+00   1.88043359E+07   0.29884987      
  8                1.90564546E-05   3.88642914E-04   578.53716439     1.90459561E-08   4.86570003E+15   1.61937793E+08   0.00000000E+00   1.86471847E+07   0.29879079      
  9                2.30702555E-05   4.89426821E-04   584.83655891     2.37266569E-08   6.06148580E+15   1.61937793E+08   0.00000000E+00   1.84972606E+07   0.29872714      
  10               2.79294706E-05   6.09540412E-04   596.50937318     2.89713318E-08   7.40135221E+15   1.61937793E+08   0.00000000E+00   1.83523868E+07   0.29867002      
  11               3.38121669E-05   7.52754657E-04   602.07871707     3.54473215E-08   9.05578317E+15   1.61937793E+08   0.00000000E+00   1.82110646E+07   0.29860515      
  12               4.09339169E-05   9.23614432E-04   613.08453302     4.27123403E-08   1.09117948E+16   1.61937793E+08   0.00000000E+00   1.80722064E+07   0.29854651      
  13               4.95556987E-05   1.12750817E-03   618.13042550     5.17157277E-08   1.32119043E+16   1.61937793E+08   0.00000000E+00   1.79350185E+07   0.29848037      
  14               5.99934592E-05   1.37094778E-03   628.70224512     6.18242871E-08   1.57943494E+16   1.61937793E+08   0.00000000E+00   1.77988739E+07   0.29842026      
  15               7.26296922E-05   1.66171779E-03   633.43315804     7.43771937E-08   1.90012563E+16   1.61937793E+08   0.00000000E+00   1.76632769E+07   0.29835032      
  16               8.79274551E-05   2.00915488E-03   643.85743990     8.84721976E-08   2.26021388E+16   1.61937793E+08   0.00000000E+00   1.75278350E+07   0.29828733      
  17               1.06447338E-04   2.42435622E-03   648.46115686     1.05997508E-07   2.70793544E+16   1.61937793E+08   0.00000000E+00   1.73922513E+07   0.29820785      
  18               1.28868005E-04   2.92060907E-03   658.91571060     1.25669120E-07   3.21047584E+16   1.61937792E+08   0.00000000E+00   1.72562818E+07   0.29814138      
  19               1.56011066E-04   3.51368183E-03   663.58560248     1.50124176E-07   3.83522915E+16   1.61937793E+08   0.00000000E+00   1.71197391E+07   0.29805463      
  20               1.88871184E-04   4.22241734E-03   674.26587169     1.77547767E-07   4.53582007E+16   1.61937792E+08   0.00000000E+00   1.69824610E+07   0.29797992      
  21               2.28652526E-04   5.06917201E-03   679.10049030     2.11635454E-07   5.40665706E+16   1.61937793E+08   0.00000000E+00   1.68443253E+07   0.29788249      
  22               2.76812886E-04   6.08062147E-03   690.10669786     2.49813885E-07   6.38201125E+16   1.61937792E+08   0.00000000E+00   1.67052206E+07   0.29779837      
  23               3.35117111E-04   7.28826051E-03   695.33242644     2.97177799E-07   7.59201826E+16   1.61937793E+08   0.00000000E+00   1.65650617E+07   0.29768874      
  24               4.05701771E-04   8.72959928E-03   706.89165507     3.50129061E-07   8.94473118E+16   1.61937792E+08   0.00000000E+00   1.64237610E+07   0.29759103      
  25               4.91153455E-04   1.04487593E-02   712.68735510     4.15673732E-07   1.06191929E+17   1.61937794E+08   0.00000000E+00   1.62812574E+07   0.29744039      
  26               5.94603558E-04   1.24981404E-02   725.01715333     4.88745855E-07   1.24859893E+17   1.61937791E+08   0.00000000E+00   1.61374752E+07   0.29737994      
  27               7.19843029E-04   1.49388842E-02   731.76235012     5.78807520E-07   1.47867912E+17   1.61937795E+08   0.00000000E+00   1.59923598E+07   0.29723459      
  28               8.71461295E-04   1.78435759E-02   745.22053444     6.78862515E-07   1.73429479E+17   1.61937790E+08   0.00000000E+00   1.58458244E+07   0.29705741      
  29               1.05501444E-03   2.12963423E-02   753.17120783     8.01670597E-07   2.04803394E+17   1.61937796E+08   0.00000000E+00   1.56978188E+07   0.29684624      
  30               1.27722880E-03   2.53982765E-02   768.02176446     9.37590889E-07   2.39528149E+17   1.61937788E+08   0.00000000E+00   1.55482005E+07   0.29666038      
  31               1.54624747E-03   3.02681998E-02   777.60855390     1.10358973E-06   2.81936564E+17   1.61937797E+08   0.00000000E+00   1.53968055E+07   0.29644092      
  32               1.87192870E-03   3.60506935E-02   794.27079589     1.28683800E-06   3.28753866E+17   1.61937786E+08   0.00000000E+00   1.52433613E+07   0.29624103      
  33               2.26620714E-03   4.29127904E-02   805.81888074     1.50982488E-06   3.85722663E+17   1.61937799E+08   0.00000000E+00   1.50876817E+07   0.29597452      
  34               2.74353120E-03   5.10634834E-02   824.63262938     1.75558464E-06   4.48513750E+17   1.61937783E+08   0.00000000E+00   1.49293666E+07   0.29566278      
  35               3.32139252E-03   6.07453782E-02   838.61133460     2.05362204E-06   5.24660480E+17   1.61937802E+08   0.00000000E+00   1.47681203E+07   0.29525073      
  36               4.02096694E-03   7.22800840E-02   859.98513700     2.38278822E-06   6.08770421E+17   1.61937781E+08   0.00000000E+00   1.46032254E+07   0.29485513      
  37               4.86789053E-03   8.60465165E-02   876.68445726     2.78253726E-06   7.10911968E+17   1.61937803E+08   0.00000000E+00   1.44341580E+07   0.29441041      
  38               5.89319895E-03   1.02583635E-01   900.85965297     3.22816829E-06   8.24796454E+17   1.61937779E+08   0.00000000E+00   1.42596690E+07   0.29394266      
  39               7.13446485E-03   1.22543218E-01   920.61078043     3.77347791E-06   9.64137700E+17   1.61937804E+08   0.00000000E+00   1.40788241E+07   0.29334317      
  40               8.63717467E-03   1.46906561E-01   947.96281683     4.39284869E-06   1.12247255E+18   1.61937779E+08   0.00000000E+00   1.38895884E+07   0.29269421      
  41               1.04563955E-02   1.76912117E-01   971.15953887     5.16344124E-06   1.31944970E+18   1.61937806E+08   0.00000000E+00   1.36903543E+07   0.29192225      
  42               1.26587931E-02   2.14391928E-01   1002.42003400    6.06162473E-06   1.54911811E+18   1.61937775E+08   0.00000000E+00   1.34784959E+07   0.29111966      
  43               1.53250748E-02   2.61637521E-01   1030.00113940    7.19884528E-06   1.83987433E+18   1.61937810E+08   0.00000000E+00   1.32523227E+07   0.29020194      
  44               1.85529469E-02   3.21835686E-01   1066.22926753    8.55341968E-06   2.18629841E+18   1.61937771E+08   0.00000000E+00   1.30097208E+07   0.28922612      
  45               2.24606956E-02   3.98889913E-01   1099.34416311    1.02812383E-05   2.62812017E+18   1.61937818E+08   0.00000000E+00   1.27498787E+07   0.28809612      
  46               2.71915211E-02   4.97632785E-01   1141.44584766    1.23521039E-05   3.15776285E+18   1.61937761E+08   0.00000000E+00   1.24727878E+07   0.28687844      
  47               3.29187854E-02   6.23736130E-01   1180.34157891    1.49711701E-05   3.82753381E+18   1.61937834E+08   0.00000000E+00   1.21795415E+07   0.28546977      
  48               3.98523653E-02   7.83151343E-01   1227.59643908    1.80727695E-05   4.62078665E+18   1.61937738E+08   0.00000000E+00   1.18730660E+07   0.28391882      
  49               4.82463432E-02   9.81644199E-01   1270.46100559    2.18882479E-05   5.59652701E+18   1.61937866E+08   0.00000000E+00   1.15574715E+07   0.28220831      
  50               5.84083183E-02   1.22403197E+00   1320.45816571    2.62584528E-05   6.71419506E+18   1.61937686E+08   0.00000000E+00   1.12377486E+07   0.28052126      
  51               7.07106781E-02   1.51435284E+00   1364.99643934    3.14258600E-05   8.03565713E+18   1.61937957E+08   0.00000000E+00   1.09181525E+07   0.27882551      
  52               8.56042452E-02   1.85517455E+00   1416.16535703    3.71068996E-05   9.48848009E+18   1.61937595E+08   0.00000000E+00   1.06025370E+07   0.27716723      
  53               1.03634797E-01   2.25060331E+00   1462.10526825    4.36016672E-05   1.11492628E+19   1.61938098E+08   0.00000000E+00   1.02916583E+07   0.27534776      
  54               1.25463068E-01   2.70208174E+00   1514.91642585    5.05251935E-05   1.29192008E+19   1.61937423E+08   0.00000000E+00   9.98747396E+06   0.27351233      
  55               1.51888958E-01   3.19735186E+00   1562.23624841    5.80015536E-05   1.48241418E+19   1.61938257E+08   0.00000000E+00   9.69813641E+06   0.27161501      
  56               1.83880850E-01   3.72678896E+00   1615.47524196    6.53789185E-05   1.67093799E+19   1.61937160E+08   0.00000000E+00   9.42625627E+06   0.26972819      
  57               2.22611093E-01   4.28250882E+00   1662.96663655    7.29924504E-05   1.86526512E+19   1.61938151E+08   0.00000000E+00   9.17186367E+06   0.26782262      
  58               2.69498965E-01   4.81926065E+00   1715.83239828    7.96433973E-05   2.03437678E+19   1.60388365E+08   1.56518884E+06   8.94923820E+06   0.26589239      
  59               3.26262682E-01   5.27646945E+00   1757.86557450    8.52329267E-05   2.17412048E+19   1.54746892E+08   7.19011643E+06   8.77373302E+06   0.26392127      
  60               3.94982361E-01   5.64841199E+00   1789.25271094    8.96391882E-05   2.28654905E+19   1.49037645E+08   1.28970254E+07   8.63917072E+06   0.26225052      
  61               4.78176250E-01   6.06837377E+00   1823.52818834    9.44906993E-05   2.41038092E+19   1.42899465E+08   1.90790519E+07   8.49487065E+06   0.26088723      
  62               5.78893005E-01   6.42932319E+00   1850.73574593    9.86683112E-05   2.51620884E+19   1.36501633E+08   2.54353344E+07   8.37665341E+06   0.25962058      
  63               7.00823412E-01   6.72082595E+00   1872.52400967    1.01940104E-04   2.59968719E+19   1.30622838E+08   3.12795253E+07   8.28473946E+06   0.258513        
  64               8.48435636E-01   7.05501110E+00   1895.70840288    1.05698215E-04   2.69557864E+19   1.24456571E+08   3.74935774E+07   8.18293169E+06   0.25744687      
  65               1.02713896E+00   7.43606017E+00   1921.91999705    1.09881078E-04   2.80242133E+19   1.17131512E+08   4.49572067E+07   8.07112035E+06   0.25675255      
  66               1.24348200E+00   7.73091293E+00   1940.76909663    1.13221908E-04   2.88524537E+19   1.10008542E+08   5.19904371E+07   7.98751685E+06   0.25618445      
  67               1.50539269E+00   7.95290359E+00   1955.29409524    1.15605955E-04   2.94604562E+19   1.04134439E+08   5.77620883E+07   7.92615768E+06   0.25563648      
  68               1.82246880E+00   8.21160511E+00   1970.93095212    1.18417210E-04   3.01774463E+19   9.87739234E+07   6.31247781E+07   7.85623766E+06   0.25493147      
  69               2.20632965E+00   8.51195875E+00   1989.45531520    1.21602616E-04   3.09899704E+19   9.34847394E+07   6.84165287E+07   7.77708706E+06   0.254212        
  70               2.67104190E+00   8.85760304E+00   2009.24419348    1.25290859E-04   3.19307655E+19   8.80567952E+07   7.38472601E+07   7.68853505E+06   0.25327601      
  71               3.23363503E+00   9.25385738E+00   2032.01659086    1.29424146E-04   3.29853724E+19   8.27777477E+07   7.91291340E+07   7.59013237E+06   0.2523223       
  72               3.91472538E+00   9.70877355E+00   2056.30832024    1.34176632E-04   3.41981001E+19   7.76608918E+07   8.42487849E+07   7.48096683E+06   0.25112828      
  73               4.73927163E+00   1.02287942E+01   2083.78429486    1.39491650E-04   3.55547410E+19   7.26130178E+07   8.92993514E+07   7.36076573E+06   0.24989137      
  74               5.73748947E+00   1.08207889E+01   2112.79739669    1.45528800E-04   3.70959852E+19   6.75574383E+07   9.43574825E+07   7.22937349E+06   0.24836793      
  75               6.94595877E+00   1.14921410E+01   2144.94178796    1.52228919E-04   3.88071077E+19   6.25783420E+07   9.93389444E+07   7.08673787E+06   0.2467995       
  76               8.40896415E+00   1.22507890E+01   2178.52645503    1.59760780E-04   4.07311864E+19   5.76440766E+07   1.04275378E+08   6.93290208E+06   0.24495557      
  77               1.01801177E+01   1.31053597E+01   2215.08810173    1.68063533E-04   4.28532517E+19   5.28733337E+07   1.09048046E+08   6.76798060E+06   0.24306007      
  78               1.23243238E+01   1.40652293E+01   2252.90847657    1.77319258E-04   4.52198488E+19   4.82233319E+07   1.13699761E+08   6.59214828E+06   0.24077239      
  79               1.49201573E+01   1.51407474E+01   2293.44512536    1.87470557E-04   4.78172724E+19   4.38006487E+07   1.18123942E+08   6.40560708E+06   0.2384132       
  80               1.80627429E+01   1.63427866E+01   2334.98700240    1.98732537E-04   5.06952748E+19   3.95430860E+07   1.22382788E+08   6.20866778E+06   0.23567746      
  81               2.18672415E+01   1.76840202E+01   2378.93325440    2.11016421E-04   5.38424216E+19   3.56759493E+07   1.26250967E+08   6.00155162E+06   0.23294189      
  82               2.64730696E+01   1.91788477E+01   2423.67493147    2.24563260E-04   5.73157500E+19   3.20542572E+07   1.29873510E+08   5.78439852E+06   0.22971742      
  83               3.20490087E+01   2.08427517E+01   2470.46877380    2.39339789E-04   6.11084863E+19   2.87508732E+07   1.33177433E+08   5.55743589E+06   0.22671057      
  84               3.87993903E+01   2.26929385E+01   2517.91414284    2.55573560E-04   6.52793255E+19   2.56069019E+07   1.36321691E+08   5.32086933E+06   0.22315969      
  85               4.69715834E+01   2.47489721E+01   2567.01681752    2.73270116E-04   6.98319696E+19   2.28103612E+07   1.39118369E+08   5.07484398E+06   0.21993499      
  86               5.68650599E+01   2.70325378E+01   2616.71379911    2.92661165E-04   7.48266727E+19   2.02066756E+07   1.41722106E+08   4.81949217E+06   0.21615652      
  87               6.88423680E+01   2.95681106E+01   2667.66571307    3.13808055E-04   8.02819673E+19   1.79146466E+07   1.44014122E+08   4.55490669E+06   0.21275477      
  88               8.33424188E+01   3.23825253E+01   2719.20706929    3.36934931E-04   8.62569847E+19   1.58257928E+07   1.46103038E+08   4.28119843E+06   0.2088657       
  89               1.00896570E+02   3.55056503E+01   2771.60744368    3.62170457E-04   9.27879527E+19   1.39944597E+07   1.47934563E+08   3.99847281E+06   0.2053483       
  90               1.22148096E+02   3.89701315E+01   2824.60362536    3.89722278E-04   9.99309921E+19   1.23282672E+07   1.49601217E+08   3.70685787E+06   0.20148035      
  91               1.47875764E+02   4.28120508E+01   2878.10453136    4.19794861E-04   1.07742068E+20   1.08537345E+07   1.51076541E+08   3.40648680E+06   0.19805763      
  92               1.79022369E+02   4.70704221E+01   2932.25828367    4.52564411E-04   1.16271081E+20   9.52313707E+06   1.52408344E+08   3.09753469E+06   0.19452125      
  93               2.16729286E+02   5.17877311E+01   2986.66541721    4.88309636E-04   1.25593207E+20   8.33819687E+06   1.53595127E+08   2.78020323E+06   0.19132471      
  94               2.62378292E+02   5.70093457E+01   3041.73037332    5.27179564E-04   1.35753546E+20   7.27091885E+06   1.54665154E+08   2.45475277E+06   0.18795692      
  95               3.17642204E+02   6.27790934E+01   3096.69306912    5.69502926E-04   1.46839439E+20   6.33070931E+06   1.55608745E+08   2.12175859E+06   0.18498146      
  96               3.84546179E+02   6.91401603E+01   3152.24402584    6.15308640E-04   1.58867987E+20   5.50927056E+06   1.56433882E+08   1.78194333E+06   0.18194874      
  97               4.65541927E+02   7.61387991E+01   3207.33519196    6.65000371E-04   1.71944193E+20   4.79066476E+06   1.57156493E+08   1.43595344E+06   0.17925801      
  98               5.63597555E+02   8.38244752E+01   3262.97340412    7.18544634E-04   1.86072910E+20   4.16610584E+06   1.57785371E+08   1.08435105E+06   0.17670891      
  99               6.82306330E+02   9.22507790E+01   3317.99675036    7.76438567E-04   2.01381664E+20   3.61469896E+06   1.58341338E+08   7.27601000E+05   0.17436473      
  100              8.26018359E+02   1.01476206E+02   3373.53373795    8.38627986E-04   2.17873798E+20   3.13683172E+06   1.58823922E+08   3.66061430E+05   0.17225932      
  101              1.00000000E+03   1.11564599E+02   3428.44693330    9.05693626E-04   2.35697414E+20   2.89632883E+06   1.59067902E+08   0.00000000E+00   0.17035545      
