# ATMO pressure-temperature profile
# Effective temperature = 1000.0K
# log(g) = 3.5cm/s^2
# M/H = 0.0
# Optical depth grid in band 17 (1.20-1.33microns)
# All parameters in cgs units
#
# Model Level      Optical Depth    Pressure         Temperature      Density          Number Density   Rad Flux         Conv Flux        Radial Extension Adiabatic Gradient
#                                   [Ba]             [K]              [g/cm^3]         [/cm^3]          [ergs/s/cm^2/sr] [ergs/s/cm^2/sr] [cm]             [K/Ba]          
  1                5.00000000E-05   1.00000000E-05   330.65355751     8.57441020E-10   2.19054732E+14   5.66987763E+07   0.00000000E+00   1.62429136E+08   0.30022485      
  2                5.91534807E-05   4.23435641E-05   379.28530533     3.16517205E-09   8.08625127E+14   5.66987763E+07   0.00000000E+00   1.56220615E+08   0.29815152      
  3                6.99826855E-05   7.90968697E-05   406.50585549     5.51655577E-09   1.40934828E+15   5.66987763E+07   0.00000000E+00   1.53439213E+08   0.29778508      
  4                8.27943887E-05   1.21305260E-04   418.81358781     8.21172850E-09   2.09789964E+15   5.66987763E+07   0.00000000E+00   1.51456099E+08   0.29977264      
  5                9.79515255E-05   1.70050953E-04   435.21253405     1.10780046E-08   2.83011130E+15   5.66987762E+07   0.00000000E+00   1.49839921E+08   0.29968474      
  6                1.15883473E-04   2.26559091E-04   442.66193441     1.45108626E-08   3.70710729E+15   5.66987762E+07   0.00000000E+00   1.48430524E+08   0.29959195      
  7                1.37098216E-04   2.92328308E-04   454.39546454     1.82398276E-08   4.65975116E+15   5.66987762E+07   0.00000000E+00   1.47152127E+08   0.29954281      
  8                1.62196734E-04   3.68999052E-04   459.60280744     2.27628422E-08   5.81525036E+15   5.66987762E+07   0.00000000E+00   1.45962239E+08   0.29948233      
  9                1.91890027E-04   4.58469598E-04   469.96265541     2.76586546E-08   7.06599023E+15   5.66987762E+07   0.00000000E+00   1.44834648E+08   0.29944922      
  10               2.27019260E-04   5.62939522E-04   474.29529887     3.36509130E-08   8.59683834E+15   5.66987762E+07   0.00000000E+00   1.43751776E+08   0.2994          
  11               2.68579588E-04   6.84967573E-04   484.15640935     4.01114358E-08   1.02473169E+16   5.66987760E+07   0.00000000E+00   1.42701443E+08   0.29937175      
  12               3.17748350E-04   8.27528025E-04   488.17433614     4.80608803E-08   1.22781690E+16   5.66987763E+07   0.00000000E+00   1.41674682E+08   0.29932694      
  13               3.75918418E-04   9.94084568E-04   497.92234923     5.66038041E-08   1.44606412E+16   5.66987759E+07   0.00000000E+00   1.40664864E+08   0.29930139      
  14               4.44737657E-04   1.18867189E-03   501.81102514     6.71592402E-08   1.71572482E+16   5.66987764E+07   0.00000000E+00   1.39666845E+08   0.29925789      
  15               5.26155608E-04   1.41598964E-03   511.56234947     7.84775505E-08   2.00487520E+16   5.66987757E+07   0.00000000E+00   1.38676680E+08   0.29923222      
  16               6.22478712E-04   1.68153831E-03   515.52606563     9.24783655E-08   2.36255527E+16   5.66987765E+07   0.00000000E+00   1.37690965E+08   0.2991886       
  17               7.36435649E-04   1.99176167E-03   525.44986314     1.07470693E-07   2.74556624E+16   5.66987754E+07   0.00000000E+00   1.36706933E+08   0.29916116      
  18               8.71254639E-04   2.35415091E-03   529.61200316     1.26026104E-07   3.21960297E+16   5.66987767E+07   0.00000000E+00   1.35722241E+08   0.29911556      
  19               1.03075489E-03   2.77743102E-03   539.82338460     1.45873221E-07   3.72663989E+16   5.66987751E+07   0.00000000E+00   1.34735031E+08   0.29908463      
  20               1.21945479E-03   3.27171383E-03   544.35846184     1.70401880E-07   4.35327568E+16   5.66987769E+07   0.00000000E+00   1.33743627E+08   0.29903453      
  21               1.44269991E-03   3.84876119E-03   555.01190491     1.96608675E-07   5.02278403E+16   5.66987749E+07   0.00000000E+00   1.32746678E+08   0.29899973      
  22               1.70681442E-03   4.52218438E-03   560.00440775     2.28950128E-07   5.84901398E+16   5.66987771E+07   0.00000000E+00   1.31742950E+08   0.29894312      
  23               2.01928028E-03   5.30774495E-03   571.24391725     2.63434394E-07   6.72998811E+16   5.66987744E+07   0.00000000E+00   1.30731433E+08   0.29890096      
  24               2.38894914E-03   6.22358259E-03   576.91039892     3.05855407E-07   7.81372153E+16   5.66987775E+07   0.00000000E+00   1.29711142E+08   0.29883445      
  25               2.82629313E-03   7.29059797E-03   589.02704638     3.50923075E-07   8.96507141E+16   5.66987737E+07   0.00000000E+00   1.28681214E+08   0.29878293      
  26               3.34370152E-03   8.53273058E-03   595.60301163     4.06176889E-07   1.03766457E+17   5.66987782E+07   0.00000000E+00   1.27640805E+08   0.29870215      
  27               3.95583167E-03   9.97745042E-03   608.75116462     4.64690472E-07   1.18715004E+17   5.66987727E+07   0.00000000E+00   1.26589220E+08   0.29863406      
  28               4.68002425E-03   1.16558627E-02   616.52266358     5.36018069E-07   1.36937128E+17   5.66987791E+07   0.00000000E+00   1.25525746E+08   0.29854976      
  29               5.53679448E-03   1.36036153E-02   631.09959218     6.11139586E-07   1.56128535E+17   5.66987716E+07   0.00000000E+00   1.24449593E+08   0.29847864      
  30               6.55041330E-03   1.58619301E-02   640.49524105     7.02140846E-07   1.79376673E+17   5.66987799E+07   0.00000000E+00   1.23359403E+08   0.29833725      
  31               7.74959494E-03   1.84779213E-02   656.78567626     7.97651963E-07   2.03777054E+17   5.66987706E+07   0.00000000E+00   1.22254008E+08   0.29820821      
  32               9.16831029E-03   2.15041832E-02   668.06985014     9.12610881E-07   2.33145436E+17   5.66987804E+07   0.00000000E+00   1.21132359E+08   0.29804169      
  33               1.08467493E-02   2.49999994E-02   686.37481472     1.03267338E-06   2.63818046E+17   5.66987696E+07   0.00000000E+00   1.19993620E+08   0.29788418      
  34               1.28324595E-02   2.90303402E-02   699.96386332     1.17588175E-06   3.00401672E+17   5.66987812E+07   0.00000000E+00   1.18837031E+08   0.29765789      
  35               1.51816929E-02   3.36679340E-02   720.59332983     1.32468602E-06   3.38416920E+17   5.66987688E+07   0.00000000E+00   1.17661986E+08   0.29743454      
  36               1.79609996E-02   3.89911632E-02   736.64762240     1.50070529E-06   3.83382459E+17   5.66987810E+07   0.00000000E+00   1.16468076E+08   0.29714312      
  37               2.12491128E-02   4.50885221E-02   759.70419339     1.68271102E-06   4.29880075E+17   5.66987689E+07   0.00000000E+00   1.15254715E+08   0.29685732      
  38               2.51391797E-02   5.20605948E-02   778.41818520     1.89619503E-06   4.84419918E+17   5.66987809E+07   0.00000000E+00   1.14020428E+08   0.29644867      
  39               2.97413996E-02   6.00415718E-02   804.22295826     2.11669842E-06   5.40756098E+17   5.66987685E+07   0.00000000E+00   1.12760670E+08   0.29600335      
  40               3.51861462E-02   6.91896203E-02   825.78312219     2.37549269E-06   6.06877148E+17   5.66987813E+07   0.00000000E+00   1.11470567E+08   0.29544521      
  41               4.16276604E-02   7.97408329E-02   854.51623647     2.64561939E-06   6.75905979E+17   5.66987683E+07   0.00000000E+00   1.10139594E+08   0.29491481      
  42               4.92484201E-02   9.20127602E-02   879.40795600     2.96626165E-06   7.57850442E+17   5.66987816E+07   0.00000000E+00   1.08754268E+08   0.29426218      
  43               5.82643093E-02   1.06592423E-01   911.99350434     3.31331347E-06   8.46565230E+17   5.66987687E+07   0.00000000E+00   1.07283535E+08   0.29356001      
  44               6.89307339E-02   1.24326915E-01   941.19007437     3.74432871E-06   9.56783459E+17   5.66987813E+07   0.00000000E+00   1.05691263E+08   0.29264736      
  45               8.15498567E-02   1.46748677E-01   978.71969642     4.24948610E-06   1.08602971E+18   5.66987694E+07   0.00000000E+00   1.03913616E+08   0.2916658       
  46               9.64791575E-02   1.75892529E-01   1013.49207629    4.91805633E-06   1.25705093E+18   5.66987825E+07   0.00000000E+00   1.01897570E+08   0.29049416      
  47               1.14141560E-01   2.14497003E-01   1056.29176267    5.75364906E-06   1.47083236E+18   5.66987660E+07   0.00000000E+00   9.96025217E+07   0.28932669      
  48               1.35037411E-01   2.65400961E-01   1095.35656040    6.86459568E-06   1.75498261E+18   5.66987887E+07   0.00000000E+00   9.70410936E+07   0.28797599      
  49               1.59758657E-01   3.31092220E-01   1140.58141198    8.22347537E-06   2.10256062E+18   5.66987607E+07   0.00000000E+00   9.42761769E+07   0.28661182      
  50               1.89005613E-01   4.13567371E-01   1180.28980754    9.92592808E-06   2.53795227E+18   5.66987961E+07   0.00000000E+00   9.13893998E+07   0.28510644      
  51               2.23606798E-01   5.14311220E-01   1225.23646010    1.18905391E-05   3.04040842E+18   5.66987494E+07   0.00000000E+00   8.84569148E+07   0.28360093      
  52               2.64542408E-01   6.34785657E-01   1264.33450155    1.42216809E-05   3.63656166E+18   5.66988124E+07   0.00000000E+00   8.55272366E+07   0.28195819      
  53               3.12972084E-01   7.75991252E-01   1309.07524276    1.67906741E-05   4.29356513E+18   5.66987264E+07   0.00000000E+00   8.26375949E+07   0.2803867       
  54               3.70267763E-01   9.39001705E-01   1348.46838954    1.97240637E-05   5.04372559E+18   5.66988507E+07   0.00000000E+00   7.98050037E+07   0.2788514       
  55               4.38052539E-01   1.12466839E+00   1393.83033058    2.28550031E-05   5.84440655E+18   5.66986640E+07   0.00000000E+00   7.70396778E+07   0.27751837      
  56               5.18246648E-01   1.33431613E+00   1433.83392587    2.63590096E-05   6.74040082E+18   5.66988680E+07   0.00000000E+00   7.43386062E+07   0.27594203      
  57               6.13121862E-01   1.56849952E+00   1479.95372021    3.00202978E-05   7.67647951E+18   5.66985611E+07   0.00000000E+00   7.17059969E+07   0.27434189      
  58               7.25365844E-01   1.82631728E+00   1520.86661006    3.40173038E-05   8.69783053E+18   5.66991456E+07   0.00000000E+00   6.91547032E+07   0.27263306      
  59               8.58158289E-01   2.09995730E+00   1567.88103323    3.79563694E-05   9.70114951E+18   5.66984954E+07   0.00000000E+00   6.67464040E+07   0.27103524      
  60               1.01526100E+00   2.38483730E+00   1610.03767960    4.19794448E-05   1.07287359E+19   5.66991284E+07   0.00000000E+00   6.44895443E+07   0.26935431      
  61               1.20112443E+00   2.67167700E+00   1659.85385715    4.56263481E-05   1.16584265E+19   5.57688826E+07   9.34787498E+05   6.24169203E+07   0.2677457       
  62               1.42101382E+00   2.93379588E+00   1701.86735159    4.88934793E-05   1.24861925E+19   5.15495491E+07   5.15602345E+06   6.06618859E+07   0.26586034      
  63               1.68115827E+00   3.14835145E+00   1733.90834995    5.15569169E-05   1.31517307E+19   4.68678511E+07   9.83645921E+06   5.93104263E+07   0.26428493      
  64               1.98892727E+00   3.36916350E+00   1765.25704347    5.41915116E-05   1.38241989E+19   4.24748437E+07   1.42274420E+07   5.79893927E+07   0.26288255      
  65               2.35303941E+00   3.55773742E+00   1790.53820687    5.64350370E-05   1.43918339E+19   3.86957725E+07   1.80027918E+07   5.69110295E+07   0.26167356      
  66               2.78380943E+00   3.70307521E+00   1809.45538271    5.81256583E-05   1.48231497E+19   3.58746484E+07   2.08213244E+07   5.61085752E+07   0.26054         
  67               3.29344035E+00   3.86712982E+00   1829.86771741    6.00227540E-05   1.53071697E+19   3.35975523E+07   2.30995420E+07   5.52302676E+07   0.2595446       
  68               3.89636920E+00   4.05159351E+00   1852.19760616    6.21265938E-05   1.58439837E+19   3.13631509E+07   2.53488155E+07   5.42750237E+07   0.25853857      
  69               4.60967600E+00   4.25816035E+00   1876.01386235    6.44614174E-05   1.64403783E+19   2.85868062E+07   2.81500728E+07   5.32428041E+07   0.25788225      
  70               5.45356761E+00   4.41679673E+00   1893.88635988    6.62872659E-05   1.68919325E+19   2.57532997E+07   3.09603198E+07   5.24752923E+07   0.25734898      
  71               6.45195012E+00   4.53452749E+00   1906.62302049    6.75985839E-05   1.72263412E+19   2.37816961E+07   3.29017306E+07   5.19191241E+07   0.25682386      
  72               7.63310614E+00   4.66903436E+00   1921.09544945    6.90782296E-05   1.76037003E+19   2.23665255E+07   3.43181211E+07   5.12966730E+07   0.25617513      
  73               9.03049593E+00   4.82210216E+00   1936.89647644    7.07593948E-05   1.80324957E+19   2.11166717E+07   3.55693529E+07   5.06043301E+07   0.25550438      
  74               1.06837053E+01   4.99580547E+00   1954.59104328    7.26428771E-05   1.85129426E+19   1.99248675E+07   3.67627357E+07   4.98381698E+07   0.25466274      
  75               1.26395671E+01   5.19173179E+00   1973.67492295    7.47596958E-05   1.90529604E+19   1.86998744E+07   3.79890131E+07   4.89974279E+07   0.25380841      
  76               1.49534878E+01   5.41139570E+00   1994.64106314    7.71010860E-05   1.96503539E+19   1.75136023E+07   3.91759458E+07   4.80824829E+07   0.252732        
  77               1.76910170E+01   5.65736753E+00   2016.99051186    7.97091258E-05   2.03159146E+19   1.64592849E+07   4.02309523E+07   4.70902780E+07   0.25163079      
  78               2.09297047E+01   5.93338697E+00   2041.40487965    8.25940075E-05   2.10522910E+19   1.55102861E+07   4.11809260E+07   4.60145271E+07   0.25030823      
  79               2.47612977E+01   6.24217102E+00   2067.27476284    8.57997186E-05   2.18707310E+19   1.45779532E+07   4.21141327E+07   4.48545803E+07   0.24893718      
  80               2.92943389E+01   6.58661284E+00   2095.18171846    8.93216070E-05   2.27701704E+19   1.36640904E+07   4.30287677E+07   4.36103659E+07   0.24732889      
  81               3.46572422E+01   6.96981245E+00   2124.43067791    9.32087176E-05   2.37631696E+19   1.27580022E+07   4.39355406E+07   4.22823014E+07   0.24563079      
  82               4.10019301E+01   7.39512392E+00   2155.62768625    9.74549115E-05   2.48483492E+19   1.18787727E+07   4.48153758E+07   4.08711366E+07   0.24366219      
  83               4.85081376E+01   7.86619325E+00   2187.99520130    1.02116623E-04   2.60401863E+19   1.10238968E+07   4.56707626E+07   3.93778757E+07   0.24173872      
  84               5.73885036E+01   8.38696477E+00   2222.22468935    1.07184122E-04   2.73364862E+19   1.01954217E+07   4.64996608E+07   3.78037663E+07   0.23942262      
  85               6.78945948E+01   8.96174721E+00   2257.38342398    1.12726516E-04   2.87549884E+19   9.38997452E+06   4.73054616E+07   3.61501813E+07   0.23711605      
  86               8.03240320E+01   9.59522683E+00   2294.29053685    1.18728618E-04   3.02923295E+19   8.60114705E+06   4.80945856E+07   3.44185977E+07   0.23437002      
  87               9.50289215E+01   1.02921498E+01   2331.81990492    1.25285669E-04   3.19695803E+19   7.82687286E+06   4.88690947E+07   3.26115440E+07   0.23159127      
  88               1.12425830E+02   1.10581410E+01   2370.94527039    1.32352089E-04   3.37820836E+19   7.11821823E+06   4.95779269E+07   3.07304533E+07   0.22868324      
  89               1.33007583E+02   1.18996936E+01   2410.51411075    1.40042670E-04   3.57562479E+19   6.45047789E+06   5.02458111E+07   2.87757179E+07   0.22557156      
  90               1.57357229E+02   1.28235001E+01   2451.50119467    1.48337402E-04   3.78878803E+19   5.83271105E+06   5.08636532E+07   2.67488374E+07   0.22243225      
  91               1.86164557E+02   1.38368884E+01   2492.75939387    1.57346615E-04   4.02053563E+19   5.24221556E+06   5.14541705E+07   2.46512275E+07   0.21907882      
  92               2.20245630E+02   1.49481102E+01   2535.23989106    1.67056607E-04   4.27064105E+19   4.70772871E+06   5.19886694E+07   2.24838055E+07   0.21574606      
  93               2.60565913E+02   1.61661228E+01   2577.85496731    1.77590376E-04   4.54227299E+19   4.21752710E+06   5.24788723E+07   2.02475898E+07   0.21229758      
  94               3.08267614E+02   1.75007833E+01   2621.53707652    1.88938044E-04   4.83534340E+19   3.77944713E+06   5.29169454E+07   1.79434689E+07   0.20883797      
  95               3.64702046E+02   1.89628426E+01   2665.20783863    2.01239300E-04   5.15345156E+19   3.37802196E+06   5.33183822E+07   1.55723522E+07   0.20532573      
  96               4.31467909E+02   2.05640232E+01   2709.81596768    2.14485718E-04   5.49659991E+19   3.01751042E+06   5.36789561E+07   1.31351636E+07   0.20174566      
  97               5.10456573E+02   2.23170418E+01   2754.23988085    2.28839356E-04   5.86895397E+19   2.68923123E+06   5.40073650E+07   1.06329377E+07   0.19832247      
  98               6.03905660E+02   2.42356048E+01   2799.56014043    2.44281039E-04   6.27032281E+19   2.39422916E+06   5.43025783E+07   8.06685425E+06   0.19484016      
  99               7.14462436E+02   2.63344856E+01   2844.51987688    2.61004786E-04   6.70566272E+19   2.12683757E+06   5.45702773E+07   5.43825952E+06   0.19166846      
  100              8.45258798E+02   2.86294470E+01   2890.40850198    2.78967848E-04   7.17430066E+19   1.88846063E+06   5.48090644E+07   2.74871044E+06   0.18849926      
  101              1.00000000E+03   3.11373054E+01   2935.78263364    2.98403930E-04   7.68215328E+19   1.76039660E+06   5.49373460E+07   0.00000000E+00   0.18549017      
