# ATMO pressure-temperature profile
# Effective temperature = 250.0K
# log(g) = 5.0cm/s^2
# M/H = 0.0
# Optical depth grid in band 17 (1.20-1.33microns)
# All parameters in cgs units
#
# Model Level      Optical Depth    Pressure         Temperature      Density          Number Density   Rad Flux         Conv Flux        Radial Extension Adiabatic Gradient
#                                   [Ba]             [K]              [g/cm^3]         [/cm^3]          [ergs/s/cm^2/sr] [ergs/s/cm^2/sr] [cm]             [K/Ba]          
  1                5.00000000E-07   1.00000000E-05   38.26051784      7.36642145E-09   1.89310628E+15   2.21392590E+05   0.00000000E+00   2.10949896E+06   0.34582131      
  2                6.19412983E-07   7.01634260E-05   37.51965028      5.27059216E-08   1.35449637E+16   2.21392590E+05   0.00000000E+00   2.07896560E+06   0.34582131      
  3                7.67344888E-07   1.44620467E-04   40.85638488      9.97647754E-08   2.56386800E+16   2.21392590E+05   0.00000000E+00   2.06869757E+06   0.3147938       
  4                9.50606773E-07   2.36764549E-04   40.37756855      1.65266153E-07   4.24719648E+16   2.21392590E+05   0.00000000E+00   2.06152149E+06   0.31481336      
  5                1.17763635E-06   3.50777453E-04   43.68889673      2.26291374E-07   5.81549160E+16   2.21392590E+05   0.00000000E+00   2.05562589E+06   0.31482964      
  6                1.45888650E-06   4.91809233E-04   43.73161588      3.16962993E-07   8.14567338E+16   2.21392590E+05   0.00000000E+00   2.05035992E+06   0.31484398      
  7                1.80730647E-06   6.66206277E-04   47.64875799      3.94061986E-07   1.01270505E+17   2.21392587E+05   0.00000000E+00   2.04542531E+06   0.3148571       
  8                2.23893819E-06   8.81757405E-04   46.84151822      5.30549071E-07   1.36346499E+17   2.21392583E+05   0.00000000E+00   2.04071114E+06   0.31486945      
  9                2.77365477E-06   1.14807839E-03   50.32997056      6.42913093E-07   1.65223076E+17   2.21392581E+05   0.00000000E+00   2.03615112E+06   0.31488133      
  10               3.43607555E-06   1.47687908E-03   49.78107297      8.36157502E-07   2.14885209E+17   2.21392578E+05   0.00000000E+00   2.03166664E+06   0.31489293      
  11               4.25669961E-06   1.88261507E-03   53.05535507      1.00009144E-06   2.57014807E+17   2.21392575E+05   0.00000000E+00   2.02722974E+06   0.3149044       
  12               5.27331001E-06   2.38292914E-03   52.65201592      1.27556775E-06   3.27809823E+17   2.21392571E+05   0.00000000E+00   2.02280007E+06   0.31491585      
  13               6.53271338E-06   2.99905016E-03   55.85449471      1.51332779E-06   3.88912087E+17   2.21392565E+05   0.00000000E+00   2.01836554E+06   0.31492736      
  14               8.09289496E-06   3.75709687E-03   55.67522557      1.90194439E-06   4.88783174E+17   2.21392554E+05   0.00000000E+00   2.01389736E+06   0.31493903      
  15               1.00256884E-05   4.68867858E-03   58.79068769      2.24775684E-06   5.77653969E+17   2.21392539E+05   0.00000000E+00   2.00939182E+06   0.31495092      
  16               1.24200832E-05   5.83122423E-03   58.72948492      2.79840750E-06   7.19166401E+17   2.21392519E+05   0.00000000E+00   2.00483624E+06   0.31496308      
  17               1.53863215E-05   7.23006187E-03   61.79393024      3.29764273E-06   8.47465515E+17   2.21392500E+05   0.00000000E+00   2.00023145E+06   0.3149756       
  18               1.90609746E-05   8.94009430E-03   61.88188762      4.07179546E-06   1.04641604E+18   2.21392479E+05   0.00000000E+00   1.99556475E+06   0.31498854      
  19               2.36132303E-05   1.10251305E-02   65.03674222      4.77784840E-06   1.22786550E+18   2.21392462E+05   0.00000000E+00   1.99083755E+06   0.31500198      
  20               2.92526829E-05   1.35591724E-02   65.30367106      5.85198214E-06   1.50390854E+18   2.21392449E+05   0.00000000E+00   1.98604522E+06   0.315016        
  21               3.62389832E-05   1.66312944E-02   68.62975125      6.83000517E-06   1.75525196E+18   2.21392435E+05   0.00000000E+00   1.98118589E+06   0.31503066      
  22               4.48937934E-05   2.03478478E-02   69.20304319      8.28706402E-06   2.12970342E+18   2.21392394E+05   0.00000000E+00   1.97624586E+06   0.31504608      
  23               5.56155970E-05   2.48346822E-02   72.65683925      9.63362003E-06   2.47575660E+18   2.21392330E+05   0.00000000E+00   1.97122423E+06   0.31506239      
  24               6.88980457E-05   3.02328421E-02   73.55018613      1.15851752E-05   2.97728932E+18   2.21392194E+05   0.00000000E+00   1.96611448E+06   0.31507974      
  25               8.53526881E-05   3.67205747E-02   77.17091948      1.34110630E-05   3.44652660E+18   2.21391961E+05   0.00000000E+00   1.96090961E+06   0.31509838      
  26               1.05737126E-04   4.45329603E-02   78.31444383      1.60268106E-05   4.11875100E+18   2.21391585E+05   0.00000000E+00   1.95558082E+06   0.31511861      
  27               1.30989898E-04   5.39756063E-02   82.13133921      1.85223477E-05   4.76008234E+18   2.21391057E+05   0.00000000E+00   1.95010029E+06   0.31514082      
  28               1.62273687E-04   6.54219606E-02   83.65041759      2.20426014E-05   5.66475695E+18   2.21390235E+05   0.00000000E+00   1.94443545E+06   0.31516544      
  29               2.01028857E-04   7.93598565E-02   87.78275970      2.54799781E-05   6.54813287E+18   2.21389058E+05   0.00000000E+00   1.93855425E+06   0.31519299      
  30               2.49039768E-04   9.63953143E-02   89.83049107      3.02440228E-05   7.77245094E+18   2.21387317E+05   0.00000000E+00   1.93241755E+06   0.31522415      
  31               3.08516931E-04   1.17289930E-01   94.57804070      3.49524658E-05   8.98247988E+18   2.21384667E+05   0.00000000E+00   1.92599104E+06   0.31525975      
  32               3.82198786E-04   1.42973809E-01   97.43752362      4.13559171E-05   1.06281112E+19   2.21380247E+05   0.00000000E+00   1.91923561E+06   0.31530076      
  33               4.73477780E-04   1.74665659E-01   103.05871103     4.77672474E-05   1.22757676E+19   2.21373004E+05   0.00000000E+00   1.91210521E+06   0.31534843      
  34               5.86556569E-04   2.13950677E-01   107.29321236     5.62016135E-05   1.44433274E+19   2.21360309E+05   0.00000000E+00   1.90452315E+06   0.31934513      
  35               7.26641509E-04   2.62675666E-01   114.76668583     6.45076896E-05   1.65779124E+19   2.21335883E+05   5.64105499E+01   1.89643085E+06   0.32118654      
  36               9.00182369E-04   3.21532009E-01   122.29073256     7.41036617E-05   1.90439270E+19   2.21271289E+05   1.22195758E+02   1.88791812E+06   0.32435659      
  37               1.11516929E-03   3.83896581E-01   129.79800141     8.33610654E-05   2.14225951E+19   2.21140297E+05   2.60421893E+02   1.87998323E+06   0.32569128      
  38               1.38150068E-03   4.28989710E-01   134.33138460     9.00313327E-05   2.31310434E+19   2.20965346E+05   4.84599220E+02   1.87477786E+06   0.32610899      
  39               1.71143891E-03   4.63324516E-01   138.00717923     9.46398135E-05   2.43169690E+19   2.20799743E+05   6.52478291E+02   1.87105822E+06   0.32587131      
  40               2.12017497E-03   4.91915390E-01   140.45863576     9.87826818E-05   2.53669238E+19   2.20656915E+05   7.51984949E+02   1.86810101E+06   0.32544359      
  41               2.62652780E-03   5.14744270E-01   142.81587739     1.01660883E-04   2.61060321E+19   2.20558484E+05   8.09042116E+02   1.86582294E+06   0.32539874      
  42               3.25381085E-03   5.42940889E-01   145.04265523     1.05583403E-04   2.71133168E+19   2.20497088E+05   8.66577790E+02   1.86310136E+06   0.32520798      
  43               4.03090537E-03   5.77751828E-01   148.28103911     1.09899206E-04   2.82215945E+19   2.20470607E+05   8.99402910E+02   1.85986973E+06   0.32513937      
  44               4.99359024E-03   6.20708880E-01   151.49484830     1.15565697E-04   2.96767224E+19   2.20484190E+05   8.83075857E+02   1.85605800E+06   0.32493998      
  45               6.18618926E-03   6.73694520E-01   155.87130721     1.21908977E-04   3.13056465E+19   2.20543794E+05   8.30470257E+02   1.85159398E+06   0.32483155      
  46               7.66361189E-03   7.39024814E-01   160.32849273     1.30013114E-04   3.33867504E+19   2.20656909E+05   7.15851194E+02   1.84640475E+06   0.32427598      
  47               9.49388141E-03   8.19555078E-01   166.09898659     1.39171407E-04   3.57385561E+19   2.20822531E+05   5.57277845E+02   1.84041801E+06   0.32379863      
  48               1.17612668E-02   9.18805114E-01   172.04043777     1.50637026E-04   3.86828714E+19   2.21032184E+05   3.47720681E+02   1.83356329E+06   0.32241054      
  49               1.45701627E-02   1.04111033E+00   179.42024498     1.63668176E-04   4.20292024E+19   2.21237092E+05   1.49269489E+02   1.82577401E+06   0.32127956      
  50               1.80498959E-02   1.19181711E+00   187.03836759     1.79728951E-04   4.61535117E+19   2.21310693E+05   0.00000000E+00   1.81698699E+06   0.31937197      
  51               2.23606798E-02   1.37719243E+00   195.82809184     1.98362482E-04   5.09384204E+19   2.21075719E+05   3.11817858E+02   1.80716921E+06   0.31805562      
  52               2.77009907E-02   1.60355038E+00   205.55095113     2.20042268E-04   5.65052706E+19   2.19608146E+05   1.77851618E+03   1.79633458E+06   0.31596119      
  53               3.43167066E-02   1.87820701E+00   215.99833993     2.45271648E-04   6.29823531E+19   2.14784509E+05   6.60163644E+03   1.78451189E+06   0.31388543      
  54               4.25124273E-02   2.20987636E+00   227.32080304     2.74236170E-04   7.04132897E+19   2.04138453E+05   1.72470388E+04   1.77172308E+06   0.31182031      
  55               5.26654988E-02   2.60885310E+00   239.30356646     3.07487128E-04   7.89634825E+19   1.87741957E+05   3.36460467E+04   1.75798251E+06   0.3098846       
  56               6.52433875E-02   3.07245700E+00   251.76148904     3.46017942E-04   8.83939119E+19   1.67535701E+05   5.38534814E+04   1.74375183E+06   0.3081064       
  57               8.08252026E-02   3.58431559E+00   263.90924718     3.85082460E-04   9.83733528E+19   1.53366843E+05   6.80220863E+04   1.72972938E+06   0.30657399      
  58               1.00128360E-01   4.20607765E+00   277.20655710     4.30205433E-04   1.09900490E+20   1.46823844E+05   7.45667596E+04   1.71445339E+06   0.30524718      
  59               1.24041612E-01   4.95853655E+00   291.39257729     4.82477581E-04   1.23253958E+20   1.42144280E+05   7.92476726E+04   1.69793733E+06   0.30409464      
  60               1.53665970E-01   5.86468311E+00   306.69374656     5.42177803E-04   1.38505006E+20   1.38802043E+05   8.25911721E+04   1.68022038E+06   0.30310673      
  61               1.90365394E-01   6.94969952E+00   322.78833014     6.10450293E-04   1.55945929E+20   1.37071923E+05   8.43222727E+04   1.66136044E+06   0.30231471      
  62               2.35829593E-01   8.24234319E+00   339.92960004     6.87485930E-04   1.75625490E+20   1.37350461E+05   8.40440123E+04   1.64140682E+06   0.30168987      
  63               2.92151824E-01   9.78018963E+00   357.83517131     7.74936926E-04   1.97965764E+20   1.39982454E+05   8.14125878E+04   1.62033763E+06   0.3011898       
  64               3.61925265E-01   1.16043940E+01   376.82295840     8.73146695E-04   2.23054480E+20   1.44840121E+05   7.65559795E+04   1.59816094E+06   0.30077875      
  65               4.48362417E-01   1.37553162E+01   396.49290850     9.83642579E-04   2.51281776E+20   1.51107346E+05   7.02896744E+04   1.57495162E+06   0.30044001      
  66               5.55443005E-01   1.62724884E+01   417.11082471     1.10612619E-03   2.82571495E+20   1.57510334E+05   6.38870450E+04   1.55081969E+06   0.30016215      
  67               6.88097217E-01   1.92081236E+01   438.29173948     1.24257780E-03   3.17429654E+20   1.62450665E+05   5.89470328E+04   1.52577948E+06   0.29996641      
  68               8.52432700E-01   2.26103275E+01   460.36527637     1.39254850E-03   3.55737898E+20   1.64066892E+05   5.73314612E+04   1.49991549E+06   0.29979241      
  69               1.05601576E+00   2.65223778E+01   482.80579878     1.55756463E-03   3.97892560E+20   1.60896690E+05   6.05027692E+04   1.47335254E+06   0.29959627      
  70               1.30821975E+00   3.09874119E+01   505.95379396     1.73653452E-03   4.43608938E+20   1.51544712E+05   6.98549628E+04   1.44620314E+06   0.29939876      
  71               1.62065660E+00   3.60957541E+01   529.47459621     1.93297200E-03   4.93783793E+20   1.38907650E+05   8.24912576E+04   1.41832102E+06   0.29922006      
  72               2.00771148E+00   4.19559807E+01   553.97581384     2.14742321E-03   5.48566033E+20   1.29382376E+05   9.20165296E+04   1.38955745E+06   0.29904302      
  73               2.48720511E+00   4.86609534E+01   578.94639395     2.38317246E-03   6.08790826E+20   1.22536709E+05   9.88629793E+04   1.35991866E+06   0.2988172       
  74               3.08121427E+00   5.62883601E+01   604.82158910     2.63893256E-03   6.74088862E+20   1.15655933E+05   1.05743594E+05   1.32950334E+06   0.29853079      
  75               3.81708825E+00   6.49103115E+01   630.94927847     2.91713294E-03   7.45152366E+20   1.09139898E+05   1.12257650E+05   1.29842819E+06   0.29819988      
  76               4.72870805E+00   7.46914176E+01   658.05438096     3.21844349E-03   8.22119136E+20   1.03568240E+05   1.17827915E+05   1.26650642E+06   0.29782701      
  77               5.85804632E+00   8.58019993E+01   685.62437130     3.54852707E-03   9.06435698E+20   9.81147645E+04   1.23282585E+05   1.23362960E+06   0.297403        
  78               7.25709989E+00   9.83898758E+01   714.25765553     3.90600206E-03   9.97749108E+20   9.20314460E+04   1.29369435E+05   1.19981828E+06   0.2969161       
  79               8.99028379E+00   1.12592035E+02   743.23372202     4.29555420E-03   1.09725635E+21   8.49069716E+04   1.36500455E+05   1.16514631E+06   0.29636146      
  80               1.11373970E+01   1.28557844E+02   773.17313650     4.71475078E-03   1.20433598E+21   7.73499728E+04   1.44068099E+05   1.12966889E+06   0.2957303       
  81               1.37972966E+01   1.46664533E+02   803.67491183     5.17465727E-03   1.32181456E+21   7.03257608E+04   1.51103569E+05   1.09301088E+06   0.29501854      
  82               1.70924493E+01   1.67335702E+02   835.70586099     5.67769498E-03   1.45031053E+21   6.48188675E+04   1.56613099E+05   1.05487461E+06   0.29420575      
  83               2.11745701E+01   1.90909951E+02   868.49635167     6.23301139E-03   1.59215890E+21   6.09846630E+04   1.60429738E+05   1.01524653E+06   0.29328145      
  84               2.62316072E+01   2.17622410E+02   902.65391667     6.83627644E-03   1.74625709E+21   5.89024585E+04   1.62460131E+05   9.74324692E+05   0.29224171      
  85               3.24963962E+01   2.47589692E+02   937.05107195     7.49220819E-03   1.91379377E+21   5.81758939E+04   1.63111897E+05   9.32451765E+05   0.29111599      
  86               4.02573794E+01   2.81049061E+02   972.42924731     8.19529355E-03   2.09338914E+21   5.86352577E+04   1.62580033E+05   8.89751496E+05   0.28990904      
  87               4.98718870E+01   3.18590795E+02   1008.11134045    8.96122093E-03   2.28902514E+21   6.00425046E+04   1.61123161E+05   8.45943964E+05   0.28863067      
  88               6.17825886E+01   3.60700046E+02   1045.04552196    9.78708977E-03   2.49998169E+21   6.08498361E+04   1.60321439E+05   8.00979731E+05   0.28725914      
  89               7.65378750E+01   4.07782118E+02   1082.18431673    1.06848886E-02   2.72930946E+21   6.03456843E+04   1.60883325E+05   7.54938823E+05   0.28580387      
  90               9.48171070E+01   4.60210604E+02   1120.40810551    1.16472855E-02   2.97513186E+21   5.91659424E+04   1.62123163E+05   7.07941827E+05   0.28425325      
  91               1.17461894E+02   5.18363193E+02   1158.56959897    1.26870032E-02   3.24069283E+21   5.70058048E+04   1.64322941E+05   6.60103340E+05   0.28265921      
  92               1.45514845E+02   5.81168485E+02   1196.80243936    1.37701503E-02   3.51726775E+21   5.50424831E+04   1.66331826E+05   6.12586390E+05   0.28106847      
  93               1.80267568E+02   6.50725075E+02   1235.04108546    1.49408399E-02   3.81629533E+21   5.53121258E+04   1.66108873E+05   5.64093120E+05   0.27947729      
  94               2.23320145E+02   7.29528325E+02   1275.31681108    1.62211904E-02   4.14333371E+21   5.72555054E+04   1.64194598E+05   5.13473917E+05   0.27778963      
  95               2.76654794E+02   8.20651190E+02   1317.26085456    1.76662852E-02   4.51245264E+21   6.02627996E+04   1.61218679E+05   4.59645275E+05   0.27600338      
  96               3.42727143E+02   9.28321347E+02   1363.02413397    1.93131433E-02   4.93310809E+21   6.48116039E+04   1.56750006E+05   4.01354973E+05   0.27406309      
  97               4.24579284E+02   1.05901266E+03   1412.60986141    2.12587068E-02   5.43006163E+21   7.17893339E+04   1.49844964E+05   3.36856136E+05   0.27195342      
  98               5.25979842E+02   1.22114486E+03   1468.53644423    2.35797993E-02   6.02293667E+21   7.96249775E+04   1.41946712E+05   2.64440745E+05   0.26952187      
  99               6.51597486E+02   1.42216458E+03   1529.44604902    2.63677506E-02   6.73506102E+21   8.67113780E+04   1.34622791E+05   1.83822717E+05   0.26688687      
  100              8.07215886E+02   1.66969117E+03   1596.41710787    2.96583466E-02   7.57557527E+21   9.25465757E+04   1.28440815E+05   9.53087087E+04   0.26405664      
  101              1.00000000E+03   1.97016394E+03   1666.90958544    3.35118656E-02   8.56083569E+21   9.44870221E+04   1.26289364E+05   0.00000000E+00   0.2611195       
