# ATMO pressure-temperature profile
# Effective temperature = 1500.0K
# log(g) = 5.0cm/s^2
# M/H = 0.0
# Optical depth grid in band 17 (1.20-1.33microns)
# All parameters in cgs units
#
# Model Level      Optical Depth    Pressure         Temperature      Density          Number Density   Rad Flux         Conv Flux        Radial Extension Adiabatic Gradient
#                                   [Ba]             [K]              [g/cm^3]         [/cm^3]          [ergs/s/cm^2/sr] [ergs/s/cm^2/sr] [cm]             [K/Ba]          
  1                1.00000000E-07   1.00000000E-05   510.41985536     5.55462182E-10   1.41905190E+14   2.87038634E+08   0.00000000E+00   7.48261206E+06   0.29759929      
  2                1.25892541E-07   1.23140782E-05   525.49351231     6.64375523E-10   1.69730695E+14   2.87038634E+08   0.00000000E+00   7.44451897E+06   0.29768605      
  3                1.58489319E-07   1.51858126E-05   549.33073572     7.83725689E-10   2.00230382E+14   2.87038634E+08   0.00000000E+00   7.40471939E+06   0.29779607      
  4                1.99526231E-07   1.87603923E-05   545.10091706     9.75747402E-10   2.49281956E+14   2.87038634E+08   0.00000000E+00   7.36384216E+06   0.29778127      
  5                2.51188643E-07   2.32414806E-05   563.85875470     1.16854225E-09   2.98551532E+14   2.87038634E+08   0.00000000E+00   7.32187492E+06   0.29785364      
  6                3.16227766E-07   2.88343773E-05   559.10869933     1.46211903E-09   3.73542625E+14   2.87038634E+08   0.00000000E+00   7.27908578E+06   0.29783783      
  7                3.98107171E-07   3.58293636E-05   576.74326548     1.76117519E-09   4.49968801E+14   2.87038634E+08   0.00000000E+00   7.23549346E+06   0.29788957      
  8                5.01187234E-07   4.45590579E-05   572.56011910     2.20637757E-09   5.63690539E+14   2.87038634E+08   0.00000000E+00   7.19120728E+06   0.29787822      
  9                6.30957344E-07   5.54678662E-05   589.79764115     2.66612572E-09   6.81183732E+14   2.87038634E+08   0.00000000E+00   7.14622807E+06   0.29790868      
  10               7.94328235E-07   6.90797970E-05   586.46342135     3.33942500E-09   8.53170760E+14   2.87038634E+08   0.00000000E+00   7.10060830E+06   0.29790184      
  11               1.00000000E-06   8.60863313E-05   603.52012729     4.04371055E-09   1.03316166E+15   2.87038634E+08   0.00000000E+00   7.05432718E+06   0.29790716      
  12               1.25892541E-06   1.07304879E-04   601.04905197     5.06135435E-09   1.29310977E+15   2.87038634E+08   0.00000000E+00   7.00742415E+06   0.29851294      
  13               1.58489319E-06   1.33813579E-04   618.01067050     6.13816457E-09   1.56830329E+15   2.87038634E+08   0.00000000E+00   6.95986331E+06   0.29838166      
  14               1.99526231E-06   1.66885465E-04   616.36261179     7.67602536E-09   1.96113760E+15   2.87038634E+08   0.00000000E+00   6.91168193E+06   0.29839175      
  15               2.51188643E-06   2.08209903E-04   633.31246353     9.31991616E-09   2.38127299E+15   2.87038634E+08   0.00000000E+00   6.86282281E+06   0.29824747      
  16               3.16227766E-06   2.59791543E-04   632.45173930     1.16451852E-08   2.97524996E+15   2.87038634E+08   0.00000000E+00   6.81330939E+06   0.29825088      
  17               3.98107171E-06   3.24286219E-04   649.49048320     1.41539300E-08   3.61644230E+15   2.87038634E+08   0.00000000E+00   6.76307231E+06   0.29809231      
  18               5.01187234E-06   4.04832678E-04   649.36074698     1.76738506E-08   4.51559900E+15   2.87038634E+08   0.00000000E+00   6.71214524E+06   0.29808907      
  19               6.30957344E-06   5.05575579E-04   666.51273859     2.15027115E-08   5.49418746E+15   2.87038634E+08   0.00000000E+00   6.66046622E+06   0.29791298      
  20               7.94328235E-06   6.31401086E-04   666.93716918     2.68384217E-08   6.85719094E+15   2.87038634E+08   0.00000000E+00   6.60808814E+06   0.29790352      
  21               1.00000000E-05   7.88675506E-04   684.12778055     3.26790237E-08   8.35000944E+15   2.87038634E+08   0.00000000E+00   6.55498065E+06   0.29770922      
  22               1.25892541E-05   9.84954933E-04   684.89619815     4.07681806E-08   1.04163951E+16   2.87038634E+08   0.00000000E+00   6.50120503E+06   0.29769521      
  23               1.58489319E-05   1.22987815E-03   702.06984044     4.96573469E-08   1.26884218E+16   2.87038634E+08   0.00000000E+00   6.44676893E+06   0.29748322      
  24               1.99526231E-05   1.53504875E-03   702.99822295     6.19002376E-08   1.58158955E+16   2.87038634E+08   0.00000000E+00   6.39172483E+06   0.29746586      
  25               2.51188643E-05   1.91495819E-03   720.18714261     7.53722534E-08   1.92592678E+16   2.87038634E+08   0.00000000E+00   6.33610414E+06   0.29723327      
  26               3.16227766E-05   2.38735582E-03   721.17006524     9.38426587E-08   2.39775774E+16   2.87038634E+08   0.00000000E+00   6.27993369E+06   0.29721384      
  27               3.98107171E-05   2.97390652E-03   738.40462288     1.14163826E-07   2.91714990E+16   2.87038634E+08   0.00000000E+00   6.22326434E+06   0.29696227      
  28               5.01187234E-05   3.70166572E-03   739.39949837     1.41917916E-07   3.62613430E+16   2.87038634E+08   0.00000000E+00   6.16608871E+06   0.29694101      
  29               6.30957344E-05   4.60316670E-03   756.80839807     1.72411495E-07   4.40551415E+16   2.87038634E+08   0.00000000E+00   6.10845578E+06   0.2966653       
  30               7.94328235E-05   5.71964646E-03   757.83401436     2.13950853E-07   5.46664574E+16   2.87038635E+08   0.00000000E+00   6.05032358E+06   0.29664182      
  31               1.00000000E-04   7.10080771E-03   775.59969574     2.59517451E-07   6.63125856E+16   2.87038635E+08   0.00000000E+00   5.99170845E+06   0.2963407       
  32               1.25892541E-04   8.81055004E-03   776.90061150     3.21481981E-07   8.21416455E+16   2.87038634E+08   0.00000000E+00   5.93251486E+06   0.2963106       
  33               1.58489319E-04   1.09253061E-02   795.28237882     3.89412207E-07   9.95034398E+16   2.87038635E+08   0.00000000E+00   5.87274495E+06   0.29588401      
  34               1.99526231E-04   1.35428933E-02   797.07988365     4.81646429E-07   1.23065253E+17   2.87038634E+08   0.00000000E+00   5.81230317E+06   0.29589712      
  35               2.51188643E-04   1.67824652E-02   816.48326726     5.82646725E-07   1.48879296E+17   2.87038635E+08   0.00000000E+00   5.75114896E+06   0.29549435      
  36               3.16227766E-04   2.07947111E-02   819.19007627     7.19589406E-07   1.83862876E+17   2.87038635E+08   0.00000000E+00   5.68918392E+06   0.29542525      
  37               3.98107171E-04   2.57663840E-02   839.92438037     8.69575775E-07   2.22197479E+17   2.87038637E+08   0.00000000E+00   5.62633287E+06   0.2950347       
  38               5.01187234E-04   3.19314620E-02   844.10884094     1.07233822E-06   2.73997244E+17   2.87038634E+08   0.00000000E+00   5.56248858E+06   0.29498108      
  39               6.30957344E-04   3.95908688E-02   866.74695937     1.29476486E-06   3.30848024E+17   2.87038635E+08   0.00000000E+00   5.49748443E+06   0.29448349      
  40               7.94328235E-04   4.91114415E-02   872.95846757     1.59474572E-06   4.07488108E+17   2.87038638E+08   0.00000000E+00   5.43122864E+06   0.2942744       
  41               1.00000000E-03   6.09878750E-02   898.08384749     1.92490782E-06   4.91872402E+17   2.87038640E+08   0.00000000E+00   5.36344184E+06   0.2936272       
  42               1.25892541E-03   7.58172892E-02   907.11921520     2.36917747E-06   6.05382309E+17   2.87038630E+08   0.00000000E+00   5.29400002E+06   0.29341758      
  43               1.58489319E-03   9.44370179E-02   935.31087820     2.86182571E-06   7.31327861E+17   2.87038645E+08   0.00000000E+00   5.22249054E+06   0.29269577      
  44               1.99526231E-03   1.17862023E-01   947.68271195     3.52511572E-06   9.00817410E+17   2.87038635E+08   0.00000000E+00   5.14873891E+06   0.29231061      
  45               2.51188643E-03   1.47584904E-01   979.70887206     4.26937909E-06   1.09111553E+18   2.87038644E+08   0.00000000E+00   5.07212028E+06   0.29134309      
  46               3.16227766E-03   1.85434297E-01   996.32707673     5.27481795E-06   1.34807474E+18   2.87038628E+08   0.00000000E+00   4.99236254E+06   0.29083703      
  47               3.98107171E-03   2.34044604E-01   1032.99934526    6.42054325E-06   1.64105987E+18   2.87038664E+08   0.00000000E+00   4.90883068E+06   0.28974103      
  48               5.01187234E-03   2.96748668E-01   1054.89985106    7.97157542E-06   2.03752707E+18   2.87038616E+08   0.00000000E+00   4.82118348E+06   0.28904983      
  49               6.30957344E-03   3.78126618E-01   1097.41302143    9.76310618E-06   2.49570346E+18   2.87038676E+08   0.00000000E+00   4.72893619E+06   0.28770186      
  50               7.94328235E-03   4.83987114E-01   1125.78733789    1.21811184E-05   3.11389008E+18   2.87038634E+08   0.00000000E+00   4.63186348E+06   0.2867545       
  51               1.00000000E-02   6.21856732E-01   1175.62352206    1.49861821E-05   3.83131547E+18   2.87038689E+08   0.00000000E+00   4.52981872E+06   0.28504675      
  52               1.25892541E-02   8.01435993E-01   1211.94319255    1.87345131E-05   4.78974529E+18   2.87038616E+08   0.00000000E+00   4.42264439E+06   0.28370352      
  53               1.58489319E-02   1.03303024E+00   1269.87646233    2.30449574E-05   5.89219894E+18   2.87038733E+08   0.00000000E+00   4.31118241E+06   0.2815833       
  54               1.99526231E-02   1.32858776E+00   1313.70701980    2.86487108E-05   7.32516760E+18   2.87038343E+08   0.00000000E+00   4.19615463E+06   0.28001073      
  55               2.51188643E-02   1.69631732E+00   1377.08020173    3.48932891E-05   8.92223590E+18   2.87038609E+08   0.00000000E+00   4.07984658E+06   0.27781604      
  56               3.16227766E-02   2.14491855E+00   1424.43746535    4.26536386E-05   1.09066972E+19   2.87038169E+08   0.00000000E+00   3.96356461E+06   0.27613006      
  57               3.98107171E-02   2.68121530E+00   1490.03829141    5.09711482E-05   1.30334713E+19   2.87038886E+08   0.00000000E+00   3.84854556E+06   0.27370663      
  58               5.01187234E-02   3.30763918E+00   1539.48002386    6.08644801E-05   1.55621612E+19   2.87038461E+08   0.00000000E+00   3.73607741E+06   0.27189805      
  59               6.30957344E-02   4.00972440E+00   1606.49097633    7.07353780E-05   1.80784867E+19   2.87037984E+08   0.00000000E+00   3.62906905E+06   0.26941549      
  60               7.94328235E-02   4.74855882E+00   1655.97854917    8.12738061E-05   2.07698306E+19   2.87037189E+08   0.00000000E+00   3.53162419E+06   0.26758528      
  61               1.00000000E-01   5.48194147E+00   1718.99289368    9.04244779E-05   2.30986263E+19   2.87038829E+08   0.00000000E+00   3.44607211E+06   0.2651108       
  62               1.25892541E-01   6.13700449E+00   1771.04054990    9.83927180E-05   2.50988473E+19   2.81468450E+08   5.61223262E+06   3.37661545E+06   0.26309626      
  63               1.58489319E-01   6.70740208E+00   1812.70471290    1.05062364E-04   2.68011307E+19   2.74424123E+08   1.26374372E+07   3.32051414E+06   0.26144959      
  64               1.99526231E-01   7.19662466E+00   1846.35087862    1.10705668E-04   2.82319226E+19   2.67238684E+08   1.98025728E+07   3.27514918E+06   0.25994712      
  65               2.51188643E-01   7.57912817E+00   1871.20665550    1.15039035E-04   2.93375159E+19   2.60548967E+08   2.64788273E+07   3.24125477E+06   0.25856795      
  66               3.16227766E-01   8.03076841E+00   1899.45943235    1.20078444E-04   3.06233656E+19   2.52924290E+08   3.41064111E+07   3.20282766E+06   0.25730175      
  67               3.98107171E-01   8.55990893E+00   1930.72728143    1.25909351E-04   3.21124951E+19   2.43307487E+08   4.36987343E+07   3.15979385E+06   0.25645282      
  68               5.01187234E-01   8.97436555E+00   1954.35673951    1.30518682E-04   3.32602688E+19   2.33616138E+08   5.33285926E+07   3.12745965E+06   0.25580185      
  69               6.30957344E-01   9.29107063E+00   1971.63847367    1.33937579E-04   3.41322028E+19   2.25190731E+08   6.17230340E+07   3.10350623E+06   0.25503344      
  70               7.94328235E-01   9.67186800E+00   1992.02492439    1.37996635E-04   3.51674948E+19   2.16643629E+08   7.02740335E+07   3.07549651E+06   0.25408687      
  71               1.00000000E+00   1.01248363E+01   2015.16760151    1.42796147E-04   3.63917280E+19   2.07457497E+08   7.94633140E+07   3.04322825E+06   0.25299553      
  72               1.25892541E+00   1.06603892E+01   2041.68144791    1.48390610E-04   3.78190763E+19   1.97772842E+08   8.91522715E+07   3.00643728E+06   0.25171185      
  73               1.58489319E+00   1.12933924E+01   2071.34561951    1.54942314E-04   3.94909598E+19   1.87604031E+08   9.93271334E+07   2.96469097E+06   0.25024987      
  74               1.99526231E+00   1.20369150E+01   2104.68903453    1.62515815E-04   4.14241013E+19   1.76656633E+08   1.10281002E+08   2.91783532E+06   0.2485357       
  75               2.51188643E+00   1.29051207E+01   2141.18175371    1.71253438E-04   4.36550385E+19   1.64838377E+08   1.22105792E+08   2.86579309E+06   0.24661931      
  76               3.16227766E+00   1.39134475E+01   2181.25600955    1.81221946E-04   4.62012742E+19   1.52211935E+08   1.34738481E+08   2.80855602E+06   0.24446927      
  77               3.98107171E+00   1.50788754E+01   2224.24682914    1.92578781E-04   4.91034279E+19   1.38982825E+08   1.47973340E+08   2.74617146E+06   0.24204152      
  78               5.01187234E+00   1.64203201E+01   2270.50522781    2.05402402E-04   5.23823469E+19   1.25476689E+08   1.61485318E+08   2.67872370E+06   0.2392722       
  79               6.30957344E+00   1.79589316E+01   2319.25396804    2.19878938E-04   5.60864596E+19   1.11959438E+08   1.75007100E+08   2.60632404E+06   0.23622617      
  80               7.94328235E+00   1.97177598E+01   2370.82038842    2.36122529E-04   6.02399715E+19   9.88119248E+07   1.88155798E+08   2.52913093E+06   0.23292561      
  81               1.00000000E+01   2.17236277E+01   2424.38674979    2.54312334E-04   6.49017323E+19   8.65170016E+07   2.00450282E+08   2.44727443E+06   0.22936217      
  82               1.25892541E+01   2.40074609E+01   2480.32369260    2.74601251E-04   7.01073753E+19   7.53357370E+07   2.11629463E+08   2.36085063E+06   0.22561948      
  83               1.58489319E+01   2.66039068E+01   2537.82205813    2.97265123E-04   7.59294212E+19   6.52495607E+07   2.21711432E+08   2.26997225E+06   0.2216992       
  84               1.99526231E+01   2.95530632E+01   2597.28643478    3.22476459E-04   8.24154234E+19   5.64111731E+07   2.30544692E+08   2.17471850E+06   0.21761992      
  85               2.51188643E+01   3.29008231E+01   2657.91287045    3.50587948E-04   8.96585814E+19   4.87354683E+07   2.38214884E+08   2.07515212E+06   0.21343811      
  86               3.16227766E+01   3.66994510E+01   2720.17463570    3.81822720E-04   9.77211615E+19   4.20990658E+07   2.44846668E+08   1.97132661E+06   0.209177        
  87               3.98107171E+01   4.10083291E+01   2783.25631288    4.16619680E-04   1.06719728E+20   3.62597772E+07   2.50683465E+08   1.86329006E+06   0.20487161      
  88               5.01187234E+01   4.58945738E+01   2847.68248625    4.55259127E-04   1.16733529E+20   3.11706055E+07   2.55773298E+08   1.75109234E+06   0.20075024      
  89               6.30957344E+01   5.14331205E+01   2912.74486837    4.98249101E-04   1.27898741E+20   2.66760714E+07   2.60272418E+08   1.63479981E+06   0.19673904      
  90               7.94328235E+01   5.77071578E+01   2978.94204500    5.45924511E-04   1.40311566E+20   2.27629876E+07   2.64195159E+08   1.51449948E+06   0.19285418      
  91               1.00000000E+02   6.48076498E+01   3045.53006780    5.98874009E-04   1.54130725E+20   1.93752872E+07   2.67598825E+08   1.39031593E+06   0.18910454      
  92               1.25892541E+02   7.28220107E+01   3112.92634054    6.57377495E-04   1.69441451E+20   1.64780241E+07   2.70516956E+08   1.26258269E+06   0.18547089      
  93               1.58489319E+02   8.18389398E+01   3180.22796993    7.21980888E-04   1.86392134E+20   1.39755425E+07   2.73043381E+08   1.13169503E+06   0.1821713       
  94               1.99526231E+02   9.19543503E+01   3248.06992207    7.92900925E-04   2.05056127E+20   1.18243583E+07   2.75221617E+08   9.97997976E+05   0.17904763      
  95               2.51188643E+02   1.03273396E+02   3315.49138030    8.70809282E-04   2.25614183E+20   9.96516661E+06   2.77110770E+08   8.61775307E+05   0.1762173       
  96               3.16227766E+02   1.15912292E+02   3383.34248180    9.55930184E-04   2.48147196E+20   8.38042318E+06   2.78727534E+08   7.23244839E+05   0.17368355      
  97               3.98107171E+02   1.29999898E+02   3450.71402959    1.04907465E-03   2.72872570E+20   7.03430300E+06   2.80106667E+08   5.82565136E+05   0.1714147       
  98               5.01187234E+02   1.45677243E+02   3518.53204908    1.15049869E-03   2.99885897E+20   5.91978052E+06   2.81254081E+08   4.39860866E+05   0.16936693      
  99               6.30957344E+02   1.63101874E+02   3585.87217878    1.26119017E-03   3.29450360E+20   4.98096243E+06   2.82224359E+08   2.95203462E+05   0.16757424      
  100              7.94328235E+02   1.82452328E+02   3653.79038330    1.38146312E-03   3.61685935E+20   4.19300344E+06   2.83041606E+08   1.48600809E+05   0.16590964      
  101              1.00000000E+03   2.03932855E+02   3721.28668823    1.51261639E-03   3.96935471E+20   3.81410020E+06   2.83444844E+08   0.00000000E+00   0.16445348      
