# ATMO pressure-temperature profile
# Effective temperature = 2700.0K
# log(g) = 4.0cm/s^2
# M/H = 0.0
# Optical depth grid in band 17 (1.20-1.33microns)
# All parameters in cgs units
#
# Model Level      Optical Depth    Pressure         Temperature      Density          Number Density   Rad Flux         Conv Flux        Radial Extension Adiabatic Gradient
#                                   [Ba]             [K]              [g/cm^3]         [/cm^3]          [ergs/s/cm^2/sr] [ergs/s/cm^2/sr] [cm]             [K/Ba]          
  1                8.00000000E-05   1.00000000E-05   1358.83519297    2.09125667E-10   5.33039083E+13   3.01269826E+09   0.00000000E+00   1.37184330E+08   0.2769574       
  2                9.42017752E-05   9.95910836E-05   1441.99750095    1.96259762E-09   5.00243886E+14   3.01269780E+09   0.00000000E+00   1.23199858E+08   0.27405864      
  3                1.10924681E-04   1.85262834E-04   1605.24945555    3.27458261E-09   8.35933273E+14   3.01269719E+09   0.00000000E+00   1.19819511E+08   0.216545        
  4                1.30616273E-04   2.62164337E-04   1636.27347244    4.54460710E-09   1.16049577E+15   3.01269673E+09   0.00000000E+00   1.17826036E+08   0.21021564      
  5                1.53803560E-04   3.46643036E-04   1680.26436062    5.84727149E-09   1.49427559E+15   3.01269627E+09   0.00000000E+00   1.16187209E+08   0.20012769      
  6                1.81107105E-04   4.40661421E-04   1696.91446251    7.35940657E-09   1.88092257E+15   3.01269581E+09   0.00000000E+00   1.14753982E+08   0.19805216      
  7                2.13257635E-04   5.46246328E-04   1732.37480688    8.92921816E-09   2.28387595E+15   3.01269536E+09   0.00000000E+00   1.13451470E+08   0.18969954      
  8                2.51115597E-04   6.65309664E-04   1744.59339545    1.07988515E-08   2.76220208E+15   3.01269489E+09   0.00000000E+00   1.12238968E+08   0.18880762      
  9                2.95694188E-04   8.00071239E-04   1776.40374241    1.27434685E-08   3.26221679E+15   3.01269443E+09   0.00000000E+00   1.11090178E+08   0.18209129      
  10               3.48186468E-04   9.52827917E-04   1786.74835582    1.50886133E-08   3.86257497E+15   3.01269394E+09   0.00000000E+00   1.09988559E+08   0.1818002       
  11               4.09997292E-04   1.12630751E-03   1816.63914311    1.75273555E-08   4.49070111E+15   3.01269344E+09   0.00000000E+00   1.08921785E+08   0.17538794      
  12               4.82780909E-04   1.32339995E-03   1826.21433899    2.04867291E-08   5.24886262E+15   3.01269293E+09   0.00000000E+00   1.07881684E+08   0.17511751      
  13               5.68485234E-04   1.54753414E-03   1855.07537200    2.35620576E-08   6.04233109E+15   3.01269242E+09   0.00000000E+00   1.06861516E+08   0.16920381      
  14               6.69403978E-04   1.80236403E-03   1864.53093630    2.73031383E-08   7.00162356E+15   3.01269193E+09   0.00000000E+00   1.05856813E+08   0.16912497      
  15               7.88238038E-04   2.09221372E-03   1892.89287476    3.11879197E-08   8.00582051E+15   3.01269149E+09   0.00000000E+00   1.04863514E+08   0.16394875      
  16               9.28167781E-04   2.42169493E-03   1902.65573941    3.59139671E-08   9.21902636E+15   3.01269113E+09   0.00000000E+00   1.03879036E+08   0.16378983      
  17               1.09293816E-03   2.79624954E-03   1930.87892861    4.08178626E-08   1.04893052E+16   3.01269092E+09   0.00000000E+00   1.02900751E+08   0.15852378      
  18               1.28695893E-03   3.22166386E-03   1941.28085512    4.67738816E-08   1.20203661E+16   3.01269089E+09   0.00000000E+00   1.01927140E+08   0.15812419      
  19               1.51542270E-03   3.70473798E-03   1969.67195134    5.29479481E-08   1.36235232E+16   3.01269119E+09   0.00000000E+00   1.00956418E+08   0.15309702      
  20               1.78444386E-03   4.25266175E-03   1981.01795336    6.04246344E-08   1.55488498E+16   3.01269186E+09   0.00000000E+00   9.99877193E+07   0.15265018      
  21               2.10122224E-03   4.87386692E-03   2009.83889726    6.81654261E-08   1.75645998E+16   3.01269308E+09   0.00000000E+00   9.90197661E+07   0.14810181      
  22               2.47423582E-03   5.57718660E-03   2022.46155571    7.74999914E-08   1.99738020E+16   3.01269500E+09   0.00000000E+00   9.80521123E+07   0.1473948       
  23               2.91346758E-03   6.37298438E-03   2052.07284654    8.71449178E-08   2.24944780E+16   3.01269794E+09   0.00000000E+00   9.70837444E+07   0.14267154      
  24               3.43067273E-03   7.27213267E-03   2066.49298008    9.87113684E-08   2.54890529E+16   3.01270217E+09   0.00000000E+00   9.61142905E+07   0.1415372       
  25               4.03969326E-03   8.28721982E-03   2097.51543604    1.10622478E-07   2.86173578E+16   3.01270792E+09   0.00000000E+00   9.51428648E+07   0.13686695      
  26               4.75682846E-03   9.43081595E-03   2114.80157126    1.24778491E-07   3.23002203E+16   3.01271474E+09   0.00000000E+00   9.41694848E+07   0.13541801      
  27               5.60127107E-03   1.07154993E-02   2151.02682810    1.39025549E-07   3.60821514E+16   3.01254107E+09   6.66583936E+05   9.31940499E+07   0.1301634       
  28               6.59562098E-03   1.21434407E-02   2185.57650395    1.54642448E-07   4.02440409E+16   3.01078211E+09   1.77269404E+06   9.22201443E+07   0.1251159       
  29               7.76649006E-03   1.37335172E-02   2218.90360945    1.71780855E-07   4.48300455E+16   3.00745740E+09   4.99367293E+06   9.12445176E+07   0.1206972       
  30               9.14521438E-03   1.55065073E-02   2251.10717882    1.90630325E-07   4.98934638E+16   3.00246734E+09   9.89447184E+06   9.02647132E+07   0.11687789      
  31               1.07686929E-02   1.74851286E-02   2282.54176337    2.11360593E-07   5.54850444E+16   2.99566101E+09   1.66340469E+07   8.92789546E+07   0.11339466      
  32               1.26803748E-02   1.96943367E-02   2313.10893017    2.34203771E-07   6.16695973E+16   2.98686778E+09   2.53613291E+07   8.82859695E+07   0.11027772      
  33               1.49314227E-02   2.21499307E-02   2343.01703377    2.59259270E-07   6.84735377E+16   2.97585761E+09   3.63084863E+07   8.72893744E+07   0.10750726      
  34               1.75820816E-02   2.48802930E-02   2372.16062541    2.86736693E-07   7.59691448E+16   2.96247738E+09   4.96823393E+07   8.62879341E+07   0.10518309      
  35               2.07032912E-02   2.79297911E-02   2401.06924993    3.16978581E-07   8.42536728E+16   2.94662122E+09   6.55759301E+07   8.52763893E+07   0.10321764      
  36               2.43785848E-02   3.13338557E-02   2429.53319425    3.50297976E-07   9.34150482E+16   2.92807705E+09   8.41479074E+07   8.42547989E+07   0.10151232      
  37               2.87063246E-02   3.51306835E-02   2457.87726650    3.86914377E-07   1.03526670E+17   2.90662087E+09   1.05633373E+08   8.32234461E+07   0.09997137      
  38               3.38023342E-02   3.93583801E-02   2485.80547768    4.27163623E-07   1.14682173E+17   2.88202440E+09   1.30278948E+08   8.21834990E+07   0.098609754     
  39               3.98029987E-02   4.40560112E-02   2513.63142589    4.71228231E-07   1.26949039E+17   2.85404203E+09   1.58336130E+08   8.11364235E+07   0.097381459     
  40               4.68689142E-02   4.92743227E-02   2541.07387928    5.19560821E-07   1.40452415E+17   2.82246655E+09   1.89993854E+08   8.00817758E+07   0.096349955     
  41               5.51891865E-02   5.50682815E-02   2568.53638618    5.72425702E-07   1.55289339E+17   2.78709608E+09   2.25427071E+08   7.90193250E+07   0.095458135     
  42               6.49864917E-02   6.14972349E-02   2595.68754732    6.30349881E-07   1.71604635E+17   2.74774049E+09   2.64833584E+08   7.79490373E+07   0.094705964     
  43               7.65230361E-02   6.86250859E-02   2622.93119176    6.93607192E-07   1.89505510E+17   2.70419165E+09   3.08432820E+08   7.68710301E+07   0.094015283     
  44               9.01075730E-02   7.65206310E-02   2649.87742935    7.62818561E-07   2.09159982E+17   2.65625796E+09   3.56418597E+08   7.57855426E+07   0.093397779     
  45               1.06103667E-01   8.52578379E-02   2676.94154103    8.38264433E-07   2.30686015E+17   2.60373581E+09   4.09022663E+08   7.46928912E+07   0.092823426     
  46               1.24939422E-01   9.49161697E-02   2703.70554146    9.20667901E-07   2.54276750E+17   2.54644741E+09   4.66417252E+08   7.35934560E+07   0.092352619     
  47               1.47118942E-01   1.05580810E-01   2730.62708883    1.01029195E-06   2.80058292E+17   2.48419622E+09   5.28762347E+08   7.24876449E+07   0.091940544     
  48               1.73235819E-01   1.17343124E-01   2757.25334708    1.10798126E-06   3.08252645E+17   2.41681951E+09   5.96221565E+08   7.13758821E+07   0.09161515      
  49               2.03989021E-01   1.30301021E-01   2784.06854476    1.21397914E-06   3.38995345E+17   2.34411314E+09   6.68997029E+08   7.02585767E+07   0.091337335     
  50               2.40201599E-01   1.44559512E-01   2810.58939653    1.32927467E-06   3.72541886E+17   2.26589680E+09   7.47274906E+08   6.91361211E+07   0.091140636     
  51               2.82842712E-01   1.60231276E-01   2837.33163213    1.45407845E-06   4.09037410E+17   2.18196992E+09   8.31304818E+08   6.80088579E+07   0.091002986     
  52               3.33053570E-01   1.77437244E-01   2863.79188379    1.58954357E-06   4.48775530E+17   2.09219078E+09   9.21199515E+08   6.68770905E+07   0.090967339     
  53               3.92177970E-01   1.96307220E-01   2890.52334566    1.73582426E-06   4.91909976E+17   1.99643470E+09   1.01706036E+09   6.57410582E+07   0.090973887     
  54               4.61798262E-01   2.16980915E-01   2916.98071356    1.89429312E-06   5.38782919E+17   1.89473035E+09   1.11886489E+09   6.46009410E+07   0.091025795     
  55               5.43777701E-01   2.39609203E-01   2943.73315103    2.06506930E-06   5.89563918E+17   1.78724688E+09   1.22644369E+09   6.34568281E+07   0.091068908     
  56               6.40310309E-01   2.64355319E-01   2970.19714129    2.24980802E-06   6.44656873E+17   1.67441106E+09   1.33936560E+09   6.23087418E+07   0.091111067     
  57               7.53979598E-01   2.91396536E-01   2996.96116187    2.44860130E-06   7.04253656E+17   1.55690781E+09   1.45696375E+09   6.11566098E+07   0.091118916     
  58               8.87827707E-01   3.20924968E-01   3023.41479923    2.66344256E-06   7.68832283E+17   1.43583812E+09   1.57811795E+09   6.00003196E+07   0.091138871     
  59               1.04543683E+00   3.53142596E-01   3050.18175503    2.89430561E-06   8.38591056E+17   1.31262701E+09   1.70135744E+09   5.88399212E+07   0.091168569     
  60               1.23102506E+00   3.88267876E-01   3076.63708856    3.14349219E-06   9.14073311E+17   1.18915287E+09   1.82481955E+09   5.76753978E+07   0.091255009     
  61               1.44955933E+00   4.26539403E-01   3103.44813686    3.41086880E-06   9.95498257E+17   1.06759281E+09   1.94633936E+09   5.65065871E+07   0.091381357     
  62               1.70688827E+00   4.68217338E-01   3129.97399220    3.69917907E-06   1.08350920E+18   9.50369075E+08   2.06350356E+09   5.53332372E+07   0.0915841       
  63               2.00989882E+00   5.13585034E-01   3156.91860894    4.00816269E-06   1.17835138E+18   8.39757845E+08   2.17404572E+09   5.41550122E+07   0.091844976     
  64               2.36670046E+00   5.62950369E-01   3183.62117375    4.34105964E-06   1.28078008E+18   7.37738921E+08   2.27601008E+09   5.29715405E+07   0.092198185     
  65               2.78684231E+00   6.16647895E-01   3210.81911281    4.69742839E-06   1.39106446E+18   6.45655459E+08   2.36804272E+09   5.17824003E+07   0.092613119     
  66               3.28156866E+00   6.75040657E-01   3237.82278471    5.08109257E-06   1.51008953E+18   5.64122276E+08   2.44952526E+09   5.05871561E+07   0.09306364      
  67               3.86411992E+00   7.38524695E-01   3265.36817723    5.49151245E-06   1.63816901E+18   4.93019677E+08   2.52057886E+09   4.93853159E+07   0.093511907     
  68               4.55008695E+00   8.07531920E-01   3292.73321090    5.93325671E-06   1.77635185E+18   4.31587157E+08   2.58196743E+09   4.81763662E+07   0.093949077     
  69               5.35782835E+00   8.82535603E-01   3320.66323603    6.40569116E-06   1.92501111E+18   3.78713153E+08   2.63480346E+09   4.69597329E+07   0.094344184     
  70               6.30896177E+00   9.64054100E-01   3348.40757113    6.91429612E-06   2.08539789E+18   3.33053065E+08   2.68043215E+09   4.57348195E+07   0.094696545     
  71               7.42894249E+00   1.05265682E+00   3376.72567733    7.45835782E-06   2.25796323E+18   2.93430494E+08   2.72002793E+09   4.45009818E+07   0.0949848       
  72               8.74774463E+00   1.14896845E+00   3404.84265449    8.04444063E-06   2.44420088E+18   2.58771384E+08   2.75465888E+09   4.32575692E+07   0.095267041     
  73               1.03006634E+01   1.25367414E+00   3433.56611959    8.67156906E-06   2.64463106E+18   2.28437917E+08   2.78496662E+09   4.20039085E+07   0.095568537     
  74               1.21292597E+01   1.36752157E+00   3462.12276462    9.34735891E-06   2.86099805E+18   2.01690622E+08   2.81169325E+09   4.07393588E+07   0.095928273     
  75               1.42824725E+01   1.49132750E+00   3491.35638831    1.00704755E-05   3.09388867E+18   1.78233864E+08   2.83513741E+09   3.94632773E+07   0.096343614     
  76               1.68179283E+01   1.62598137E+00   3520.47787667    1.08497689E-05   3.34533632E+18   1.57482671E+08   2.85588350E+09   3.81750586E+07   0.096823752     
  77               1.98034838E+01   1.77245528E+00   3550.35014573    1.16835514E-05   3.61601265E+18   1.39342133E+08   2.87401996E+09   3.68740831E+07   0.097369045     
  78               2.33190416E+01   1.93180863E+00   3580.17050488    1.25820732E-05   3.90828504E+18   1.23311444E+08   2.89004830E+09   3.55597552E+07   0.097992871     
  79               2.74586889E+01   2.10519858E+00   3610.82444846    1.35431857E-05   4.22291689E+18   1.09311809E+08   2.90404722E+09   3.42314616E+07   0.098662225     
  80               3.23332155E+01   2.29388757E+00   3641.47506116    1.45789174E-05   4.56268648E+18   9.68495544E+07   2.91650855E+09   3.28886045E+07   0.099344913     
  81               3.80730788E+01   2.49926206E+00   3673.00372126    1.56869104E-05   4.92851710E+18   8.59066387E+07   2.92745060E+09   3.15305348E+07   0.10001278      
  82               4.48318951E+01   2.72284231E+00   3704.54266956    1.68813979E-05   5.32370189E+18   7.60988359E+07   2.93725231E+09   3.01565972E+07   0.10065846      
  83               5.27905513E+01   2.96630392E+00   3736.98534173    1.81597952E-05   5.74936778E+18   6.74733274E+07   2.94586977E+09   2.87660751E+07   0.10129668      
  84               6.21620456E+01   3.23148544E+00   3769.45947628    1.95386847E-05   6.20939037E+18   5.97208936E+07   2.95360611E+09   2.73582563E+07   0.1019243       
  85               7.31971881E+01   3.52041425E+00   3802.87315865    2.10152180E-05   6.70513877E+18   5.29067654E+07   2.96040238E+09   2.59323746E+07   0.10254582      
  86               8.61913133E+01   3.83531887E+00   3836.34268850    2.26087917E-05   7.24118966E+18   4.67959020E+07   2.96649736E+09   2.44876665E+07   0.10318524      
  87               1.01492184E+02   4.17865540E+00   3870.80882184    2.43160332E-05   7.81917036E+18   4.14503190E+07   2.97182694E+09   2.30233254E+07   0.10386059      
  88               1.19509299E+02   4.55311707E+00   3905.38439926    2.61593641E-05   8.44444030E+18   3.66612771E+07   2.97659932E+09   2.15385724E+07   0.10459453      
  89               1.40724851E+02   4.96166792E+00   3941.04258139    2.81346563E-05   9.11889902E+18   3.24803287E+07   2.98076678E+09   2.00325929E+07   0.10539065      
  90               1.65706635E+02   5.40755664E+00   3976.88310124    3.02678373E-05   9.84881753E+18   2.87234601E+07   2.98451244E+09   1.85045982E+07   0.10622195      
  91               1.95123240E+02   5.89436528E+00   4013.87935990    3.25544617E-05   1.06364957E+19   2.54324565E+07   2.98777957E+09   1.69537484E+07   0.10706081      
  92               2.29761945E+02   6.42603201E+00   4051.09650796    3.50250692E-05   1.14893679E+19   2.24634106E+07   2.99072587E+09   1.53792158E+07   0.10786832      
  93               2.70549789E+02   7.00691254E+00   4089.49989207    3.76753728E-05   1.24103016E+19   1.98670557E+07   2.99329686E+09   1.37801143E+07   0.10867605      
  94               3.18578380E+02   7.64179803E+00   4128.15995907    4.05406433E-05   1.34080271E+19   1.75428023E+07   2.99559787E+09   1.21555822E+07   0.10950413      
  95               3.75133111E+02   8.33597462E+00   4168.07495219    4.36158662E-05   1.44859407E+19   1.55222052E+07   2.99760095E+09   1.05047232E+07   0.11038187      
  96               4.41727563E+02   9.09524103E+00   4208.31860509    4.69414622E-05   1.56542203E+19   1.37180518E+07   2.99939405E+09   8.82668928E+06   0.11131574      
  97               5.20144008E+02   9.92597809E+00   4249.91293490    5.05114880E-05   1.69168352E+19   1.21495528E+07   3.00094154E+09   7.12061497E+06   0.11231922      
  98               6.12481111E+02   1.08351724E+01   4291.92319947    5.43722714E-05   1.82856215E+19   1.07486182E+07   3.00232170E+09   5.38569183E+06   0.11338574      
  99               7.21210099E+02   1.18304947E+01   4335.38612541    5.85168397E-05   1.97651885E+19   9.53185748E+06   3.00352221E+09   3.62110693E+06   0.11455542      
  100              8.49240896E+02   1.29203166E+01   4379.37794764    6.29973205E-05   2.13691166E+19   8.44426499E+06   3.00459779E+09   1.82611809E+06   0.11578328      
  101              1.00000000E+03   1.41137991E+01   4424.92071810    6.78061501E-05   2.31027818E+19   7.98377624E+06   3.00504693E+09   0.00000000E+00   0.11704716      
