# ATMO pressure-temperature profile
# Effective temperature = 1800.0K
# log(g) = 5.5cm/s^2
# M/H = 0.0
# Optical depth grid in band 17 (1.20-1.33microns)
# All parameters in cgs units
#
# Model Level      Optical Depth    Pressure         Temperature      Density          Number Density   Rad Flux         Conv Flux        Radial Extension Adiabatic Gradient
#                                   [Ba]             [K]              [g/cm^3]         [/cm^3]          [ergs/s/cm^2/sr] [ergs/s/cm^2/sr] [cm]             [K/Ba]          
  1                1.00000000E-07   1.00000000E-05   612.30330468     4.62616566E-10   1.18293052E+14   5.95203188E+08   0.00000000E+00   2.73797172E+06   0.29799922      
  2                1.25892541E-07   3.04493249E-05   652.47409048     1.32191576E-09   3.38018319E+14   5.95203189E+08   0.00000000E+00   2.65527665E+06   0.29783403      
  3                1.58489319E-07   5.40409531E-05   657.25859959     2.32903155E-09   5.95542229E+14   5.95203189E+08   0.00000000E+00   2.61275829E+06   0.29770336      
  4                1.99526231E-07   8.20442207E-05   679.51643347     3.42019876E-09   8.74528304E+14   5.95203189E+08   0.00000000E+00   2.58138175E+06   0.29754607      
  5                2.51188643E-07   1.15738892E-04   681.12271137     4.81339723E-09   1.23077821E+15   5.95203189E+08   0.00000000E+00   2.55512046E+06   0.29764104      
  6                3.16227766E-07   1.56929433E-04   700.11106383     6.34959318E-09   1.62354117E+15   5.95203189E+08   0.00000000E+00   2.53155884E+06   0.29749403      
  7                3.98107171E-07   2.07366467E-04   701.44975835     8.37421158E-09   2.14125209E+15   5.95203189E+08   0.00000000E+00   2.50968577E+06   0.29738648      
  8                5.01187234E-07   2.69561982E-04   719.19098914     1.06175688E-08   2.71481502E+15   5.95203188E+08   0.00000000E+00   2.48882744E+06   0.29723197      
  9                6.30957344E-07   3.46191445E-04   720.75148762     1.36061451E-08   3.47901759E+15   5.95203188E+08   0.00000000E+00   2.46866607E+06   0.29711893      
  10               7.94328235E-07   4.40940403E-04   737.87502665     1.69281344E-08   4.32835549E+15   5.95203188E+08   0.00000000E+00   2.44892338E+06   0.29695467      
  11               1.00000000E-06   5.57878002E-04   739.73063861     2.13634723E-08   5.46250025E+15   5.95203189E+08   0.00000000E+00   2.42947797E+06   0.29683259      
  12               1.25892541E-06   7.02463236E-04   756.56807142     2.63020158E-08   6.72514156E+15   5.95203188E+08   0.00000000E+00   2.41018954E+06   0.29665376      
  13               1.58489319E-06   8.80905277E-04   758.73019201     3.28889643E-08   8.40945179E+15   5.95203189E+08   0.00000000E+00   2.39100370E+06   0.29652033      
  14               1.99526231E-06   1.10146137E-03   775.54359497     4.02326313E-08   1.02870037E+16   5.95203188E+08   0.00000000E+00   2.37182992E+06   0.29632638      
  15               2.51188643E-06   1.37369927E-03   778.03695924     5.00152624E-08   1.27884315E+16   5.95203189E+08   0.00000000E+00   2.35263834E+06   0.29617959      
  16               3.16227766E-06   1.71002481E-03   794.98803576     6.09340451E-08   1.55800074E+16   5.95203188E+08   0.00000000E+00   2.33337280E+06   0.29596586      
  17               3.98107171E-06   2.12489276E-03   797.80063449     7.54497280E-08   1.92916102E+16   5.95203189E+08   0.00000000E+00   2.31402402E+06   0.29580517      
  18               5.01187234E-06   2.63678954E-03   814.93841490     9.16585806E-08   2.34356237E+16   5.95203188E+08   0.00000000E+00   2.29455834E+06   0.29557022      
  19               6.30957344E-06   3.26726198E-03   818.02561598     1.13146137E-07   2.89296310E+16   5.95203189E+08   0.00000000E+00   2.27498062E+06   0.29539656      
  20               7.94328235E-06   4.04367055E-03   835.36155610     1.37130495E-07   3.50612278E+16   5.95203187E+08   0.00000000E+00   2.25526974E+06   0.29513994      
  21               1.00000000E-05   4.99788115E-03   838.70351734     1.68814608E-07   4.31621728E+16   5.95203189E+08   0.00000000E+00   2.23543738E+06   0.29495203      
  22               1.25892541E-05   6.17016166E-03   856.19698224     2.04156053E-07   5.21973782E+16   5.95203187E+08   0.00000000E+00   2.21546878E+06   0.29467352      
  23               1.58489319E-05   7.60731259E-03   859.77168742     2.50659581E-07   6.40875932E+16   5.95203190E+08   0.00000000E+00   2.19537873E+06   0.29447245      
  24               1.99526231E-05   9.36802712E-03   877.43316968     3.02466639E-07   7.73321226E+16   5.95203186E+08   0.00000000E+00   2.17515738E+06   0.29417313      
  25               2.51188643E-05   1.15203436E-02   881.15303331     3.70386246E-07   9.46978087E+16   5.95203190E+08   0.00000000E+00   2.15482250E+06   0.2939909       
  26               3.16227766E-05   1.41496099E-02   898.97930975     4.45905794E-07   1.14004136E+17   5.95203186E+08   0.00000000E+00   2.13436335E+06   0.29372878      
  27               3.98107171E-05   1.73554777E-02   902.93877086     5.44533271E-07   1.39220795E+17   5.95203190E+08   0.00000000E+00   2.11378960E+06   0.2934996       
  28               5.01187234E-05   2.12631082E-02   921.06721243     6.54017499E-07   1.67209622E+17   5.95203185E+08   0.00000000E+00   2.09308301E+06   0.29318111      
  29               6.30957344E-05   2.60206745E-02   925.34736793     7.96646438E-07   2.03675877E+17   5.95203191E+08   0.00000000E+00   2.07224008E+06   0.29296507      
  30               7.94328235E-05   3.18182713E-02   944.10956887     9.54802611E-07   2.44106880E+17   5.95203184E+08   0.00000000E+00   2.05121875E+06   0.29258257      
  31               1.00000000E-04   3.88839613E-02   949.08921742     1.16070114E-06   2.96749026E+17   5.95203192E+08   0.00000000E+00   2.02999417E+06   0.29223234      
  32               1.25892541E-04   4.75080579E-02   968.79582914     1.38930879E-06   3.55190103E+17   5.95203182E+08   0.00000000E+00   2.00851805E+06   0.29172872      
  33               1.58489319E-04   5.80405330E-02   974.77919116     1.68688580E-06   4.31271721E+17   5.95203193E+08   0.00000000E+00   1.98676153E+06   0.29140634      
  34               1.99526231E-04   7.09313703E-02   995.84183002     2.01796712E-06   5.15909856E+17   5.95203179E+08   0.00000000E+00   1.96466710E+06   0.29096654      
  35               2.51188643E-04   8.67264337E-02   1003.31006061    2.44893920E-06   6.26097775E+17   5.95203196E+08   0.00000000E+00   1.94219846E+06   0.29058958      
  36               3.16227766E-04   1.06132340E-01   1026.21665573    2.93004320E-06   7.49090896E+17   5.95203173E+08   0.00000000E+00   1.91928930E+06   0.28997201      
  37               3.98107171E-04   1.30016910E-01   1035.84275087    3.55602891E-06   9.09142268E+17   5.95203200E+08   0.00000000E+00   1.89589020E+06   0.2894857       
  38               5.01187234E-04   1.59509004E-01   1061.31548599    4.25795623E-06   1.08859552E+18   5.95203165E+08   0.00000000E+00   1.87192267E+06   0.28884677      
  39               6.30957344E-04   1.95984630E-01   1073.71427366    5.17113546E-06   1.32208423E+18   5.95203208E+08   0.00000000E+00   1.84734104E+06   0.28834817      
  40               7.94328235E-04   2.41235056E-01   1102.40277950    6.19942326E-06   1.58498793E+18   5.95203152E+08   0.00000000E+00   1.82206815E+06   0.28759827      
  41               1.00000000E-03   2.97441023E-01   1118.52946828    7.53346999E-06   1.92610197E+18   5.95203218E+08   0.00000000E+00   1.79605993E+06   0.28691847      
  42               1.25892541E-03   3.67440989E-01   1151.20531354    9.04216486E-06   2.31185534E+18   5.95203134E+08   0.00000000E+00   1.76923955E+06   0.28597303      
  43               1.58489319E-03   4.54674763E-01   1171.89569700    1.09910405E-05   2.81020324E+18   5.95203232E+08   0.00000000E+00   1.74156818E+06   0.28510415      
  44               1.99526231E-03   5.63637729E-01   1209.61502276    1.31999943E-05   3.37503845E+18   5.95203110E+08   0.00000000E+00   1.71296111E+06   0.28388777      
  45               2.51188643E-03   6.99519727E-01   1236.06531383    1.60312857E-05   4.09906105E+18   5.95203250E+08   0.00000000E+00   1.68342233E+06   0.28273439      
  46               3.16227766E-03   8.68593398E-01   1279.85541420    1.92246437E-05   4.91565566E+18   5.95203077E+08   0.00000000E+00   1.65296699E+06   0.28124247      
  47               3.98107171E-03   1.07758034E+00   1312.90637266    2.32492279E-05   5.94486151E+18   5.95203275E+08   0.00000000E+00   1.62170711E+06   0.27991143      
  48               5.01187234E-03   1.33409571E+00   1363.18325913    2.77216561E-05   7.08856920E+18   5.95203033E+08   0.00000000E+00   1.58975493E+06   0.27833069      
  49               6.30957344E-03   1.64472694E+00   1402.55479012    3.32166286E-05   8.49375655E+18   5.95203314E+08   0.00000000E+00   1.55738368E+06   0.27683624      
  50               7.94328235E-03   2.01690055E+00   1458.02255839    3.91834093E-05   1.00195007E+19   5.95202966E+08   0.00000000E+00   1.52476109E+06   0.27490868      
  51               1.00000000E-02   2.45347987E+00   1501.52137092    4.62917855E-05   1.18352332E+19   5.95203184E+08   0.00000000E+00   1.49234384E+06   0.27316179      
  52               1.25892541E-02   2.95241501E+00   1559.49176036    5.36438458E-05   1.37126111E+19   5.95202910E+08   0.00000000E+00   1.46068117E+06   0.27114376      
  53               1.58489319E-02   3.50626214E+00   1604.26857792    6.19419634E-05   1.58304458E+19   5.95203783E+08   0.00000000E+00   1.43029650E+06   0.26937074      
  54               1.99526231E-02   4.09884646E+00   1661.03356322    6.99459787E-05   1.78734785E+19   5.95202537E+08   0.00000000E+00   1.40182689E+06   0.26733622      
  55               2.51188643E-02   4.69660346E+00   1702.93360448    7.82091081E-05   1.99761604E+19   5.95203627E+08   0.00000000E+00   1.37626870E+06   0.26555812      
  56               3.16227766E-02   5.25425210E+00   1754.05099313    8.49946660E-05   2.16967423E+19   5.95203208E+08   0.00000000E+00   1.35463894E+06   0.26355323      
  57               3.98107171E-02   5.74337956E+00   1795.49978973    9.08156861E-05   2.31690379E+19   5.92297533E+08   2.90571753E+06   1.33703271E+06   0.26187807      
  58               5.01187234E-02   6.14694190E+00   1827.63301722    9.55147373E-05   2.43610472E+19   5.88589432E+08   6.61384959E+06   1.32333004E+06   0.26037425      
  59               6.30957344E-02   6.53260653E+00   1856.71639429    9.99259749E-05   2.54839514E+19   5.84274593E+08   1.14433846E+07   1.31084636E+06   0.25898169      
  60               7.94328235E-02   6.93846884E+00   1885.87567396    1.04489578E-04   2.66487243E+19   5.78958837E+08   1.62446301E+07   1.29828596E+06   0.25769669      
  61               1.00000000E-01   7.34226181E+00   1913.47368532    1.09004020E-04   2.77928582E+19   5.72668639E+08   2.25349301E+07   1.28632080E+06   0.25683648      
  62               1.25892541E-01   7.68037976E+00   1935.73089945    1.12741969E-04   2.87384639E+19   5.66311704E+08   2.88918505E+07   1.27667536E+06   0.25619082      
  63               1.58489319E-01   7.99556469E+00   1955.72149969    1.16200532E-04   2.96120157E+19   5.59811043E+08   3.53924395E+07   1.26796701E+06   0.25542149      
  64               1.99526231E-01   8.32718202E+00   1976.12651276    1.19767194E-04   3.05217304E+19   5.52859406E+08   4.23438775E+07   1.25907777E+06   0.25448531      
  65               2.51188643E-01   8.72174801E+00   1999.47319401    1.23973408E-04   3.15946674E+19   5.44802191E+08   5.04008763E+07   1.24883809E+06   0.25337817      
  66               3.16227766E-01   9.18837413E+00   2026.02622912    1.28889102E-04   3.28487953E+19   5.35419140E+08   5.97838982E+07   1.23716470E+06   0.25208092      
  67               3.98107171E-01   9.73752348E+00   2055.78328618    1.34607899E-04   3.43081284E+19   5.24513319E+08   7.06897536E+07   1.22398069E+06   0.2506046       
  68               5.01187234E-01   1.03812191E+01   2088.96249094    1.41217060E-04   3.59951141E+19   5.11776574E+08   8.34264889E+07   1.20921674E+06   0.24887527      
  69               6.30957344E-01   1.11324605E+01   2125.44016296    1.48824221E-04   3.79374485E+19   4.96761927E+08   9.84411087E+07   1.19282973E+06   0.24691878      
  70               7.94328235E-01   1.20045603E+01   2165.27054460    1.57513253E-04   4.01568770E+19   4.78993381E+08   1.16209644E+08   1.17481731E+06   0.24473685      
  71               1.00000000E+00   1.30121409E+01   2208.17412976    1.67393039E-04   4.26816579E+19   4.58080130E+08   1.37122916E+08   1.15519483E+06   0.24230855      
  72               1.25892541E+00   1.41714111E+01   2254.11678973    1.78559017E-04   4.55368015E+19   4.33735132E+08   1.61467953E+08   1.13399039E+06   0.23950339      
  73               1.58489319E+00   1.55003307E+01   2302.69126597    1.91147803E-04   4.87563391E+19   4.05944831E+08   1.89258304E+08   1.11124310E+06   0.23642896      
  74               1.99526231E+00   1.70191770E+01   2353.86035567    2.05266820E-04   5.23701359E+19   3.74989772E+08   2.20213419E+08   1.08699505E+06   0.2330551       
  75               2.51188643E+00   1.87510026E+01   2407.17587389    2.21079561E-04   5.64212251E+19   3.41455984E+08   2.53747267E+08   1.06128646E+06   0.22945946      
  76               3.16227766E+00   2.07220723E+01   2462.63833888    2.38721217E-04   6.09478496E+19   3.06173863E+08   2.89029451E+08   1.03415419E+06   0.22564155      
  77               3.98107171E+00   2.29622347E+01   2519.79031298    2.58404726E-04   6.60048107E+19   2.70187463E+08   3.25015926E+08   1.00563164E+06   0.22164529      
  78               5.01187234E+00   2.55057053E+01   2578.67404577    2.80314690E-04   7.16418395E+19   2.34824159E+08   3.60379316E+08   9.75746256E+05   0.21745836      
  79               6.30957344E+00   2.83916654E+01   2638.83039741    3.04716700E-04   7.79300993E+19   2.01536131E+08   3.93667406E+08   9.44519615E+05   0.21320129      
  80               7.94328235E+00   3.16647769E+01   2700.39204556    3.31843257E-04   8.49328021E+19   1.71595104E+08   4.23608450E+08   9.11969473E+05   0.20889385      
  81               1.00000000E+01   3.53753883E+01   2762.90121872    3.62023467E-04   9.27388482E+19   1.45644470E+08   4.49559072E+08   8.78114847E+05   0.204466        
  82               1.25892541E+01   3.95801773E+01   2826.45510117    3.95551375E-04   1.01428846E+20   1.23709694E+08   4.71493836E+08   8.42976409E+05   0.20025015      
  83               1.58489319E+01   4.43425146E+01   2890.78535525    4.32797106E-04   1.11104158E+20   1.05148207E+08   4.90055310E+08   8.06577766E+05   0.19614853      
  84               1.99526231E+01   4.97327034E+01   2955.93593149    4.74116462E-04   1.21863288E+20   8.93283467E+07   5.05875146E+08   7.68948259E+05   0.19218587      
  85               2.51188643E+01   5.58282972E+01   3021.64073299    5.19938722E-04   1.33825044E+20   7.57153534E+07   5.19488124E+08   7.30123644E+05   0.18839096      
  86               3.16227766E+01   6.27100264E+01   3087.92492788    5.70637040E-04   1.47094383E+20   6.40337785E+07   5.31169748E+08   6.90170439E+05   0.18469959      
  87               3.98107171E+01   7.04549667E+01   3154.34810851    6.26597058E-04   1.61781119E+20   5.41351012E+07   5.41068561E+08   6.49210969E+05   0.18130175      
  88               5.01187234E+01   7.91454277E+01   3221.03724105    6.88121083E-04   1.77973739E+20   4.57450275E+07   5.49458825E+08   6.07357951E+05   0.17815961      
  89               6.30957344E+01   8.88712535E+01   3287.59460548    7.55648402E-04   1.95798286E+20   3.85773601E+07   5.56626727E+08   5.64705414E+05   0.17524878      
  90               7.94328235E+01   9.97314494E+01   3354.23128474    8.29537496E-04   2.15359962E+20   3.24879369E+07   5.62716419E+08   5.21327321E+05   0.17266019      
  91               1.00000000E+02   1.11836123E+02   3420.69538882    9.10299345E-04   2.36806457E+20   2.72844411E+07   5.67920221E+08   4.77276537E+05   0.17034148      
  92               1.25892541E+02   1.25308671E+02   3487.25058994    9.98385199E-04   2.60269818E+20   2.28908209E+07   5.72314205E+08   4.32585625E+05   0.16825149      
  93               1.58489319E+02   1.40285811E+02   3553.66549699    1.09442394E-03   2.85932183E+20   1.92283858E+07   5.75977095E+08   3.87275257E+05   0.16641069      
  94               1.99526231E+02   1.56920020E+02   3620.27707594    1.19895364E-03   3.13951371E+20   1.61771507E+07   5.79028914E+08   3.41353481E+05   0.16473838      
  95               2.51188643E+02   1.75384544E+02   3686.83064959    1.31277525E-03   3.44559294E+20   1.36075254E+07   5.81599289E+08   2.94810715E+05   0.16324368      
  96               3.16227766E+02   1.95877149E+02   3753.73587248    1.43658687E-03   3.77960054E+20   1.14470882E+07   5.83760663E+08   2.47621101E+05   0.1619501       
  97               3.98107171E+02   2.18624235E+02   3820.79322887    1.57140377E-03   4.14448534E+20   9.61430250E+06   5.85594574E+08   1.99744164E+05   0.16080696      
  98               5.01187234E+02   2.43885428E+02   3888.42211660    1.71815470E-03   4.54295346E+20   8.06913214E+06   5.87141059E+08   1.51127043E+05   0.15978483      
  99               6.30957344E+02   2.71958441E+02   3956.41923340    1.87814844E-03   4.97881602E+20   6.78414145E+06   5.88427550E+08   1.01706960E+05   0.15893767      
  100              7.94328235E+02   3.03178587E+02   4025.27426196    2.05251971E-03   5.45542874E+20   5.73365527E+06   5.89479705E+08   5.14221358E+04   0.15828775      
  101              1.00000000E+03   3.38074223E+02   4095.08021769    2.24372140E-03   5.97964614E+20   5.25218351E+06   5.89962558E+08   0.00000000E+00   0.15781422      
