# ATMO pressure-temperature profile
# Effective temperature = 2700.0K
# log(g) = 3.0cm/s^2
# M/H = 0.0
# Optical depth grid in band 17 (1.20-1.33microns)
# All parameters in cgs units
#
# Model Level      Optical Depth    Pressure         Temperature      Density          Number Density   Rad Flux         Conv Flux        Radial Extension Adiabatic Gradient
#                                   [Ba]             [K]              [g/cm^3]         [/cm^3]          [ergs/s/cm^2/sr] [ergs/s/cm^2/sr] [cm]             [K/Ba]          
  1                1.00000000E-05   1.00000000E-05   1403.99947939    2.01758246E-10   5.15892118E+13   3.01321847E+09   0.00000000E+00   1.52693953E+09   0.27617917      
  2                1.20226443E-05   1.22517175E-05   1231.31064330    2.82032163E-10   7.20701091E+13   3.01321847E+09   0.00000000E+00   1.51749797E+09   0.28021874      
  3                1.44543977E-05   1.42493563E-05   1582.35614182    2.54611994E-10   6.52254146E+13   3.01321847E+09   0.00000000E+00   1.51002398E+09   0.27153227      
  4                1.73780083E-05   1.59315238E-05   1355.93445159    3.33913511E-10   8.51029198E+13   3.01321847E+09   0.00000000E+00   1.50424638E+09   0.27642335      
  5                2.08929613E-05   1.78712249E-05   1643.05969010    3.06404962E-10   7.87819668E+13   3.01321847E+09   0.00000000E+00   1.49816551E+09   0.27033464      
  6                2.51188643E-05   2.00773671E-05   1423.43236238    4.00699113E-10   1.02163500E+14   3.01321847E+09   0.00000000E+00   1.49185576E+09   0.27400405      
  7                3.01995172E-05   2.25752345E-05   1709.64074657    3.69673559E-10   9.56430133E+13   3.01321847E+09   0.00000000E+00   1.48533796E+09   0.2696066       
  8                3.63078055E-05   2.49753370E-05   1561.89202792    4.53086866E-10   1.15820701E+14   3.01321847E+09   0.00000000E+00   1.47946196E+09   0.27120082      
  9                4.36515832E-05   2.77648745E-05   1751.11455117    4.41786847E-10   1.14843653E+14   3.01321847E+09   0.00000000E+00   1.47320722E+09   0.26938716      
  10               5.24807460E-05   3.09970541E-05   1603.77778644    5.46906730E-10   1.39991629E+14   3.01321847E+09   0.00000000E+00   1.46661577E+09   0.27028288      
  11               6.30957344E-05   3.47725205E-05   1787.48631089    5.39625003E-10   1.40902691E+14   3.01321847E+09   0.00000000E+00   1.45964166E+09   0.26928069      
  12               7.58577575E-05   3.91654440E-05   1642.64066236    6.73665353E-10   1.72697609E+14   3.01321847E+09   0.00000000E+00   1.45233571E+09   0.26950574      
  13               9.12010839E-05   4.43074796E-05   1822.44541994    6.71392731E-10   1.76095539E+14   3.01321847E+09   0.00000000E+00   1.44466077E+09   0.26924538      
  14               1.09647820E-04   5.03014763E-05   1680.62192815    8.44208291E-10   2.16788652E+14   3.01321847E+09   0.00000000E+00   1.43667514E+09   0.26882041      
  15               1.31825674E-04   5.73245878E-05   1857.00890596    8.48594017E-10   2.23590215E+14   3.01321847E+09   0.00000000E+00   1.42834382E+09   0.26926423      
  16               1.58489319E-04   6.55177940E-05   1718.65816231    1.07313410E-09   2.76118561E+14   3.01321847E+09   0.00000000E+00   1.41973048E+09   0.26820893      
  17               1.90546072E-04   7.51213686E-05   1891.73225613    1.08652508E-09   2.87627007E+14   3.01321847E+09   0.00000000E+00   1.41079883E+09   0.26933171      
  18               2.29086765E-04   8.63265462E-05   1757.35205614    1.37969157E-09   3.55804496E+14   3.01321847E+09   0.00000000E+00   1.40161623E+09   0.26766599      
  19               2.75422870E-04   9.94593483E-05   1927.07854029    1.40525052E-09   3.73828178E+14   3.01321847E+09   0.00000000E+00   1.39214294E+09   0.26945295      
  20               3.31131121E-04   1.14776520E-04   1797.24774259    1.78889567E-09   4.62563057E+14   3.01321847E+09   0.00000000E+00   1.38244892E+09   0.12005212      
  21               3.98107171E-04   1.32719215E-04   1963.52381177    1.83073613E-09   4.89579777E+14   3.01321847E+09   0.00000000E+00   1.37248926E+09   0.080008697     
  22               4.78630092E-04   1.53628073E-04   1838.93844912    2.33271791E-09   6.05102892E+14   3.01321847E+09   0.00000000E+00   1.36233633E+09   0.11262771      
  23               5.75439937E-04   1.78096921E-04   2001.63362600    2.39592834E-09   6.44462518E+14   3.01321847E+09   0.00000000E+00   1.35193838E+09   0.077825365     
  24               6.91830971E-04   2.06569525E-04   1883.23409150    3.05084364E-09   7.94488808E+14   3.01321847E+09   0.00000000E+00   1.34137097E+09   0.1056003       
  25               8.31763771E-04   2.39837430E-04   2042.27880630    3.14092699E-09   8.50604687E+14   3.01321847E+09   0.00000000E+00   1.33057335E+09   0.075823177     
  26               1.00000000E-03   2.78459133E-04   1931.53221619    3.98943198E-09   1.04420399E+15   3.01321847E+09   0.00000000E+00   1.31962662E+09   0.099035458     
  27               1.20226443E-03   3.23467927E-04   2087.17079556    4.10950553E-09   1.12253289E+15   3.01321847E+09   0.00000000E+00   1.30845664E+09   0.073870207     
  28               1.44543977E-03   3.75496336E-04   1987.44204887    5.18978301E-09   1.36847563E+15   3.01321847E+09   0.00000000E+00   1.29715628E+09   0.091800569     
  29               1.73780083E-03   4.35752568E-04   2143.71203311    5.31377717E-09   1.47231029E+15   3.01321847E+09   0.00000000E+00   1.28561911E+09   0.070965556     
  30               2.08929613E-03   5.01250532E-04   2165.15909685    6.02438158E-09   1.67683709E+15   3.00806835E+09   5.15016973E+06   1.27404243E+09   0.070285824     
  31               2.51188643E-03   5.77839659E-04   2187.08488737    6.84284661E-09   1.91367219E+15   3.00261208E+09   1.06064226E+07   1.26211334E+09   0.069776446     
  32               3.01995172E-03   6.67355311E-04   2209.46052125    7.78480333E-09   2.18774507E+15   2.99644829E+09   1.67702374E+07   1.24984822E+09   0.06936886      
  33               3.63078055E-03   7.71929247E-04   2232.23730237    8.86827089E-09   2.50474186E+15   2.98934528E+09   2.38732181E+07   1.23726199E+09   0.068911826     
  34               4.36515832E-03   8.94038007E-04   2255.32274829    1.01143619E-08   2.87126397E+15   2.98110020E+09   3.21183234E+07   1.22436841E+09   0.068612122     
  35               5.24807460E-03   1.03654673E-03   2278.82080095    1.15451560E-08   3.29461410E+15   2.97150151E+09   4.17169856E+07   1.21118013E+09   0.068267626     
  36               6.30957344E-03   1.20277177E-03   2302.51389114    1.31893958E-08   3.78361385E+15   2.96033595E+09   5.28825644E+07   1.19770914E+09   0.068223531     
  37               7.58577575E-03   1.39652801E-03   2326.75457988    1.50720732E-08   4.34735308E+15   2.94735158E+09   6.58669042E+07   1.18396641E+09   0.068042407     
  38               9.12010839E-03   1.62082865E-03   2350.88789469    1.72227604E-08   4.99379861E+15   2.93227076E+09   8.09477494E+07   1.17004384E+09   0.068124923     
  39               1.09647820E-02   1.88037063E-03   2375.58658082    1.96623571E-08   5.73321772E+15   2.91483200E+09   9.83864783E+07   1.15593944E+09   0.06796449      
  40               1.31825674E-02   2.18230848E-03   2400.12730893    2.24649474E-08   6.58578732E+15   2.89484866E+09   1.18369863E+08   1.14157258E+09   0.068099201     
  41               1.58489319E-02   2.53319217E-03   2425.55023186    2.56547877E-08   7.56456054E+15   2.87200669E+09   1.41211782E+08   1.12695610E+09   0.068056092     
  42               1.90546072E-02   2.94048968E-03   2450.61167256    2.93153188E-08   8.69102504E+15   2.84604137E+09   1.67177153E+08   1.11210377E+09   0.068336335     
  43               2.29086765E-02   3.41252760E-03   2476.73943648    3.34623666E-08   9.97979666E+15   2.81661370E+09   1.96604776E+08   1.09703187E+09   0.068407596     
  44               2.75422870E-02   3.95732991E-03   2502.20681435    3.82009228E-08   1.14552585E+16   2.78345902E+09   2.29759511E+08   1.08179353E+09   0.068737016     
  45               3.31131121E-02   4.58575309E-03   2528.86191069    4.35354331E-08   1.31344349E+16   2.74621679E+09   2.67001682E+08   1.06638324E+09   0.068819899     
  46               3.98107171E-02   5.31012685E-03   2554.65668201    4.96343512E-08   1.50556043E+16   2.70466191E+09   3.08556638E+08   1.05079980E+09   0.069183767     
  47               4.78630092E-02   6.14437219E-03   2581.86682393    5.64776054E-08   1.72373110E+16   2.65846781E+09   3.54750671E+08   1.03504251E+09   0.06937943      
  48               5.75439937E-02   7.10412697E-03   2608.05136128    6.42975831E-08   1.97296970E+16   2.60747600E+09   4.05742556E+08   1.01911538E+09   0.06982444      
  49               6.91830971E-02   8.20690325E-03   2635.84855089    7.30369542E-08   2.25519812E+16   2.55139831E+09   4.61820164E+08   1.00302243E+09   0.070110691     
  50               8.31763771E-02   9.47214598E-03   2662.44388128    8.30106679E-08   2.57687742E+16   2.49012532E+09   5.23093251E+08   9.86772631E+08   0.070578398     
  51               1.00000000E-01   1.09214431E-02   2690.78962238    9.41076950E-08   2.93985643E+16   2.42333927E+09   5.89879283E+08   9.70374477E+08   0.07005354      
  52               1.20226443E-01   1.25787277E-02   2717.07890321    1.06820767E-07   3.35320655E+16   2.35168077E+09   6.61537774E+08   9.53844711E+08   0.071101881     
  53               1.44543977E-01   1.44699853E-02   2746.35114346    1.20770440E-07   3.81625920E+16   2.27471727E+09   7.38501293E+08   9.37192919E+08   0.072138513     
  54               1.73780083E-01   1.66232421E-02   2773.45069770    1.36689658E-07   4.34131321E+16   2.19223688E+09   8.20981675E+08   9.20433516E+08   0.073056048     
  55               2.08929613E-01   1.90692527E-02   2803.44372716    1.54073265E-07   4.92683106E+16   2.10390845E+09   9.09310043E+08   9.03577838E+08   0.073823219     
  56               2.51188643E-01   2.18409615E-02   2831.03771389    1.73850666E-07   5.58794261E+16   2.00957639E+09   1.00364225E+09   8.86641996E+08   0.074290199     
  57               3.01995172E-01   2.49745143E-02   2861.29615324    1.95373572E-07   6.32208134E+16   1.90905127E+09   1.10416715E+09   8.69638639E+08   0.074293878     
  58               3.63078055E-01   2.85088393E-02   2888.69254707    2.19851137E-07   7.14832113E+16   1.80289146E+09   1.21032729E+09   8.52584934E+08   0.074364371     
  59               4.36515832E-01   3.24866291E-02   2918.82171742    2.46358250E-07   8.06163109E+16   1.69149311E+09   1.32172539E+09   8.35492226E+08   0.074420496     
  60               5.24807460E-01   3.69536979E-02   2945.98784613    2.76419553E-07   9.08558284E+16   1.57592059E+09   1.43729814E+09   8.18373838E+08   0.074846249     
  61               6.30957344E-01   4.19601553E-02   2976.20381966    3.08752002E-07   1.02117520E+17   1.45698524E+09   1.55623352E+09   8.01235949E+08   0.075505942     
  62               7.58577575E-01   4.75595506E-02   3003.55504894    3.45257811E-07   1.14690642E+17   1.33600534E+09   1.67721328E+09   7.84085623E+08   0.076360464     
  63               9.12010839E-01   5.38101477E-02   3034.14707756    3.84289213E-07   1.28455704E+17   1.21434332E+09   1.79887572E+09   7.66924852E+08   0.077505228     
  64               1.09647820E+00   6.07720536E-02   3062.00813881    4.28135021E-07   1.43755150E+17   1.09346692E+09   1.91975164E+09   7.49760908E+08   0.078427844     
  65               1.31825674E+00   6.85126612E-02   3092.98207150    4.74855232E-07   1.60442446E+17   9.75373680E+08   2.03784513E+09   7.32592883E+08   0.079415423     
  66               1.58489319E+00   7.71053666E-02   3121.21237123    5.27192797E-07   1.78931633E+17   8.62116644E+08   2.15110191E+09   7.15418816E+08   0.080071272     
  67               1.90546072E+00   8.66337274E-02   3152.38157328    5.82901272E-07   1.99055444E+17   7.56110281E+08   2.25710880E+09   6.98229771E+08   0.080738041     
  68               2.29086765E+00   9.71895892E-02   3180.78964784    6.45241839E-07   2.21314891E+17   6.59191215E+08   2.35402737E+09   6.81017303E+08   0.081139067     
  69               2.75422870E+00   1.08877737E-01   3212.03797833    7.11598725E-07   2.45518519E+17   5.73030644E+08   2.44018802E+09   6.63767597E+08   0.081553635     
  70               3.31131121E+00   1.21813770E-01   3240.53110915    7.85849966E-07   2.72273910E+17   4.98209395E+08   2.51500920E+09   6.46468586E+08   0.081998224     
  71               3.98107171E+00   1.36128333E-01   3271.99407134    8.64812030E-07   3.01343521E+17   4.34788987E+08   2.57842991E+09   6.29104120E+08   0.08274598      
  72               4.78630092E+00   1.51964119E-01   3300.92420268    9.53016419E-07   3.33450478E+17   3.80956169E+08   2.63226239E+09   6.11660521E+08   0.0835213       
  73               5.75439937E+00   1.69482317E-01   3332.95219920    1.04674858E-06   3.68316475E+17   3.35881208E+08   2.67733798E+09   5.94120423E+08   0.084658152     
  74               6.91830971E+00   1.88858729E-01   3362.71446497    1.15122738E-06   4.06792475E+17   2.96620833E+08   2.71659770E+09   5.76469002E+08   0.08562721      
  75               8.31763771E+00   2.10293278E-01   3395.56142160    1.26233220E-06   4.48579725E+17   2.63095219E+08   2.75012409E+09   5.58687792E+08   0.086836079     
  76               1.00000000E+01   2.34005353E-01   3426.32795209    1.38602627E-06   4.94678120E+17   2.32568655E+08   2.78064988E+09   5.40760871E+08   0.087660036     
  77               1.20226443E+01   2.60246053E-01   3460.00949713    1.51791382E-06   5.44794481E+17   2.06107853E+08   2.80711148E+09   5.22669118E+08   0.088595295     
  78               1.44543977E+01   2.89292536E-01   3491.71039138    1.66474769E-06   6.00101695E+17   1.81568477E+08   2.83165287E+09   5.04396330E+08   0.08921297      
  79               1.73780083E+01   3.21460997E-01   3526.20503343    1.82175276E-06   6.60308010E+17   1.60562175E+08   2.85265767E+09   4.85923831E+08   0.09007684      
  80               2.08929613E+01   3.57099852E-01   3558.92248079    1.99643513E-06   7.26769982E+17   1.41082924E+08   2.87214017E+09   4.67235923E+08   0.090741544     
  81               2.51188643E+01   3.96604781E-01   3594.39481169    2.18364478E-06   7.99204657E+17   1.24675003E+08   2.88855934E+09   4.48314803E+08   0.091754607     
  82               3.01995172E+01   4.40411767E-01   3628.37357325    2.39164644E-06   8.79169795E+17   1.09525768E+08   2.90369489E+09   4.29145179E+08   0.092641053     
  83               3.63078055E+01   4.89014468E-01   3665.11802132    2.61495902E-06   9.66405925E+17   9.69976738E+07   2.91624946E+09   4.09709765E+08   0.094026459     
  84               4.36515832E+01   5.42956768E-01   3700.77570034    2.86245191E-06   1.06266977E+18   8.54220568E+07   2.92780332E+09   3.89992872E+08   0.095320067     
  85               5.24807460E+01   6.02853106E-01   3739.23598462    3.12850945E-06   1.16776235E+18   7.57145182E+07   2.93754187E+09   3.69976861E+08   0.09691117      
  86               6.30957344E+01   6.69383997E-01   3776.87415417    3.42295699E-06   1.28371510E+18   6.65833625E+07   2.94665085E+09   3.49645545E+08   0.098263316     
  87               7.58577575E+01   7.43317157E-01   3817.23648579    3.74018218E-06   1.41042803E+18   5.87118491E+07   2.95457135E+09   3.28981852E+08   0.099537602     
  88               9.12010839E+01   8.25505455E-01   3856.74744222    4.09157541E-06   1.55033156E+18   5.13240655E+07   2.96193148E+09   3.07971641E+08   0.10059755      
  89               1.09647820E+02   9.16904631E-01   3898.91097679    4.47097090E-06   1.70336095E+18   4.50455294E+07   2.96827763E+09   2.86601279E+08   0.10166187      
  90               1.31825674E+02   1.01857144E+00   3940.24616784    4.89135064E-06   1.87237994E+18   3.93399535E+07   2.97397306E+09   2.64860453E+08   0.10293886      
  91               1.58489319E+02   1.13167743E+00   3984.49891547    5.34492364E-06   2.05719179E+18   3.46148069E+07   2.97876206E+09   2.42738849E+08   0.10451837      
  92               1.90546072E+02   1.25750976E+00   4028.18636847    5.84647168E-06   2.26114102E+18   3.03508811E+07   2.98305079E+09   2.20228225E+08   0.10650241      
  93               2.29086765E+02   1.39748107E+00   4075.22303860    6.38626488E-06   2.48382155E+18   2.67718324E+07   2.98662615E+09   1.97320269E+08   0.10860533      
  94               2.75422870E+02   1.55313340E+00   4121.80027644    6.98215408E-06   2.72927725E+18   2.34885899E+07   2.99032606E+09   1.74009748E+08   0.11096188      
  95               3.31131121E+02   1.72613433E+00   4172.02949829    7.62198371E-06   2.99676756E+18   2.07369726E+07   2.99311939E+09   1.50293856E+08   0.11346895      
  96               3.98107171E+02   1.91828094E+00   4221.91154128    8.32644899E-06   3.29100788E+18   1.81180989E+07   2.99580015E+09   1.26173408E+08   0.11559409      
  97               4.78630092E+02   2.13148051E+00   4275.15970349    9.08322822E-06   3.61122761E+18   1.58597142E+07   2.99821438E+09   1.01656973E+08   0.11743316      
  98               5.75439937E+02   2.36776340E+00   4327.73294824    9.91573883E-06   3.96281400E+18   1.37718423E+07   3.00063403E+09   7.67588443E+07   0.11915082      
  99               6.91830971E+02   2.62923662E+00   4383.55759519    1.08085794E-05   4.34438989E+18   1.20627549E+07   3.00283322E+09   5.15007010E+07   0.12145564      
  100              8.31763771E+02   2.91809484E+00   4439.12164716    1.17843588E-05   4.76132904E+18   1.05530883E+07   3.00487534E+09   2.59050922E+07   0.12440999      
  101              1.00000000E+03   3.23652671E+00   4498.49274014    1.28233827E-05   5.21120324E+18   1.00483404E+07   3.00583681E+09   0.00000000E+00   0.12814903      
