# ATMO pressure-temperature profile
# Effective temperature = 400.0K
# log(g) = 3.5cm/s^2
# M/H = 0.0
# Optical depth grid in band 17 (1.20-1.33microns)
# All parameters in cgs units
#
# Model Level      Optical Depth    Pressure         Temperature      Density          Number Density   Rad Flux         Conv Flux        Radial Extension Adiabatic Gradient
#                                   [Ba]             [K]              [g/cm^3]         [/cm^3]          [ergs/s/cm^2/sr] [ergs/s/cm^2/sr] [cm]             [K/Ba]          
  1                5.00000000E-05   1.00000000E-05   53.73058861      5.24550843E-09   1.34804454E+15   1.45139633E+06   0.00000000E+00   9.14556725E+07   0.34582128      
  2                5.91534807E-05   1.51173948E-04   70.34799834      6.05667677E-08   1.55650690E+16   1.45139633E+06   0.00000000E+00   8.89510426E+07   0.31479426      
  3                6.99826855E-05   3.16497167E-04   77.07465831      1.15735717E-07   2.97429512E+16   1.45139633E+06   0.00000000E+00   8.83266138E+07   0.31482227      
  4                8.27943887E-05   5.01880170E-04   87.08969067      1.62421111E-07   4.17406423E+16   1.45139633E+06   0.00000000E+00   8.78990361E+07   0.31484243      
  5                9.79515255E-05   7.10744200E-04   91.23873372      2.19554965E-07   5.64234861E+16   1.45139630E+06   0.00000000E+00   8.75492756E+07   0.31485804      
  6                1.15883473E-04   9.49377223E-04   100.63296657     2.65891915E-07   6.83320377E+16   1.45139611E+06   2.24465665E-01   8.72369509E+07   0.31487103      
  7                1.37098216E-04   1.20611762E-03   107.76995220     3.15430762E-07   8.10620926E+16   1.45139463E+06   1.70808796E+00   8.69566048E+07   0.31776509      
  8                1.62196734E-04   1.39656088E-03   113.76389018     3.46042838E-07   8.89162783E+16   1.45139154E+06   4.86192550E+00   8.67743123E+07   0.32011564      
  9                1.91890027E-04   1.49149554E-03   115.35136223     3.64701928E-07   9.36537283E+16   1.45138892E+06   7.54370592E+00   8.66897984E+07   0.3212129       
  10               2.27019260E-04   1.56174886E-03   117.92334000     3.73551301E-07   9.59262055E+16   1.45138743E+06   8.85251281E+00   8.66296086E+07   0.32210741      
  11               2.68579588E-04   1.64461670E-03   119.04026100     3.89681378E-07   1.00068333E+17   1.45138681E+06   9.48155107E+00   8.65609245E+07   0.32290258      
  12               3.17748350E-04   1.74233231E-03   122.16422991     4.02277514E-07   1.03302961E+17   1.45138691E+06   9.43242042E+00   8.64828793E+07   0.32369851      
  13               3.75918418E-04   1.85751591E-03   123.82465917     4.23120657E-07   1.08655381E+17   1.45138770E+06   8.57842831E+00   8.63945925E+07   0.32441082      
  14               4.44737657E-04   1.99323914E-03   127.61416982     4.40554189E-07   1.13132230E+17   1.45138915E+06   7.16271576E+00   8.62951843E+07   0.32505734      
  15               5.26155608E-04   2.15310526E-03   129.91340852     4.67466090E-07   1.20043079E+17   1.45139120E+06   5.11043188E+00   8.61837852E+07   0.32554638      
  16               6.22478712E-04   2.34135856E-03   134.47990254     4.91076747E-07   1.26106183E+17   1.45139359E+06   2.72662161E+00   8.60595362E+07   0.32587055      
  17               7.36435649E-04   2.56297917E-03   137.50415263     5.25736452E-07   1.35006632E+17   1.45139588E+06   3.80031205E+02   8.59216085E+07   0.32596008      
  18               8.71254639E-04   2.82380230E-03   142.94861239     5.57177006E-07   1.43080412E+17   1.45139638E+06   0.00000000E+00   8.57692154E+07   0.32593745      
  19               1.03075489E-03   3.13088058E-03   145.13666983     6.08454603E-07   1.56248260E+17   1.45139588E+06   0.00000000E+00   8.56024375E+07   0.32579392      
  20               1.21945479E-03   3.49257217E-03   149.53371125     6.58787252E-07   1.69173415E+17   1.45139649E+06   0.00000000E+00   8.54217818E+07   0.32564645      
  21               1.44269991E-03   3.91843150E-03   152.28478875     7.25762621E-07   1.86372389E+17   1.45139633E+06   0.00000000E+00   8.52270233E+07   0.32516836      
  22               1.70681442E-03   4.41978678E-03   156.51253387     7.96510346E-07   2.04539898E+17   1.45139634E+06   0.00000000E+00   8.50185010E+07   0.32495263      
  23               2.01928028E-03   5.00983606E-03   159.50843742     8.85888107E-07   2.27491772E+17   1.45139628E+06   0.00000000E+00   8.47963730E+07   0.32420057      
  24               2.38894914E-03   5.70407244E-03   163.95857501     9.81276763E-07   2.51986188E+17   1.45139635E+06   0.00000000E+00   8.45609102E+07   0.32391643      
  25               2.82629313E-03   6.52064729E-03   167.21950583     1.09987574E-06   2.82442218E+17   1.45139626E+06   0.00000000E+00   8.43123518E+07   0.32289372      
  26               3.34370152E-03   7.48088971E-03   171.82965166     1.22800728E-06   3.15341393E+17   1.45139615E+06   0.00000000E+00   8.40510697E+07   0.32257336      
  27               3.95583167E-03   8.60969803E-03   175.04489604     1.38733652E-06   3.56257739E+17   1.45139609E+06   0.00000000E+00   8.37775877E+07   0.32139359      
  28               4.68002425E-03   9.93602299E-03   179.68127266     1.55981118E-06   4.00530518E+17   1.45139634E+06   0.00000000E+00   8.34924689E+07   0.32105947      
  29               5.53679448E-03   1.14931973E-02   182.88676413     1.77260438E-06   4.55181313E+17   1.45139629E+06   0.00000000E+00   8.31963301E+07   0.3199336       
  30               6.55041330E-03   1.33188613E-02   188.11628678     1.99739363E-06   5.12821869E+17   1.45139690E+06   0.00000000E+00   8.28895029E+07   0.31950534      
  31               7.74959494E-03   1.54549555E-02   191.89425916     2.27191894E-06   5.83353243E+17   1.45139740E+06   0.00000000E+00   8.25724059E+07   0.31786634      
  32               9.16831029E-03   1.79445528E-02   197.79846418     2.56079006E-06   6.57106197E+17   1.45139674E+06   0.00000000E+00   8.22459753E+07   0.31718772      
  33               1.08467493E-02   2.08260980E-02   202.31931803     2.90364711E-06   7.45583681E+17   1.45139720E+06   0.00000000E+00   8.19118061E+07   0.31556394      
  34               1.28324595E-02   2.40600000E-02   210.87781738     3.23494289E-06   8.26400488E+17   1.45123548E+06   1.61103152E+02   8.15777474E+07   0.31473365      
  35               1.51816929E-02   2.74575794E-02   220.71027527     3.52729343E-06   9.01084535E+17   1.45049544E+06   9.01837484E+02   8.12596827E+07   0.31277107      
  36               1.79609996E-02   3.14193158E-02   229.23533956     3.88612750E-06   9.92752506E+17   1.45066373E+06   7.32792013E+02   8.09213015E+07   0.31123576      
  37               2.12491128E-02   3.60356419E-02   240.19850044     4.25367067E-06   1.08664531E+18   1.45112534E+06   2.71061942E+02   8.05622506E+07   0.309491        
  38               2.51391797E-02   4.14123273E-02   249.68921729     4.70253181E-06   1.20131165E+18   1.45139615E+06   0.00000000E+00   8.01820902E+07   0.30813097      
  39               2.97413996E-02   4.76761142E-02   260.25197820     5.19408084E-06   1.32688307E+18   1.45139657E+06   0.00000000E+00   7.97813003E+07   0.30685323      
  40               3.51861462E-02   5.49742491E-02   269.26115613     5.78878596E-06   1.47880680E+18   1.45139612E+06   0.00000000E+00   7.93604150E+07   0.30582581      
  41               4.16276604E-02   6.34749398E-02   280.33499350     6.41987951E-06   1.64002634E+18   1.45139656E+06   0.00000000E+00   7.89194572E+07   0.30480021      
  42               4.92484201E-02   7.33705319E-02   290.47097133     7.16177748E-06   1.82955205E+18   1.45139623E+06   0.00000000E+00   7.84579612E+07   0.30396151      
  43               5.82643093E-02   8.48834549E-02   303.32371593     7.93448188E-06   2.02694759E+18   1.45139643E+06   0.00000000E+00   7.79749959E+07   0.30312961      
  44               6.89307339E-02   9.82608484E-02   317.16526525     8.78409014E-06   2.24398903E+18   1.44815848E+06   3.23788678E+03   7.74682809E+07   0.30236034      
  45               8.15498567E-02   1.13798881E-01   331.43739834     9.73505420E-06   2.48692289E+18   1.44098644E+06   1.04099968E+04   7.69369336E+07   0.30174445      
  46               9.64791575E-02   1.31839763E-01   346.58391042     1.07854908E-05   2.75526806E+18   1.42861697E+06   2.27794413E+04   7.63801728E+07   0.30122667      
  47               1.14141560E-01   1.52783073E-01   362.19301842     1.19601628E-05   3.05535027E+18   1.40969980E+06   4.16966455E+04   7.57970543E+07   0.30086672      
  48               1.35037411E-01   1.77095680E-01   378.76387186     1.32568773E-05   3.38661057E+18   1.38339836E+06   6.79981183E+04   7.51864746E+07   0.30057419      
  49               1.59758657E-01   2.05312724E-01   395.83728801     1.47062800E-05   3.75685991E+18   1.34994983E+06   1.01446764E+05   7.45474163E+07   0.30032172      
  50               1.89005613E-01   2.38041860E-01   413.94663252     1.63046932E-05   4.16519004E+18   1.31089957E+06   1.40497308E+05   7.38790311E+07   0.30006994      
  51               2.23606798E-01   2.75977773E-01   432.57770031     1.80889595E-05   4.62099840E+18   1.26865772E+06   1.82739037E+05   7.31804973E+07   0.29989709      
  52               2.64542408E-01   3.19953287E-01   452.33702689     2.00552451E-05   5.12330578E+18   1.22506031E+06   2.26336906E+05   7.24503840E+07   0.29978439      
  53               3.12972084E-01   3.70955296E-01   472.68490527     2.22512042E-05   5.68428287E+18   1.18100152E+06   2.70395359E+05   7.16869054E+07   0.29968703      
  54               3.70267763E-01   4.30212671E-01   494.31290124     2.46784067E-05   6.30386773E+18   1.14021219E+06   3.11185050E+05   7.08872215E+07   0.29953485      
  55               4.38052539E-01   4.99291595E-01   516.68108942     2.74010119E-05   6.99934706E+18   1.10736924E+06   3.44026990E+05   7.00471732E+07   0.29938039      
  56               5.18246648E-01   5.80339657E-01   540.65735940     3.04363995E-05   7.77474170E+18   1.08389579E+06   3.67500906E+05   6.91596829E+07   0.29924764      
  57               6.13121862E-01   6.76445325E-01   565.83242475     3.38980860E-05   8.65905919E+18   1.06443253E+06   3.86963386E+05   6.82135195E+07   0.29913142      
  58               7.25365844E-01   7.91990545E-01   593.35833639     3.78467896E-05   9.66782517E+18   1.04118525E+06   4.10211267E+05   6.71933983E+07   0.29891863      
  59               8.58158289E-01   9.32793080E-01   622.87881474     4.24622145E-05   1.08469489E+19   1.00817904E+06   4.43216884E+05   6.60826982E+07   0.29862652      
  60               1.01526100E+00   1.10611618E+00   655.60586553     4.78379927E-05   1.22203531E+19   9.64230708E+05   4.87165703E+05   6.48665936E+07   0.29829225      
  61               1.20112443E+00   1.31996297E+00   690.84369702     5.41740620E-05   1.38390981E+19   9.13297733E+05   5.38098069E+05   6.35382131E+07   0.29792962      
  62               1.42101382E+00   1.58160626E+00   729.30864244     6.14881644E-05   1.57077093E+19   8.61932879E+05   5.89463664E+05   6.21046402E+07   0.29738833      
  63               1.68115827E+00   1.89631416E+00   769.43889716     6.98774520E-05   1.78509770E+19   8.20508294E+05   6.30887073E+05   6.05863856E+07   0.29666748      
  64               1.98892727E+00   2.26858261E+00   811.68368461     7.92443746E-05   2.02438738E+19   7.97611310E+05   6.53785402E+05   5.90043912E+07   0.29581227      
  65               2.35303941E+00   2.70250774E+00   854.45145420     8.96768859E-05   2.29089610E+19   7.95505008E+05   6.55890145E+05   5.73766275E+07   0.29491114      
  66               2.78380943E+00   3.20089936E+00   898.42463748     1.01015882E-04   2.58057334E+19   8.12600865E+05   6.38795488E+05   5.57207199E+07   0.29381666      
  67               3.29344035E+00   3.76581554E+00   941.94263150     1.13353065E-04   2.89574576E+19   8.48118732E+05   6.03276789E+05   5.40512713E+07   0.29262375      
  68               3.89636920E+00   4.40200401E+00   986.22223492     1.26554077E-04   3.23296858E+19   8.99733275E+05   5.51662229E+05   5.23715705E+07   0.29126035      
  69               4.60967600E+00   5.11594420E+00   1029.86852418    1.40849767E-04   3.59807203E+19   9.66321175E+05   4.85075107E+05   5.06805544E+07   0.28988491      
  70               5.45356761E+00   5.91465896E+00   1074.38817855    1.56091125E-04   3.98744152E+19   1.04467707E+06   4.06717474E+05   4.89771189E+07   0.28838607      
  71               6.45195012E+00   6.80649822E+00   1118.25595596    1.72579233E-04   4.40867775E+19   1.13294312E+06   3.18454280E+05   4.72587952E+07   0.28691186      
  72               7.63310614E+00   7.80269290E+00   1163.27148553    1.90179294E-04   4.85835528E+19   1.22689641E+06   2.24496694E+05   4.55199085E+07   0.28530282      
  73               9.03049593E+00   8.92152361E+00   1208.00503852    2.09392206E-04   5.34928976E+19   1.32788131E+06   1.23517313E+05   4.37469172E+07   0.28372554      
  74               1.06837053E+01   1.01853403E+01   1254.63379100    2.30162167E-04   5.88009584E+19   1.42417379E+06   2.72169713E+04   4.19264077E+07   0.2820039       
  75               1.26395671E+01   1.16205852E+01   1301.48659212    2.53129920E-04   6.46716795E+19   1.45141738E+06   0.00000000E+00   4.00460321E+07   0.28030753      
  76               1.49534878E+01   1.32568876E+01   1346.18317365    2.79170656E-04   7.13285268E+19   1.45134181E+06   0.00000000E+00   3.80994904E+07   0.27867108      
  77               1.76910170E+01   1.51244550E+01   1391.47585398    3.08113272E-04   7.87281232E+19   1.45151664E+06   0.00000000E+00   3.60857982E+07   0.27703766      
  78               2.09297047E+01   1.72638140E+01   1436.45017280    3.40663771E-04   8.70506508E+19   1.45138223E+06   0.00000000E+00   3.39976006E+07   0.27537787      
  79               2.47612977E+01   1.97172453E+01   1482.94745483    3.76854039E-04   9.63044415E+19   1.45153836E+06   0.00000000E+00   3.18322397E+07   0.27368384      
  80               2.92943389E+01   2.25170122E+01   1529.87141502    4.17141359E-04   1.06606006E+20   1.45146028E+06   0.00000000E+00   2.95991876E+07   0.27200395      
  81               3.46572422E+01   2.56792255E+01   1578.92039867    4.60923965E-04   1.17800606E+20   1.45145305E+06   0.00000000E+00   2.73186319E+07   0.27029366      
  82               4.10019301E+01   2.91952485E+01   1628.80367576    5.07972016E-04   1.29828272E+20   1.45117974E+06   0.00000000E+00   2.50207705E+07   0.26859941      
  83               4.85081376E+01   3.30138240E+01   1680.92488631    5.56827777E-04   1.42256908E+20   1.45134529E+06   0.00000000E+00   2.27500630E+07   0.26685646      
  84               5.73885036E+01   3.70955965E+01   1733.86984252    6.06554546E-04   1.54964317E+20   1.38497673E+06   6.64148819E+04   2.05290123E+07   0.26508524      
  85               6.78945948E+01   4.13602396E+01   1784.41872342    6.57160745E-04   1.67885085E+20   1.26646087E+06   1.84933040E+05   1.83929327E+07   0.26342191      
  86               8.03240320E+01   4.57099590E+01   1831.91719256    7.07630154E-04   1.80730243E+20   1.13033461E+06   3.21059359E+05   1.63758057E+07   0.26190685      
  87               9.50289215E+01   4.99756223E+01   1875.07666082    7.56257872E-04   1.93047873E+20   9.68606390E+05   4.82790656E+05   1.45317950E+07   0.26049359      
  88               1.12425830E+02   5.38339005E+01   1911.66869820    7.99802368E-04   2.03971297E+20   8.02977672E+05   6.48421118E+05   1.29629054E+07   0.2592284       
  89               1.33007583E+02   5.71312638E+01   1941.26250212    8.35830029E-04   2.13164758E+20   7.08395719E+05   7.43003054E+05   1.16875921E+07   0.25811846      
  90               1.57357229E+02   6.07725889E+01   1972.43668358    8.75026532E-04   2.23167273E+20   6.72902880E+05   7.78498669E+05   1.03411419E+07   0.25702067      
  91               1.86164557E+02   6.47830543E+01   2005.00020501    9.17582094E-04   2.34030703E+20   5.96013743E+05   8.55396037E+05   8.92579748E+06   0.25603384      
  92               2.20245630E+02   6.80459211E+01   2030.35932225    9.52043531E-04   2.42747649E+20   4.86749297E+05   9.64662008E+05   7.82179855E+06   0.25518817      
  93               2.60565913E+02   7.05308734E+01   2048.96919898    9.77830951E-04   2.49327207E+20   4.28691418E+05   1.02576384E+06   7.00736079E+06   0.25437862      
  94               3.08267614E+02   7.33459641E+01   2069.46971658    1.00676483E-03   2.56710118E+20   4.13036234E+05   1.03837957E+06   6.11014553E+06   0.25355393      
  95               3.64702046E+02   7.65263973E+01   2091.79618131    1.03918457E-03   2.64982835E+20   3.96375903E+05   1.05505291E+06   5.12686804E+06   0.25274619      
  96               4.31467909E+02   8.01029389E+01   2116.08080430    1.07524008E-03   2.74183959E+20   3.78267929E+05   1.07317827E+06   4.05691566E+06   0.25201798      
  97               5.10456573E+02   8.41009278E+01   2142.14800785    1.11509645E-03   2.84365662E+20   3.34772836E+05   1.11670635E+06   2.90231190E+06   0.25138719      
  98               6.03905660E+02   8.71151210E+01   2161.19566932    1.14583003E-03   2.91961304E+20   2.75038428E+05   1.17640034E+06   2.05897356E+06   0.25086473      
  99               7.14462436E+02   8.93366364E+01   2174.85028412    1.16765123E-03   2.97526786E+20   2.45889543E+05   1.20550070E+06   1.45163238E+06   0.25029399      
  100              8.45258798E+02   9.18907368E+01   2190.25891882    1.19255928E-03   3.03879999E+20   2.38893633E+05   1.21249670E+06   7.67182733E+05   0.24966718      
  101              1.00000000E+03   9.48181723E+01   2207.42654963    1.22094830E-03   3.11122312E+20   2.34808204E+05   1.21658759E+06   0.00000000E+00   0.24896025      
