# ATMO pressure-temperature profile
# Effective temperature = 800.0K
# log(g) = 3.0cm/s^2
# M/H = 0.0
# Optical depth grid in band 17 (1.20-1.33microns)
# All parameters in cgs units
#
# Model Level      Optical Depth    Pressure         Temperature      Density          Number Density   Rad Flux         Conv Flux        Radial Extension Adiabatic Gradient
#                                   [Ba]             [K]              [g/cm^3]         [/cm^3]          [ergs/s/cm^2/sr] [ergs/s/cm^2/sr] [cm]             [K/Ba]          
  1                1.00000000E-04   1.00000000E-05   228.07668479     1.24314115E-09   3.17574006E+14   2.32237209E+07   0.00000000E+00   4.23995345E+08   0.31376214      
  2                1.17489755E-04   1.82259911E-05   269.03633791     1.92078778E-09   4.90688692E+14   2.32237209E+07   0.00000000E+00   4.18671883E+08   0.30245698      
  3                1.38038426E-04   2.79818411E-05   284.32863863     2.79029596E-09   7.12822698E+14   2.32237209E+07   0.00000000E+00   4.14457787E+08   0.30432444      
  4                1.62181010E-04   4.01290753E-05   296.90650877     3.83202204E-09   9.78960737E+14   2.32237209E+07   0.00000000E+00   4.10742932E+08   0.30073823      
  5                1.90546072E-04   5.52814131E-05   305.97107213     5.12251807E-09   1.30865331E+15   2.32237209E+07   0.00000000E+00   4.07322941E+08   0.30214968      
  6                2.23872114E-04   7.41296147E-05   315.61510221     6.65907769E-09   1.70121736E+15   2.32237209E+07   0.00000000E+00   4.04095765E+08   0.29976097      
  7                2.63026799E-04   9.73695083E-05   323.00783734     8.54648714E-09   2.18341232E+15   2.32237209E+07   0.00000000E+00   4.01015177E+08   0.30087264      
  8                3.09029543E-04   1.25777177E-04   331.24772274     1.07652355E-08   2.75026651E+15   2.32237209E+07   0.00000000E+00   3.98053549E+08   0.30097636      
  9                3.63078055E-04   1.60155475E-04   337.36686910     1.34590053E-08   3.43846968E+15   2.32237209E+07   0.00000000E+00   3.95197496E+08   0.30170005      
  10               4.26579519E-04   2.01422841E-04   344.52112329     1.65754175E-08   4.23466151E+15   2.32237209E+07   0.00000000E+00   3.92434576E+08   0.30065151      
  11               5.01187234E-04   2.50658570E-04   349.79684464     2.03159817E-08   5.19030058E+15   2.32237209E+07   0.00000000E+00   3.89751523E+08   0.30127358      
  12               5.88843655E-04   3.09148625E-04   356.34269977     2.45962635E-08   6.28384252E+15   2.32237209E+07   0.00000000E+00   3.87134975E+08   0.30041765      
  13               6.91830971E-04   3.78481542E-04   361.29263231     2.96999567E-08   7.58772250E+15   2.32237209E+07   0.00000000E+00   3.84569740E+08   0.30095879      
  14               8.12830516E-04   4.60610230E-04   367.81717115     3.55034466E-08   9.07042046E+15   2.32237209E+07   0.00000000E+00   3.82040548E+08   0.30022818      
  15               9.54992586E-04   5.57872062E-04   372.83369942     4.24217059E-08   1.08379038E+16   2.32237209E+07   0.00000000E+00   3.79534363E+08   0.30069708      
  16               1.12201845E-03   6.73044204E-04   379.55018863     5.02738129E-08   1.28439976E+16   2.32237209E+07   0.00000000E+00   3.77040442E+08   0.30006871      
  17               1.31825674E-03   8.09469791E-04   384.84620711     5.96321611E-08   1.52348883E+16   2.32237208E+07   0.00000000E+00   3.74548806E+08   0.3004703       
  18               1.54881662E-03   9.71104945E-04   391.93839632     7.02447767E-08   1.79462699E+16   2.32237209E+07   0.00000000E+00   3.72051403E+08   0.2999286       
  19               1.81970086E-03   1.16259982E-03   397.54653625     8.29108417E-08   2.11820562E+16   2.32237208E+07   0.00000000E+00   3.69542144E+08   0.30027029      
  20               2.13796209E-03   1.38937895E-03   405.01267927     9.72568030E-08   2.48472274E+16   2.32237209E+07   0.00000000E+00   3.67016701E+08   0.29980668      
  21               2.51188643E-03   1.65796193E-03   411.13271231     1.14329939E-07   2.92091125E+16   2.32237208E+07   0.00000000E+00   3.64469645E+08   0.30009632      
  22               2.95120923E-03   1.97610584E-03   419.25870523     1.33627061E-07   3.41392481E+16   2.32237209E+07   0.00000000E+00   3.61895716E+08   0.29969414      
  23               3.46736850E-03   2.35293459E-03   425.99030914     1.56594313E-07   4.00069989E+16   2.32237208E+07   0.00000000E+00   3.59290710E+08   0.29993959      
  24               4.07380278E-03   2.79914881E-03   434.81692555     1.82508569E-07   4.66278494E+16   2.32237209E+07   0.00000000E+00   3.56651257E+08   0.29958901      
  25               4.78630092E-03   3.32805055E-03   442.43219909     2.13270303E-07   5.44840055E+16   2.32237206E+07   0.00000000E+00   3.53970392E+08   0.29979888      
  26               5.62341325E-03   3.95461058E-03   452.33045757     2.47879864E-07   6.33247861E+16   2.32237212E+07   0.00000000E+00   3.51245323E+08   0.2994864       
  27               6.60693448E-03   4.69517450E-03   460.64868809     2.88984598E-07   7.38257281E+16   2.32237209E+07   0.00000000E+00   3.48478351E+08   0.29966833      
  28               7.76247117E-03   5.56815535E-03   470.52591120     3.35521057E-07   8.57143702E+16   2.32237211E+07   0.00000000E+00   3.45674806E+08   0.2993824       
  29               9.12010839E-03   6.59585130E-03   479.54797361     3.89969153E-07   9.96241515E+16   2.32237209E+07   0.00000000E+00   3.42833686E+08   0.29954587      
  30               1.07151931E-02   7.80418515E-03   490.40802466     4.51191274E-07   1.15264570E+17   2.32237212E+07   0.00000000E+00   3.39953029E+08   0.29927125      
  31               1.25892541E-02   9.22296885E-03   500.50008925     5.22464466E-07   1.33472693E+17   2.32237209E+07   0.00000000E+00   3.37030845E+08   0.29942575      
  32               1.47910839E-02   1.08862103E-02   512.73318713     6.01969847E-07   1.53783992E+17   2.32237213E+07   0.00000000E+00   3.34065060E+08   0.2991806       
  33               1.73780083E-02   1.28333473E-02   524.44924229     6.93785779E-07   1.77240238E+17   2.32237208E+07   0.00000000E+00   3.31052079E+08   0.2993561       
  34               2.04173794E-02   1.51092243E-02   538.49878676     7.95510044E-07   2.03227877E+17   2.32237215E+07   0.00000000E+00   3.27988611E+08   0.29900424      
  35               2.39883292E-02   1.77639074E-02   552.16449672     9.12132081E-07   2.33021429E+17   2.32237207E+07   0.00000000E+00   3.24872154E+08   0.29910616      
  36               2.81838293E-02   2.08521442E-02   568.31601393     1.04027446E-06   2.65758195E+17   2.32237217E+07   0.00000000E+00   3.21701800E+08   0.29875247      
  37               3.31131121E-02   2.44334354E-02   584.35840948     1.18547360E-06   3.02852439E+17   2.32237207E+07   0.00000000E+00   3.18476874E+08   0.29893168      
  38               3.89045145E-02   2.85711681E-02   603.07318017     1.34321067E-06   3.43149856E+17   2.32237219E+07   0.00000000E+00   3.15197850E+08   0.29848905      
  39               4.57088190E-02   3.33320239E-02   621.81266557     1.51980505E-06   3.88264748E+17   2.32237207E+07   0.00000000E+00   3.11865742E+08   0.29867853      
  40               5.37031796E-02   3.87886769E-02   643.27980381     1.70958399E-06   4.36747963E+17   2.32237222E+07   0.00000000E+00   3.08480519E+08   0.29809253      
  41               6.30957344E-02   4.50248259E-02   664.89242607     1.91993186E-06   4.90485865E+17   2.32237207E+07   0.00000000E+00   3.05038380E+08   0.29827341      
  42               7.41310241E-02   5.21272361E-02   689.43644197     2.14365816E-06   5.47641438E+17   2.32237224E+07   0.00000000E+00   3.01537436E+08   0.29753557      
  43               8.70963590E-02   6.01830860E-02   714.41637810     2.38841955E-06   6.10167246E+17   2.32237208E+07   0.00000000E+00   2.97977198E+08   0.29771874      
  44               1.02329299E-01   6.92767232E-02   742.72916911     2.64450675E-06   6.75589198E+17   2.32237219E+07   0.00000000E+00   2.94358850E+08   0.29663944      
  45               1.20226443E-01   7.94815052E-02   772.73915851     2.91623470E-06   7.45004682E+17   2.31751924E+07   4.85264318E+04   2.90684157E+08   0.29678799      
  46               1.41253754E-01   9.09140549E-02   805.12847792     3.20149730E-06   8.17883939E+17   2.30229195E+07   2.00803383E+05   2.86942561E+08   0.29538309      
  47               1.65958691E-01   1.03761017E-01   836.04677850     3.51873497E-06   8.98937463E+17   2.28327339E+07   3.90985007E+05   2.83114896E+08   0.29561541      
  48               1.94984460E-01   1.18301005E-01   870.30878143     3.85378291E-06   9.84557096E+17   2.26252279E+07   5.98495224E+05   2.79166359E+08   0.29381894      
  49               2.29086765E-01   1.34995006E-01   903.25849986     4.23701081E-06   1.08250892E+18   2.24952154E+07   7.28503110E+05   2.75034916E+08   0.29412856      
  50               2.69153480E-01   1.54777556E-01   941.90453317     4.65819002E-06   1.19021916E+18   2.25044516E+07   7.19273469E+05   2.70581679E+08   0.29166079      
  51               3.16227766E-01   1.79360211E-01   981.31456617     5.18045436E-06   1.32386500E+18   2.28464605E+07   3.77256510E+05   2.65577046E+08   0.29194645      
  52               3.71535229E-01   2.12238419E-01   1032.85470228    5.82290837E-06   1.48836898E+18   2.32237242E+07   0.00000000E+00   2.59590013E+08   0.28875209      
  53               4.36515832E-01   2.57889135E-01   1081.57829150    6.75558050E-06   1.72703414E+18   2.32237208E+07   0.00000000E+00   2.52310955E+08   0.2889999       
  54               5.12861384E-01   3.19312890E-01   1129.19888011    8.01104391E-06   2.04819759E+18   2.32237279E+07   0.00000000E+00   2.43961179E+08   0.28569098      
  55               6.02559586E-01   3.97961887E-01   1173.52007394    9.60655206E-06   2.45627393E+18   2.32237174E+07   0.00000000E+00   2.34995751E+08   0.28606987      
  56               7.07945784E-01   4.94654955E-01   1217.38216733    1.15099589E-05   2.94307458E+18   2.32237290E+07   0.00000000E+00   2.25800190E+08   0.28253151      
  57               8.31763771E-01   6.10144832E-01   1258.95756464    1.37280348E-05   3.51032789E+18   2.32237140E+07   0.00000000E+00   2.16612535E+08   0.28306344      
  58               9.77237221E-01   7.45053970E-01   1300.78195544    1.62241074E-05   4.14867170E+18   2.32237290E+07   0.00000000E+00   2.07572750E+08   0.27938053      
  59               1.14815362E+00   9.00004737E-01   1341.00606096    1.90101513E-05   4.86115976E+18   2.32237130E+07   0.00000000E+00   1.98749647E+08   0.28006411      
  60               1.34896288E+00   1.07574285E+00   1382.03251564    2.20474286E-05   5.63788286E+18   2.32237273E+07   0.00000000E+00   1.90165542E+08   0.27670207      
  61               1.58489319E+00   1.27335519E+00   1421.72231488    2.53689597E-05   6.48724982E+18   2.32237091E+07   0.00000000E+00   1.81809807E+08   0.27743514      
  62               1.86208714E+00   1.49388015E+00   1462.87798486    2.89254830E-05   7.39662314E+18   2.32237272E+07   0.00000000E+00   1.73668997E+08   0.27364085      
  63               2.18776162E+00   1.73723535E+00   1503.64301463    3.27270494E-05   8.36834848E+18   2.32236701E+07   0.00000000E+00   1.65759467E+08   0.27449351      
  64               2.57039578E+00   1.99635872E+00   1546.43421385    3.65842515E-05   9.35045988E+18   2.32237238E+07   0.00000000E+00   1.58270208E+08   0.27049169      
  65               3.01995172E+00   2.26849427E+00   1589.42419693    4.04474933E-05   1.03376948E+19   2.32235509E+07   0.00000000E+00   1.51195746E+08   0.27133464      
  66               3.54813389E+00   2.55065929E+00   1635.76305347    4.41959023E-05   1.12942630E+19   2.32237447E+07   0.00000000E+00   1.44521957E+08   0.26725594      
  67               4.16869383E+00   2.81928683E+00   1684.47333770    4.74552610E-05   1.21227448E+19   2.08783916E+07   2.34531871E+06   1.38656123E+08   0.26762542      
  68               4.89778819E+00   3.06015414E+00   1717.46363783    5.05510574E-05   1.29057007E+19   1.80283372E+07   5.19542976E+06   1.33738129E+08   0.26363531      
  69               5.75439937E+00   3.26256640E+00   1750.59011589    5.29186706E-05   1.34989730E+19   1.56563996E+07   7.56740251E+06   1.29824462E+08   0.26471817      
  70               6.76082975E+00   3.47453515E+00   1776.18519912    5.55433417E-05   1.41688402E+19   1.37488519E+07   9.47502232E+06   1.25914690E+08   0.26078543      
  71               7.94328235E+00   3.66249457E+00   1804.18508791    5.76537706E-05   1.47035343E+19   1.22015288E+07   1.10227896E+07   1.22593075E+08   0.26258054      
  72               9.33254301E+00   3.81842361E+00   1820.75390434    5.95607111E-05   1.51900323E+19   1.11132136E+07   1.21185273E+07   1.19932146E+08   0.2586329       
  73               1.09647820E+01   3.99306293E+00   1844.96379312    6.14662934E-05   1.56763209E+19   1.04932326E+07   1.27313908E+07   1.17045831E+08   0.25990723      
  74               1.28824955E+01   4.18786821E+00   1864.98934869    6.37692534E-05   1.62645664E+19   9.44061850E+06   1.37916645E+07   1.13934282E+08   0.25673014      
  75               1.51356125E+01   4.33204472E+00   1883.96642689    6.53583224E-05   1.66550374E+19   8.11599989E+06   1.51082817E+07   1.11700738E+08   0.25792949      
  76               1.77827941E+01   4.43367025E+00   1892.62991468    6.65847920E-05   1.69677216E+19   7.40132401E+06   1.58364891E+07   1.10160226E+08   0.25541353      
  77               2.08929613E+01   4.54949686E+00   1907.68298421    6.77839955E-05   1.72736058E+19   7.13536284E+06   1.60885087E+07   1.08436147E+08   0.25599486      
  78               2.45470892E+01   4.68105069E+00   1919.12102783    6.93274497E-05   1.76671631E+19   6.73431458E+06   1.64981723E+07   1.06517092E+08   0.25416529      
  79               2.88403150E+01   4.82990018E+00   1936.90554073    7.08735358E-05   1.80615723E+19   6.50757533E+06   1.67162847E+07   1.04393589E+08   0.25399082      
  80               3.38844156E+01   4.99764601E+00   1951.28947265    7.27930043E-05   1.85510984E+19   6.12675544E+06   1.71056509E+07   1.02058169E+08   0.25258741      
  81               3.98107171E+01   5.18622089E+00   1972.04599777    7.47422405E-05   1.90484573E+19   5.85262491E+06   1.73712536E+07   9.95016083E+07   0.25137947      
  82               4.67735141E+01   5.39653240E+00   1989.32368598    7.70956605E-05   1.96487612E+19   5.44548015E+06   1.77787801E+07   9.67310634E+07   0.25061332      
  83               5.49540874E+01   5.63086624E+00   2013.12363416    7.94887797E-05   2.02595877E+19   5.19763479E+06   1.80261949E+07   9.37376450E+07   0.24903202      
  84               6.45654229E+01   5.89268952E+00   2033.38040914    8.23527971E-05   2.09904024E+19   4.88617119E+06   1.83380432E+07   9.05015862E+07   0.24821185      
  85               7.58577575E+01   6.18438726E+00   2060.52781189    8.52853071E-05   2.17392239E+19   4.65336985E+06   1.85706353E+07   8.70209612E+07   0.24614319      
  86               8.91250938E+01   6.50851975E+00   2083.74611746    8.87499954E-05   2.26236807E+19   4.34189494E+06   1.88821696E+07   8.32953148E+07   0.24516399      
  87               1.04712855E+02   6.86778890E+00   2114.16518087    9.22933850E-05   2.35290212E+19   4.10188526E+06   1.91219697E+07   7.93256745E+07   0.24273806      
  88               1.23026877E+02   7.26514313E+00   2140.12409958    9.64411839E-05   2.45884446E+19   3.80543763E+06   1.94186972E+07   7.51139322E+07   0.2416906       
  89               1.44543977E+02   7.70372067E+00   2173.68108464    1.00671986E-04   2.56702762E+19   3.56773930E+06   1.96627258E+07   7.06628892E+07   0.23870705      
  90               1.69824365E+02   8.18699694E+00   2202.03238264    1.05598155E-04   2.69294055E+19   3.27261907E+06   1.99514309E+07   6.59756870E+07   0.23612203      
  91               1.99526231E+02   8.71875313E+00   2238.14802452    1.10623771E-04   2.82157380E+19   3.06102117E+06   2.01728772E+07   6.10557277E+07   0.2339945       
  92               2.34422882E+02   9.30299993E+00   2268.87474988    1.16420369E-04   2.96987613E+19   2.76619968E+06   2.04576521E+07   5.59074899E+07   0.22906623      
  93               2.75422870E+02   9.94442364E+00   2306.61314722    1.22384186E-04   3.12270309E+19   2.58446806E+06   2.06393676E+07   5.05338374E+07   0.2289334       
  94               3.23593657E+02   1.06471581E+01   2340.07052424    1.29145034E-04   3.29557041E+19   2.31268177E+06   2.09114738E+07   4.49439387E+07   0.22352719      
  95               3.80189396E+02   1.14168139E+01   2378.91599648    1.36181191E-04   3.47609513E+19   2.14098593E+06   2.10828547E+07   3.91402884E+07   0.223169        
  96               4.46683592E+02   1.22591310E+01   2414.86657370    1.44010933E-04   3.67698948E+19   1.91399803E+06   2.13099078E+07   3.31254882E+07   0.2175561       
  97               5.24807460E+02   1.31807452E+01   2454.44872682    1.52286907E-04   3.88966178E+19   1.76008746E+06   2.14860655E+07   2.69021618E+07   0.21718573      
  98               6.16595002E+02   1.41880345E+01   2492.73847702    1.61347071E-04   4.12260152E+19   1.56384088E+06   2.16621225E+07   2.04761013E+07   0.21127412      
  99               7.24435960E+02   1.52891553E+01   2532.61755566    1.71058073E-04   4.37259967E+19   1.42241428E+06   2.18020763E+07   1.38480571E+07   0.21017748      
  100              8.51138038E+02   1.64919911E+01   2572.83761102    1.81545226E-04   4.64287034E+19   1.26393403E+06   2.19797729E+07   7.02238951E+06   0.20441545      
  101              1.00000000E+03   1.78061903E+01   2612.76125168    1.92918494E-04   4.93624975E+19   1.18411038E+06   2.20428577E+07   0.00000000E+00   0.20082878      
