# ATMO pressure-temperature profile
# Effective temperature = 3000.0K
# log(g) = 3.0cm/s^2
# M/H = 0.0
# Optical depth grid in band 17 (1.20-1.33microns)
# All parameters in cgs units
#
# Model Level      Optical Depth    Pressure         Temperature      Density          Number Density   Rad Flux         Conv Flux        Radial Extension Adiabatic Gradient
#                                   [Ba]             [K]              [g/cm^3]         [/cm^3]          [ergs/s/cm^2/sr] [ergs/s/cm^2/sr] [cm]             [K/Ba]          
  1                1.00000000E-05   1.00000000E-05   1723.11827548    1.60763684E-10   4.20349709E+13   4.59241673E+09   0.00000000E+00   1.93210348E+09   0.271291        
  2                1.20226443E-05   1.07415659E-05   1635.89638226    1.84639629E-10   4.75595397E+13   4.59241659E+09   0.00000000E+00   1.92779308E+09   0.27060498      
  3                1.44543977E-05   1.15434079E-05   1858.72727964    1.63998265E-10   4.49825644E+13   4.59241648E+09   0.00000000E+00   1.92312339E+09   0.27757227      
  4                1.73780083E-05   1.24487481E-05   1724.03243068    2.00515814E-10   5.23005299E+13   4.59241637E+09   0.00000000E+00   1.91809667E+09   0.2713812       
  5                2.08929613E-05   1.34949590E-05   1913.60152711    1.81093722E-10   5.10794134E+13   4.59241624E+09   0.00000000E+00   1.91252971E+09   0.28215174      
  6                2.51188643E-05   1.47095974E-05   1777.48421503    2.27305646E-10   5.99405705E+13   4.59241609E+09   0.00000000E+00   1.90648789E+09   0.27266115      
  7                3.01995172E-05   1.61298144E-05   1954.58880456    2.07387755E-10   5.97722772E+13   4.59241593E+09   0.00000000E+00   1.89985093E+09   0.28585103      
  8                3.63078055E-05   1.77919698E-05   1820.45936581    2.65729378E-10   7.07895063E+13   4.59241574E+09   0.00000000E+00   1.89269534E+09   0.27401532      
  9                4.36515832E-05   1.97449547E-05   1990.33306630    2.44916771E-10   7.18548725E+13   4.59241552E+09   0.00000000E+00   1.88492470E+09   0.28894046      
  10               5.24807460E-05   2.20382650E-05   1858.98783427    3.19228889E-10   8.58670797E+13   4.59241527E+09   0.00000000E+00   1.87662874E+09   0.27535418      
  11               6.30957344E-05   2.47397577E-05   2023.68161280    2.97358221E-10   8.85480693E+13   4.59241499E+09   0.00000000E+00   1.86772752E+09   0.29152298      
  12               7.58577575E-05   2.79166769E-05   1895.51508584    3.92932272E-10   1.06674917E+14   4.59241466E+09   0.00000000E+00   1.85832220E+09   0.2766467       
  13               9.12010839E-05   3.16644634E-05   2055.90558196    3.69986379E-10   1.11556481E+14   4.59241428E+09   0.00000000E+00   1.84834551E+09   0.29365979      
  14               1.09647820E-04   3.60741939E-05   1931.29359914    4.93908117E-10   1.35292641E+14   4.59241385E+09   0.00000000E+00   1.83790523E+09   0.27788946      
  15               1.31825674E-04   4.12802762E-05   2087.70903356    4.70065873E-10   1.43218283E+14   4.59241335E+09   0.00000000E+00   1.82694325E+09   0.29541641      
  16               1.58489319E-04   4.74059616E-05   1967.10177815    6.31689770E-10   1.74554870E+14   4.59241278E+09   0.00000000E+00   1.81556817E+09   0.27910071      
  17               1.90546072E-04   5.46410174E-05   2119.58666470    6.07457674E-10   1.86721118E+14   4.59241213E+09   0.00000000E+00   1.80372572E+09   0.29688093      
  18               2.29086765E-04   6.31544017E-05   2003.50687422    8.19067768E-10   2.28317199E+14   4.59241139E+09   0.00000000E+00   1.79151851E+09   0.28032527      
  19               2.75422870E-04   7.32121018E-05   2152.01187013    7.95460819E-10   2.46413247E+14   4.59241055E+09   0.00000000E+00   1.77889419E+09   0.29817747      
  20               3.31131121E-04   8.50445630E-05   2041.02316129    1.07304924E-09   3.01803631E+14   4.59240958E+09   0.00000000E+00   1.76594926E+09   0.2816514       
  21               3.98107171E-04   9.90228929E-05   2185.45516429    1.05180846E-09   3.28185620E+14   4.59240849E+09   0.00000000E+00   1.75262968E+09   0.29956406      
  22               4.78630092E-04   1.15461151E-04   2080.15280678    1.41594561E-09   4.02037425E+14   4.59240726E+09   0.00000000E+00   1.73902603E+09   0.05924072      
  23               5.75439937E-04   1.34876068E-04   2220.44911833    1.39979842E-09   4.39966806E+14   4.59240588E+09   0.00000000E+00   1.72507781E+09   0.056389248     
  24               6.91830971E-04   1.57694434E-04   2121.46195290    1.87658059E-09   5.38402364E+14   4.59240434E+09   0.00000000E+00   1.71087208E+09   0.059289765     
  25               8.31763771E-04   1.84636215E-04   2257.62257006    1.86956598E-09   5.92367727E+14   4.59240265E+09   0.00000000E+00   1.69633594E+09   0.057045964     
  26               1.00000000E-03   2.16277940E-04   2165.68747705    2.49132167E-09   7.23339660E+14   4.59240078E+09   0.00000000E+00   1.68155693E+09   0.059545359     
  27               1.20226443E-03   2.53627882E-04   2297.84283706    2.49897363E-09   7.99470629E+14   4.59239880E+09   0.00000000E+00   1.66644082E+09   0.057748908     
  28               1.44543977E-03   2.97457080E-04   2213.96260542    3.30401896E-09   9.73150183E+14   4.59239668E+09   0.00000000E+00   1.65108118E+09   0.059782509     
  29               1.73780083E-03   3.49199010E-04   2342.58487528    3.33261242E-09   1.07970101E+15   4.59239458E+09   0.00000000E+00   1.63534467E+09   0.058600784     
  30               2.08929613E-03   4.09865336E-04   2268.92797212    4.35901683E-09   1.30841743E+15   4.59239252E+09   0.00000000E+00   1.61933576E+09   0.060060594     
  31               2.51188643E-03   4.81162723E-04   2396.77103089    4.39889868E-09   1.45408993E+15   4.59239107E+09   0.00000000E+00   1.60290391E+09   0.059466404     
  32               3.01995172E-03   5.65305268E-04   2413.78851781    5.13154325E-09   1.69632731E+15   4.58589511E+09   6.48065131E+06   1.58519386E+09   0.059928097     
  33               3.63078055E-03   6.64707593E-04   2443.99078789    5.88866270E-09   1.96995776E+15   4.57899615E+09   1.33654877E+07   1.56710869E+09   0.060389366     
  34               4.36515832E-03   7.82005132E-04   2462.06871412    6.87517238E-09   2.30056905E+15   4.57129241E+09   2.10552972E+07   1.54867387E+09   0.060906158     
  35               5.24807460E-03   9.20092784E-04   2493.50467928    7.89073062E-09   2.67268192E+15   4.56248036E+09   2.98519649E+07   1.52992326E+09   0.061527973     
  36               6.30957344E-03   1.08231808E-03   2512.51619121    9.20752275E-09   3.12012421E+15   4.55241641E+09   3.99001694E+07   1.51089108E+09   0.062077299     
  37               7.58577575E-03   1.27303403E-03   2545.07152737    1.05609739E-08   3.62297937E+15   4.54079569E+09   5.15104444E+07   1.49154796E+09   0.062703374     
  38               9.12010839E-03   1.49702962E-03   2564.99710896    1.23151935E-08   4.22736117E+15   4.52750462E+09   6.47928626E+07   1.47190681E+09   0.063199369     
  39               1.09647820E-02   1.76017841E-03   2598.63469024    1.41180626E-08   4.90611020E+15   4.51221857E+09   8.00710941E+07   1.45194698E+09   0.06390256      
  40               1.31825674E-02   2.06884804E-03   2619.51730931    1.64487436E-08   5.72048906E+15   4.49485389E+09   9.74293361E+07   1.43169161E+09   0.064471962     
  41               1.58489319E-02   2.43077134E-03   2654.26218987    1.88410822E-08   6.63324635E+15   4.47504312E+09   1.17227070E+08   1.41112980E+09   0.065373512     
  42               1.90546072E-02   2.85418732E-03   2676.20970465    2.19187974E-08   7.72481648E+15   4.45270549E+09   1.39567359E+08   1.39029417E+09   0.065972813     
  43               2.29086765E-02   3.34891188E-03   2711.99978689    2.50723692E-08   8.94416719E+15   4.42741625E+09   1.64876216E+08   1.36918741E+09   0.066822349     
  44               2.75422870E-02   3.92510090E-03   2734.83894764    2.91059100E-08   1.03954887E+16   4.39916638E+09   1.93147934E+08   1.34785807E+09   0.067377296     
  45               3.31131121E-02   4.59461032E-03   2771.46221419    3.32228834E-08   1.20078585E+16   4.36750579E+09   2.24824031E+08   1.32632478E+09   0.06837257      
  46               3.98107171E-02   5.36943534E-03   2795.11396918    3.84441287E-08   1.39140941E+16   4.33243038E+09   2.59907378E+08   1.30464420E+09   0.069034424     
  47               4.78630092E-02   6.26331682E-03   2832.43519239    4.37426231E-08   1.60165966E+16   4.29335779E+09   2.98976250E+08   1.28284331E+09   0.070227881     
  48               5.75439937E-02   7.28989396E-03   2856.83599521    5.03965044E-08   1.84825437E+16   4.25017666E+09   3.42186596E+08   1.26097877E+09   0.070840936     
  49               6.91830971E-02   8.46451258E-03   2894.56507914    5.71115199E-08   2.11809032E+16   4.20214183E+09   3.90260807E+08   1.23908130E+09   0.071923508     
  50               8.31763771E-02   9.80222295E-03   2919.37267339    6.54653272E-08   2.43198492E+16   4.14909873E+09   4.43375591E+08   1.21720389E+09   0.072486097     
  51               1.00000000E-01   1.13201177E-02   2957.23313348    7.38429586E-08   2.77262554E+16   4.09009375E+09   5.02574453E+08   1.19536970E+09   0.073900964     
  52               1.20226443E-01   1.30353615E-02   2982.54677398    8.41506021E-08   3.16564096E+16   4.02444191E+09   5.68115415E+08   1.17361042E+09   0.073766273     
  53               1.44543977E-01   1.49672685E-02   3019.79006426    9.45078945E-08   3.58997677E+16   3.95155755E+09   6.40845164E+08   1.15194479E+09   0.074794949     
  54               1.73780083E-01   1.71353449E-02   3045.16979269    1.07097371E-07   4.07574663E+16   3.87118746E+09   7.21104040E+08   1.13039450E+09   0.075846027     
  55               2.08929613E-01   1.95624285E-02   3082.72282892    1.19644584E-07   4.59636098E+16   3.78183982E+09   8.10414764E+08   1.10895101E+09   0.077974901     
  56               2.51188643E-01   2.22726579E-02   3109.05685837    1.34750191E-07   5.18882737E+16   3.68247320E+09   9.09776527E+08   1.08760592E+09   0.079405461     
  57               3.01995172E-01   2.52950027E-02   3147.26278064    1.49782901E-07   5.82140165E+16   3.57133300E+09   1.02097150E+09   1.06632965E+09   0.081582023     
  58               3.63078055E-01   2.86602574E-02   3174.66687263    1.67777685E-07   6.53894622E+16   3.44736599E+09   1.14497144E+09   1.04510091E+09   0.082633585     
  59               4.36515832E-01   3.24054937E-02   3213.34380313    1.85759554E-07   7.30444607E+16   3.30918442E+09   1.28323825E+09   1.02388399E+09   0.083762847     
  60               5.24807460E-01   3.65703029E-02   3241.13864261    2.07272386E-07   8.17253498E+16   3.15743970E+09   1.43501485E+09   1.00265871E+09   0.08398908      
  61               6.30957344E-01   4.12022490E-02   3279.80935646    2.28889530E-07   9.09909421E+16   2.99282129E+09   1.59969950E+09   9.81390994E+08   0.08463075      
  62               7.58577575E-01   4.63524619E-02   3307.80126607    2.54689609E-07   1.01498409E+17   2.81849209E+09   1.77406922E+09   9.60060016E+08   0.085007654     
  63               9.12010839E-01   5.20817671E-02   3346.77479896    2.80693517E-07   1.12715868E+17   2.63753544E+09   1.95518472E+09   9.38630236E+08   0.086556994     
  64               1.09647820E+00   5.84561789E-02   3375.87665742    3.11518127E-07   1.25420836E+17   2.45405669E+09   2.13883213E+09   9.17073292E+08   0.087863067     
  65               1.31825674E+00   6.55534289E-02   3416.08690559    3.42686558E-07   1.38992812E+17   2.27201151E+09   2.32117516E+09   8.95349404E+08   0.090537756     
  66               1.58489319E+00   7.34588484E-02   3447.41189300    3.79343617E-07   1.54339390E+17   2.09409149E+09   2.49930575E+09   8.73423004E+08   0.09249995      
  67               1.90546072E+00   8.22717172E-02   3489.60997845    4.16646065E-07   1.70765255E+17   1.92343270E+09   2.67018990E+09   8.51253449E+08   0.095552514     
  68               2.29086765E+00   9.21018761E-02   3523.71294940    4.60242166E-07   1.89318822E+17   1.75990450E+09   2.83378369E+09   8.28804591E+08   0.097479298     
  69               2.75422870E+00   1.03074702E-01   3568.11716267    5.05017938E-07   2.09237162E+17   1.60483216E+09   2.98890997E+09   8.06042464E+08   0.099898928     
  70               3.31131121E+00   1.15328646E-01   3604.73849911    5.57170382E-07   2.31733739E+17   1.45553599E+09   3.13826838E+09   7.82940916E+08   0.10080469      
  71               3.98107171E+00   1.29016872E-01   3650.72279794    6.11346454E-07   2.55972606E+17   1.31431524E+09   3.27966017E+09   7.59485264E+08   0.10199139      
  72               4.78630092E+00   1.44307736E-01   3689.01908544    6.74238501E-07   2.83337822E+17   1.18007542E+09   3.41411959E+09   7.35667902E+08   0.10283552      
  73               5.75439937E+00   1.61384373E-01   3736.62305834    7.39842657E-07   3.12829737E+17   1.05787080E+09   3.53675883E+09   7.11487660E+08   0.10521415      
  74               6.91830971E+00   1.80451727E-01   3777.66908666    8.15221057E-07   3.45989540E+17   9.42870288E+08   3.65232982E+09   6.86935118E+08   0.10787846      
  75               8.31763771E+00   2.01727359E-01   3828.50348295    8.93812023E-07   3.81646774E+17   8.40510206E+08   3.75531624E+09   6.62008813E+08   0.11228093      
  76               1.00000000E+01   2.25453491E-01   3874.13766963    9.83076691E-07   4.21509876E+17   7.40995080E+08   3.85508569E+09   6.36696713E+08   0.116061        
  77               1.20226443E+01   2.51870501E-01   3929.25624637    1.07635389E-06   4.64293702E+17   6.52595730E+08   3.94347821E+09   6.11013346E+08   0.12090477      
  78               1.44543977E+01   2.81236455E-01   3979.91206754    1.18129078E-06   5.11827927E+17   5.65907479E+08   4.02992704E+09   5.84969148E+08   0.12464408      
  79               1.73780083E+01   3.13785918E-01   4039.19680171    1.29117659E-06   5.62683624E+17   4.90409001E+08   4.10554242E+09   5.58611087E+08   0.1287687       
  80               2.08929613E+01   3.49762573E-01   4094.03641532    1.41376424E-06   6.18795965E+17   4.19033100E+08   4.17706055E+09   5.31981512E+08   0.13197768      
  81               2.51188643E+01   3.89371322E-01   4156.66822259    1.54197896E-06   6.78491545E+17   3.62051610E+08   4.23419537E+09   5.05152649E+08   0.13657613      
  82               3.01995172E+01   4.32822351E-01   4215.67352664    1.68303287E-06   7.43649942E+17   3.12211716E+08   4.28413856E+09   4.78178950E+08   0.14167649      
  83               3.63078055E+01   4.80272431E-01   4282.81303608    1.82922343E-06   8.12240015E+17   2.75747221E+08   4.32103641E+09   4.51133366E+08   0.14927399      
  84               4.36515832E+01   5.31861597E-01   4348.07028730    1.98703190E-06   8.85988157E+17   2.42560105E+08   4.35428097E+09   4.24071802E+08   0.15690386      
  85               5.24807460E+01   5.87667645E-01   4421.29594348    2.14914133E-06   9.62737823E+17   2.16040214E+08   4.38054328E+09   3.97064106E+08   0.16541007      
  86               6.30957344E+01   6.47759331E-01   4492.87963593    2.32198005E-06   1.04427465E+18   1.89873638E+08   4.40642188E+09   3.70162060E+08   0.17289088      
  87               7.58577575E+01   7.12182727E-01   4571.33206586    2.49875712E-06   1.12842969E+18   1.68921051E+08   4.42733720E+09   3.43414020E+08   0.18147174      
  88               9.12010839E+01   7.80986922E-01   4648.65098914    2.68508105E-06   1.21686573E+18   1.49381489E+08   4.44682829E+09   3.16849214E+08   0.19016474      
  89               1.09647820E+02   8.54206920E-01   4732.80974077    2.87424962E-06   1.30728380E+18   1.34065145E+08   4.46200043E+09   2.90490362E+08   0.20049819      
  90               1.31825674E+02   9.31863972E-01   4816.85329930    3.07125765E-06   1.40124779E+18   1.20348958E+08   4.47575536E+09   2.64351121E+08   0.21198006      
  91               1.58489319E+02   1.01393909E+00   4908.57135361    3.26910566E-06   1.49617571E+18   1.09609455E+08   4.48638611E+09   2.38446554E+08   0.22543839      
  92               1.90546072E+02   1.10035982E+00   5001.36719577    3.47242503E-06   1.59357249E+18   9.90278702E+07   4.49671845E+09   2.12794588E+08   0.23800322      
  93               2.29086765E+02   1.19104065E+00   5100.88829320    3.67566377E-06   1.69124534E+18   8.99256393E+07   4.50565301E+09   1.87410156E+08   0.25084536      
  94               2.75422870E+02   1.28583362E+00   5201.24413554    3.88291242E-06   1.79061978E+18   8.13962052E+07   4.51404855E+09   1.62316621E+08   0.26372951      
  95               3.31131121E+02   1.38447101E+00   5307.97837041    4.08814283E-06   1.88921141E+18   7.38538532E+07   4.52140239E+09   1.37557599E+08   0.27662636      
  96               3.98107171E+02   1.48655215E+00   5414.74509232    4.29540492E-06   1.98851088E+18   6.64739483E+07   4.52861761E+09   1.13195782E+08   0.28853768      
  97               4.78630092E+02   1.59153693E+00   5526.33805467    4.49867948E-06   2.08595585E+18   5.98547145E+07   4.53508423E+09   8.93116155E+07   0.3005035       
  98               5.75439937E+02   1.69877982E+00   5636.82039639    4.70139446E-06   2.18287434E+18   5.34180915E+07   4.54139369E+09   6.59912191E+07   0.31127323      
  99               6.91830971E+02   1.80762139E+00   5750.23302106    4.89813309E-06   2.27692050E+18   4.76248228E+07   4.54704371E+09   4.33089288E+07   0.32174705      
  100              8.31763771E+02   1.91749225E+00   5861.27397414    5.09240087E-06   2.36955850E+18   4.21796770E+07   4.55233561E+09   2.13089627E+07   0.33115732      
  101              1.00000000E+03   2.02797986E+00   5973.94826200    5.27967455E-06   2.45882727E+18   4.00349050E+07   4.55431100E+09   0.00000000E+00   0.33924557      
