# ATMO pressure-temperature profile
# Effective temperature = 1400.0K
# log(g) = 5.0cm/s^2
# M/H = 0.0
# Optical depth grid in band 17 (1.20-1.33microns)
# All parameters in cgs units
#
# Model Level      Optical Depth    Pressure         Temperature      Density          Number Density   Rad Flux         Conv Flux        Radial Extension Adiabatic Gradient
#                                   [Ba]             [K]              [g/cm^3]         [/cm^3]          [ergs/s/cm^2/sr] [ergs/s/cm^2/sr] [cm]             [K/Ba]          
  1                1.00000000E-07   9.99999997E-06   427.41787277     6.63332071E-10   1.69462325E+14   2.17814661E+08   0.00000000E+00   7.09989573E+06   0.29740858      
  2                1.25892541E-07   1.25778670E-05   482.01279905     7.39830012E-10   1.89005424E+14   2.17814661E+08   0.00000000E+00   7.06309728E+06   0.29740064      
  3                1.58489319E-07   1.56985658E-05   470.60290799     9.45777400E-10   2.41619071E+14   2.17814661E+08   0.00000000E+00   7.02579017E+06   0.29744087      
  4                1.99526231E-07   1.95668499E-05   499.81170898     1.10993611E-09   2.83556970E+14   2.17814661E+08   0.00000000E+00   6.98803510E+06   0.29745062      
  5                2.51188643E-07   2.43673078E-05   486.37732623     1.42042312E-09   3.62877523E+14   2.17814661E+08   0.00000000E+00   6.94980327E+06   0.2974997       
  6                3.16227766E-07   3.03396823E-05   513.20877428     1.67610177E-09   4.28196188E+14   2.17814661E+08   0.00000000E+00   6.91109637E+06   0.29750912      
  7                3.98107171E-07   3.77604588E-05   500.52160064     2.13893652E-09   5.46437225E+14   2.17814661E+08   0.00000000E+00   6.87190409E+06   0.29756328      
  8                5.01187234E-07   4.69960043E-05   526.15387902     2.53239542E-09   6.46954887E+14   2.17814661E+08   0.00000000E+00   6.83222166E+06   0.29757479      
  9                6.30957344E-07   5.84748632E-05   514.60545948     3.22164902E-09   8.23039474E+14   2.17814661E+08   0.00000000E+00   6.79203385E+06   0.29763095      
  10               7.94328235E-07   7.27597662E-05   539.47899482     3.82384276E-09   9.76883097E+14   2.17814661E+08   0.00000000E+00   6.75133439E+06   0.29764515      
  11               1.00000000E-06   9.05114629E-05   529.16645987     4.84947347E-09   1.23890246E+15   2.17814661E+08   0.00000000E+00   6.71011106E+06   0.29769983      
  12               1.25892541E-06   1.12593966E-04   553.45006277     5.76792782E-09   1.47354199E+15   2.17814661E+08   0.00000000E+00   6.66835767E+06   0.29895675      
  13               1.58489319E-06   1.40026490E-04   544.28688545     7.29399604E-09   1.86340892E+15   2.17814661E+08   0.00000000E+00   6.62606417E+06   0.2988926       
  14               1.99526231E-06   1.74134731E-04   568.10432348     8.69040987E-09   2.22015422E+15   2.17814661E+08   0.00000000E+00   6.58322341E+06   0.29887252      
  15               2.51188643E-06   2.16485484E-04   560.06003966     1.09591584E-08   2.79975503E+15   2.17814661E+08   0.00000000E+00   6.53982706E+06   0.29880176      
  16               3.16227766E-06   2.69104961E-04   583.61927240     1.30729858E-08   3.33978046E+15   2.17814661E+08   0.00000000E+00   6.49586567E+06   0.29877537      
  17               3.98107171E-06   3.34399130E-04   576.55545733     1.64439762E-08   4.20097300E+15   2.17814661E+08   0.00000000E+00   6.45133242E+06   0.29869795      
  18               5.01187234E-06   4.15467968E-04   599.91330822     1.96350237E-08   5.01620053E+15   2.17814661E+08   0.00000000E+00   6.40621586E+06   0.29866539      
  19               6.30957344E-06   5.16006419E-04   593.63142310     2.46445386E-08   6.29599048E+15   2.17814661E+08   0.00000000E+00   6.36051155E+06   0.29857676      
  20               7.94328235E-06   6.40756477E-04   616.81063787     2.94525696E-08   7.52431536E+15   2.17814661E+08   0.00000000E+00   6.31420738E+06   0.29854267      
  21               1.00000000E-05   7.95401209E-04   611.02754173     3.69069114E-08   9.42868877E+15   2.17814661E+08   0.00000000E+00   6.26730218E+06   0.29843627      
  22               1.25892541E-05   9.87225170E-04   633.99720119     4.41479545E-08   1.12785876E+16   2.17814661E+08   0.00000000E+00   6.21978012E+06   0.29840696      
  23               1.58489319E-05   1.22508274E-03   628.45584888     5.52678579E-08   1.41194081E+16   2.17814661E+08   0.00000000E+00   6.17162673E+06   0.29827966      
  24               1.99526231E-05   1.52024847E-03   651.25693395     6.61826246E-08   1.69078371E+16   2.17814661E+08   0.00000000E+00   6.12282228E+06   0.29825516      
  25               2.51188643E-05   1.88641493E-03   645.78167887     8.28197579E-08   2.11581331E+16   2.17814661E+08   0.00000000E+00   6.07336373E+06   0.29810892      
  26               3.16227766E-05   2.34088838E-03   668.52013483     9.92769486E-08   2.53624996E+16   2.17814661E+08   0.00000000E+00   6.02324278E+06   0.29808953      
  27               3.98107171E-05   2.90481929E-03   662.90497799     1.24236993E-07   3.17390321E+16   2.17814661E+08   0.00000000E+00   5.97246448E+06   0.29792305      
  28               5.01187234E-05   3.60473249E-03   685.74011234     1.49037749E-07   3.80749487E+16   2.17814661E+08   0.00000000E+00   5.92102783E+06   0.29790723      
  29               6.30957344E-05   4.47312146E-03   680.00472650     1.86501403E-07   4.76457973E+16   2.17814661E+08   0.00000000E+00   5.86894111E+06   0.29772085      
  30               7.94328235E-05   5.55051155E-03   703.14514585     2.23805662E-07   5.71760129E+16   2.17814661E+08   0.00000000E+00   5.81620616E+06   0.29770731      
  31               1.00000000E-04   6.88657646E-03   697.38991317     2.79970137E-07   7.15242894E+16   2.17814661E+08   0.00000000E+00   5.76283112E+06   0.29749709      
  32               1.25892541E-04   8.54286678E-03   721.18909084     3.35844304E-07   8.57986244E+16   2.17814661E+08   0.00000000E+00   5.70881619E+06   0.29748143      
  33               1.58489319E-04   1.05947728E-02   715.61268093     4.19757142E-07   1.07235717E+17   2.17814661E+08   0.00000000E+00   5.65416601E+06   0.29720687      
  34               1.99526231E-04   1.31355407E-02   740.25671013     5.03094385E-07   1.28526133E+17   2.17814661E+08   0.00000000E+00   5.59887640E+06   0.29725965      
  35               2.51188643E-04   1.62784892E-02   735.25566191     6.27711476E-07   1.60362034E+17   2.17814661E+08   0.00000000E+00   5.54294772E+06   0.29695355      
  36               3.16227766E-04   2.01637298E-02   761.06473453     7.51159707E-07   1.91900060E+17   2.17814661E+08   0.00000000E+00   5.48636626E+06   0.29689689      
  37               3.98107171E-04   2.49608571E-02   756.98272933     9.34882157E-07   2.38835765E+17   2.17814661E+08   0.00000000E+00   5.42912108E+06   0.29654595      
  38               5.01187234E-04   3.08828516E-02   784.37390762     1.11628670E-06   2.85180677E+17   2.17814662E+08   0.00000000E+00   5.37115092E+06   0.29651907      
  39               6.30957344E-04   3.81850251E-02   781.90681797     1.38458486E-06   3.53723505E+17   2.17814660E+08   0.00000000E+00   5.31241457E+06   0.29614433      
  40               7.94328235E-04   4.71881059E-02   811.36387001     1.64890460E-06   4.21252722E+17   2.17814662E+08   0.00000000E+00   5.25282954E+06   0.29608246      
  41               1.00000000E-03   5.82722673E-02   811.17446417     2.03669296E-06   5.20323553E+17   2.17814660E+08   0.00000000E+00   5.19234486E+06   0.29551846      
  42               1.25892541E-03   7.19237032E-02   843.44490163     2.41762355E-06   6.17648175E+17   2.17814662E+08   0.00000000E+00   5.13082345E+06   0.29537186      
  43               1.58489319E-03   8.87150514E-02   846.31704996     2.97190842E-06   7.59259191E+17   2.17814660E+08   0.00000000E+00   5.06817969E+06   0.29473202      
  44               1.99526231E-03   1.09407787E-01   881.87781310     3.51726066E-06   8.98598432E+17   2.17814663E+08   0.00000000E+00   5.00417585E+06   0.29457593      
  45               2.51188643E-03   1.34904062E-01   888.49687694     4.30457515E-06   1.09975251E+18   2.17814660E+08   0.00000000E+00   4.93864949E+06   0.29372111      
  46               3.16227766E-03   1.66471547E-01   927.81045960     5.08659908E-06   1.29959069E+18   2.17814663E+08   0.00000000E+00   4.87118531E+06   0.29345434      
  47               3.98107171E-03   2.05666987E-01   938.52007624     6.21235690E-06   1.58725557E+18   2.17814659E+08   0.00000000E+00   4.80145792E+06   0.29230959      
  48               5.01187234E-03   2.54842115E-01   982.16562409     7.35522773E-06   1.87937009E+18   2.17814664E+08   0.00000000E+00   4.72870743E+06   0.29192493      
  49               6.30957344E-03   3.17003966E-01   997.81158579     9.00538483E-06   2.30113444E+18   2.17814659E+08   0.00000000E+00   4.65232607E+06   0.29052167      
  50               7.94328235E-03   3.96601972E-01   1046.89689115    1.07373762E-05   2.74395382E+18   2.17814664E+08   0.00000000E+00   4.57137526E+06   0.29000468      
  51               1.00000000E-02   4.99379423E-01   1068.59365765    1.32444483E-05   3.38488478E+18   2.17814659E+08   0.00000000E+00   4.48518748E+06   0.28829805      
  52               1.25892541E-02   6.33577924E-01   1124.62531498    1.59648212E-05   4.08054359E+18   2.17814666E+08   0.00000000E+00   4.39289475E+06   0.28758942      
  53               1.58489319E-02   8.09364025E-01   1154.03925924    1.98729472E-05   5.07982970E+18   2.17814658E+08   0.00000000E+00   4.29420241E+06   0.28540749      
  54               1.99526231E-02   1.04034980E+00   1218.28948190    2.41951148E-05   6.18521405E+18   2.17814668E+08   0.00000000E+00   4.18885956E+06   0.28438194      
  55               2.51188643E-02   1.34212678E+00   1255.60011636    3.02840546E-05   7.74226504E+18   2.17814656E+08   0.00000000E+00   4.07737275E+06   0.28172851      
  56               3.16227766E-02   1.73131465E+00   1326.22430785    3.69829849E-05   9.45550784E+18   2.17814674E+08   0.00000000E+00   3.96107782E+06   0.28055961      
  57               3.98107171E-02   2.22296703E+00   1367.53154621    4.60492049E-05   1.17739316E+19   2.17814651E+08   0.00000000E+00   3.84193969E+06   0.27777039      
  58               5.01187234E-02   2.83029572E+00   1440.39192707    5.56635398E-05   1.42323618E+19   2.17814688E+08   0.00000000E+00   3.72198020E+06   0.27665095      
  59               6.30957344E-02   3.55957363E+00   1483.47512635    6.79786948E-05   1.73797510E+19   2.17814634E+08   0.00000000E+00   3.60342239E+06   0.27358557      
  60               7.94328235E-02   4.40706605E+00   1557.32555985    8.01808938E-05   2.04972684E+19   2.17814723E+08   0.00000000E+00   3.48862698E+06   0.27245622      
  61               1.00000000E-01   5.35309601E+00   1601.59594794    9.47150690E-05   2.42090591E+19   2.17814597E+08   0.00000000E+00   3.38006692E+06   0.26925355      
  62               1.25892541E-01   6.34452315E+00   1672.80002352    1.07529289E-04   2.74714005E+19   2.17814744E+08   0.00000000E+00   3.28182110E+06   0.2683303       
  63               1.58489319E-01   7.31210827E+00   1714.62797622    1.20959468E-04   3.08886230E+19   2.17814647E+08   0.00000000E+00   3.19697551E+06   0.26511718      
  64               1.99526231E-01   8.20638424E+00   1780.92036033    1.30754579E-04   3.33759156E+19   2.14569069E+08   3.24566571E+06   3.12586298E+06   0.26443111      
  65               2.51188643E-01   8.97140334E+00   1809.90749060    1.40710318E-04   3.59029260E+19   2.08964484E+08   8.85022023E+06   3.06945998E+06   0.26111474      
  66               3.16227766E-01   9.69147187E+00   1859.97585970    1.47964375E-04   3.77405540E+19   2.01491777E+08   1.63229681E+07   3.01955400E+06   0.26117539      
  67               3.98107171E-01   1.04140799E+01   1881.78834393    1.57157558E-04   4.00844537E+19   1.93287324E+08   2.45273897E+07   2.97216683E+06   0.25805547      
  68               5.01187234E-01   1.10800028E+01   1925.36854030    1.63456995E-04   4.16823155E+19   1.83548550E+08   3.42665151E+07   2.93061676E+06   0.2585026       
  69               6.30957344E-01   1.16337363E+01   1936.44383452    1.70672210E-04   4.35151165E+19   1.74657627E+08   4.31571430E+07   2.89746314E+06   0.25531223      
  70               7.94328235E-01   1.21625965E+01   1971.74665583    1.75263699E-04   4.46787513E+19   1.65478966E+08   5.23363528E+07   2.86688389E+06   0.25634688      
  71               1.00000000E+00   1.26932856E+01   1980.20177990    1.82159566E-04   4.64291192E+19   1.56458845E+08   6.13558440E+07   2.83718218E+06   0.25307074      
  72               1.25892541E+00   1.32430883E+01   2014.67947906    1.86827233E-04   4.76112027E+19   1.47825705E+08   6.99900107E+07   2.80737821E+06   0.25444772      
  73               1.58489319E+00   1.38468691E+01   2024.52199932    1.94389834E-04   4.95398772E+19   1.38938696E+08   7.88830027E+07   2.77569547E+06   0.25084429      
  74               1.99526231E+00   1.45628853E+01   2063.27005585    2.00593123E-04   5.11231016E+19   1.30892065E+08   8.69239074E+07   2.73943541E+06   0.2520049       
  75               2.51188643E+00   1.54080004E+01   2079.76870367    2.10540642E-04   5.36607923E+19   1.21644055E+08   9.61790418E+07   2.69831189E+06   0.2481554       
  76               3.16227766E+00   1.64007812E+01   2125.03509453    2.19316880E-04   5.59016039E+19   1.13334584E+08   1.04484217E+08   2.65211102E+06   0.24876288      
  77               3.98107171E+00   1.75607232E+01   2148.54705273    2.32240636E-04   5.92002266E+19   1.03653602E+08   1.14169155E+08   2.60071471E+06   0.24443079      
  78               5.01187234E+00   1.89099453E+01   2200.28727369    2.44175847E-04   6.22496229E+19   9.52914174E+07   1.22524658E+08   2.54405632E+06   0.24460686      
  79               6.30957344E+00   2.04714120E+01   2230.68496635    2.60704424E-04   6.64714877E+19   8.54252239E+07   1.32396016E+08   2.48216804E+06   0.23978431      
  80               7.94328235E+00   2.22711846E+01   2288.32704817    2.76437694E-04   7.04938228E+19   7.74164291E+07   1.40399813E+08   2.41512568E+06   0.23927862      
  81               1.00000000E+01   2.43374717E+01   2324.96281069    2.97274791E-04   7.58202633E+19   6.78733996E+07   1.49950360E+08   2.34304523E+06   0.23398896      
  82               1.25892541E+01   2.67032278E+01   2387.60546109    3.17537982E-04   8.10078372E+19   6.08420156E+07   1.56986354E+08   2.26604384E+06   0.23256991      
  83               1.58489319E+01   2.94043760E+01   2429.51637242    3.43536160E-04   8.76633326E+19   5.21562730E+07   1.65663853E+08   2.18425958E+06   0.22606604      
  84               1.99526231E+01   3.24830920E+01   2495.74762549    3.69303200E-04   9.42719598E+19   4.67951028E+07   1.71023005E+08   2.09782284E+06   0.22525641      
  85               2.51188643E+01   3.59856335E+01   2542.61126715    4.01419829E-04   1.02512075E+20   3.95263118E+07   1.78290558E+08   2.00685326E+06   0.21810597      
  86               3.16227766E+01   3.99683970E+01   2611.22558811    4.33906029E-04   1.10865949E+20   3.55644630E+07   1.82250292E+08   1.91142162E+06   0.21757131      
  87               3.98107171E+01   4.44933563E+01   2662.77099949    4.73412180E-04   1.21028371E+20   2.97838934E+07   1.88030818E+08   1.81158218E+06   0.21010144      
  88               5.01187234E+01   4.96354292E+01   2732.81864195    5.14228465E-04   1.31554834E+20   2.66571983E+07   1.91276424E+08   1.70736321E+06   0.20979091      
  89               6.30957344E+01   5.54765351E+01   2788.91832933    5.62756372E-04   1.44078564E+20   2.21493974E+07   1.95711618E+08   1.59877991E+06   0.20206021      
  90               7.94328235E+01   6.21142503E+01   2859.51476469    6.13981553E-04   1.57334783E+20   1.96668724E+07   1.98254316E+08   1.48585540E+06   0.20224202      
  91               1.00000000E+02   6.96527630E+01   2920.27719463    6.73517497E-04   1.72758773E+20   1.63586595E+07   2.01472310E+08   1.36862481E+06   0.19434731      
  92               1.25892541E+02   7.82127333E+01   2990.50590838    7.37708690E-04   1.89434309E+20   1.43689065E+07   2.03460716E+08   1.24718426E+06   0.19373068      
  93               1.58489319E+02   8.79238392E+01   3055.09166333    8.10803596E-04   2.08453042E+20   1.19516912E+07   2.05915165E+08   1.12161690E+06   0.18603162      
  94               1.99526231E+02   9.89185869E+01   3124.06941229    8.90880069E-04   2.29341722E+20   1.03340163E+07   2.07510459E+08   9.92248944E+05   0.18507949      
  95               2.51188643E+02   1.11334764E+02   3191.53787096    9.80133412E-04   2.52671716E+20   8.58413488E+06   2.09439934E+08   8.59373549E+05   0.17869664      
  96               3.16227766E+02   1.25324479E+02   3258.99554333    1.07882591E-03   2.78533849E+20   7.24046777E+06   2.10606248E+08   7.23323149E+05   0.17598595      
  97               3.98107171E+02   1.41050644E+02   3327.22429528    1.18741262E-03   3.07056880E+20   6.13111200E+06   2.11695476E+08   5.84374123E+05   0.17403629      
  98               5.01187234E+02   1.58687195E+02   3395.65846470    1.30675318E-03   3.38488347E+20   5.15906095E+06   2.12691128E+08   4.42786445E+05   0.17125768      
  99               6.30957344E+02   1.78418477E+02   3463.87237553    1.43774438E-03   3.73081560E+20   4.37010628E+06   2.13447315E+08   2.98831309E+05   0.16944752      
  100              7.94328235E+02   2.00826544E+02   3533.90894290    1.58339918E-03   4.11615385E+20   3.69530240E+06   2.14121669E+08   1.50320974E+05   0.1677044       
  101              1.00000000E+03   2.25795281E+02   3603.41440088    1.74253992E-03   4.53864788E+20   3.35614726E+06   2.14459372E+08   0.00000000E+00   0.16620302      
