# ATMO pressure-temperature profile
# Effective temperature = 2500.0K
# log(g) = 5.0cm/s^2
# M/H = 0.0
# Optical depth grid in band 17 (1.20-1.33microns)
# All parameters in cgs units
#
# Model Level      Optical Depth    Pressure         Temperature      Density          Number Density   Rad Flux         Conv Flux        Radial Extension Adiabatic Gradient
#                                   [Ba]             [K]              [g/cm^3]         [/cm^3]          [ergs/s/cm^2/sr] [ergs/s/cm^2/sr] [cm]             [K/Ba]          
  1                1.00000000E-08   1.00000000E-05   789.84178718     3.58593505E-10   9.17034623E+13   2.21480525E+09   0.00000000E+00   1.09916679E+07   0.29458989      
  2                1.28824955E-08   1.07914798E-05   837.27594036     3.65052096E-10   9.33551394E+13   2.21480525E+09   0.00000000E+00   1.09697923E+07   0.29411537      
  3                1.65958691E-08   1.17986600E-05   806.67790938     4.14261928E-10   1.05939608E+14   2.21480525E+09   0.00000000E+00   1.09438927E+07   0.2940875       
  4                2.13796209E-08   1.30832071E-05   851.78869861     4.35035588E-10   1.11252091E+14   2.21480525E+09   0.00000000E+00   1.09136340E+07   0.29363833      
  5                2.75422870E-08   1.47188245E-05   822.60020750     5.06788551E-10   1.29601537E+14   2.21480525E+09   0.00000000E+00   1.08787998E+07   0.29360034      
  6                3.54813389E-08   1.68037897E-05   866.83320612     5.49052833E-10   1.40409838E+14   2.21480525E+09   0.00000000E+00   1.08392742E+07   0.29314339      
  7                4.57088190E-08   1.94561306E-05   839.54620215     6.56378493E-10   1.67856325E+14   2.21480525E+09   0.00000000E+00   1.07950922E+07   0.29307732      
  8                5.88843655E-08   2.28324824E-05   883.47357882     7.31984689E-10   1.87191190E+14   2.21480525E+09   0.00000000E+00   1.07463820E+07   0.29260415      
  9                7.58577575E-08   2.71199297E-05   858.48354975     8.94744510E-10   2.28813910E+14   2.21480525E+09   0.00000000E+00   1.06934037E+07   0.29249855      
  10               9.77237221E-08   3.25662264E-05   902.48147786     1.02204864E-09   2.61369544E+14   2.21480525E+09   0.00000000E+00   1.06364507E+07   0.2920134       
  11               1.25892541E-07   3.94656592E-05   879.91085457     1.27034925E-09   3.24867694E+14   2.21480525E+09   0.00000000E+00   1.05759004E+07   0.29187072      
  12               1.62181010E-07   4.82082567E-05   924.02744744     1.47767515E-09   3.77887386E+14   2.21480525E+09   0.00000000E+00   1.05120903E+07   0.29139757      
  13               2.08929613E-07   5.92552232E-05   903.70215259     1.85713622E-09   4.74927329E+14   2.21480525E+09   0.00000000E+00   1.04454048E+07   0.29123626      
  14               2.69153480E-07   7.32229738E-05   947.77651770     2.18818391E-09   5.59586538E+14   2.21480525E+09   0.00000000E+00   1.03761160E+07   0.29081756      
  15               3.46736850E-07   9.08540514E-05   929.22771052     2.76926535E-09   7.08187057E+14   2.21480525E+09   0.00000000E+00   1.03044927E+07   0.29066889      
  16               4.46683592E-07   1.13134274E-04   973.16346147     3.29268956E-09   8.42042942E+14   2.21480525E+09   0.00000000E+00   1.02307087E+07   0.29171925      
  17               5.75439937E-07   1.41247212E-04   955.97793794     4.18479730E-09   1.07018252E+15   2.21480525E+09   0.00000000E+00   1.01549742E+07   0.29148981      
  18               7.41310241E-07   1.76745920E-04   999.96308019     5.00619539E-09   1.28023965E+15   2.21480525E+09   0.00000000E+00   1.00774171E+07   0.29091988      
  19               9.54992586E-07   2.21502674E-04   983.91235322     6.37624441E-09   1.63060361E+15   2.21480525E+09   0.00000000E+00   9.99819942E+06   0.29066062      
  20               1.23026877E-06   2.77940003E-04   1028.46540544    7.65426863E-09   1.95743437E+15   2.21480525E+09   0.00000000E+00   9.91741414E+06   0.29003922      
  21               1.58489319E-06   3.48982124E-04   1013.56012485    9.75205261E-09   2.49390270E+15   2.21480525E+09   0.00000000E+00   9.83518683E+06   0.28974407      
  22               2.04173794E-06   4.38369751E-04   1059.21384658    1.17219323E-08   2.99766273E+15   2.21480524E+09   0.00000000E+00   9.75158229E+06   0.28906185      
  23               2.63026799E-06   5.50619304E-04   1045.42411073    1.49176788E-08   3.81491407E+15   2.21480524E+09   0.00000000E+00   9.66669661E+06   0.28872147      
  24               3.38844156E-06   6.91475128E-04   1092.36243247    1.79288326E-08   4.58496101E+15   2.21480524E+09   0.00000000E+00   9.58056783E+06   0.28797318      
  25               4.36515832E-06   8.67847560E-04   1079.61833504    2.27675066E-08   5.82235973E+15   2.21480524E+09   0.00000000E+00   9.49327129E+06   0.28758908      
  26               5.62341325E-06   1.08852713E-03   1127.71778442    2.73388930E-08   6.99140834E+15   2.21480523E+09   0.00000000E+00   9.40481799E+06   0.28677423      
  27               7.24435960E-06   1.36403274E-03   1115.96993199    3.46189981E-08   8.85315651E+15   2.21480523E+09   0.00000000E+00   9.31526445E+06   0.28634721      
  28               9.33254301E-06   1.70820966E-03   1164.91900523    4.15324446E-08   1.06211436E+16   2.21480523E+09   0.00000000E+00   9.22449683E+06   0.28547764      
  29               1.20226443E-05   2.13781805E-03   1154.03895865    5.24677527E-08   1.34176392E+16   2.21480522E+09   0.00000000E+00   9.13246612E+06   0.28501568      
  30               1.54881662E-05   2.67437408E-03   1203.82491206    6.29217553E-08   1.60910605E+16   2.21480521E+09   0.00000000E+00   9.03908295E+06   0.28408157      
  31               1.99526231E-05   3.34368814E-03   1193.81594802    7.93287389E-08   2.02868318E+16   2.21480521E+09   0.00000000E+00   8.94434711E+06   0.28358339      
  32               2.57039578E-05   4.17855997E-03   1244.51136095    9.50979261E-08   2.43194424E+16   2.21480519E+09   0.00000000E+00   8.84822585E+06   0.28259676      
  33               3.31131121E-05   5.21827245E-03   1235.30937843    1.19644977E-07   3.05968594E+16   2.21480519E+09   0.00000000E+00   8.75075371E+06   0.28205776      
  34               4.26579519E-05   6.51202275E-03   1287.00646902    1.43311934E-07   3.66489063E+16   2.21480516E+09   0.00000000E+00   8.65195237E+06   0.28099774      
  35               5.49540874E-05   8.11902983E-03   1278.62796676    1.79848530E-07   4.59923687E+16   2.21480515E+09   0.00000000E+00   8.55185488E+06   0.28042391      
  36               7.07945784E-05   1.01069177E-02   1331.48380188    2.15006363E-07   5.49804997E+16   2.21480511E+09   0.00000000E+00   8.45076302E+06   0.2795135       
  37               9.12010839E-05   1.25586541E-02   1323.91225269    2.68690003E-07   6.87083844E+16   2.21480508E+09   0.00000000E+00   8.34875780E+06   0.28096079      
  38               1.17489755E-04   1.55708173E-02   1378.14550523    3.20053847E-07   8.18355823E+16   2.21480503E+09   0.00000000E+00   8.24603983E+06   0.27918756      
  39               1.51356125E-04   1.92635534E-02   1371.68955318    3.97814392E-07   1.01720013E+17   2.21480498E+09   0.00000000E+00   8.14255027E+06   0.27796466      
  40               1.94984460E-04   2.36545169E-02   1427.70458493    4.69540929E-07   1.20005616E+17   2.21480481E+09   0.00000000E+00   8.04094610E+06   0.27611169      
  41               2.51188643E-04   2.88240616E-02   1422.49637083    5.74251607E-07   1.46767484E+17   2.21480474E+09   0.00000000E+00   7.94139078E+06   0.27518537      
  42               3.23593657E-04   3.51126582E-02   1480.43714316    6.72232050E-07   1.71790671E+17   2.21480458E+09   0.00000000E+00   7.84017506E+06   0.27347714      
  43               4.16869383E-04   4.27286613E-02   1477.68813400    8.19548167E-07   2.09441308E+17   2.21480454E+09   0.00000000E+00   7.73756727E+06   0.27240796      
  44               5.37031796E-04   5.11939665E-02   1537.95967316    9.44209726E-07   2.41101366E+17   2.21480446E+09   0.00000000E+00   7.64132428E+06   0.27043631      
  45               6.91830971E-04   5.99434136E-02   1535.76524289    1.10714521E-06   2.82710850E+17   2.21480417E+09   0.00000000E+00   7.55574983E+06   0.26923696      
  46               8.91250938E-04   6.95295288E-02   1596.74762548    1.23659129E-06   3.15397936E+17   2.21480272E+09   0.00000000E+00   7.47381540E+06   0.2670562       
  47               1.14815362E-03   7.97343575E-02   1599.27457822    1.41579086E-06   3.61117309E+17   2.21480377E+09   0.00000000E+00   7.39669078E+06   0.26602745      
  48               1.47910839E-03   9.03100725E-02   1653.41666839    1.55252089E-06   3.95621349E+17   2.21480335E+09   0.00000000E+00   7.32534552E+06   0.26437953      
  49               1.90546072E-03   1.00028205E-01   1651.49995088    1.72159777E-06   4.38702136E+17   2.21480474E+09   0.00000000E+00   7.26590286E+06   0.26355789      
  50               2.45470892E-03   1.11719320E-01   1701.45351153    1.86623039E-06   4.75591446E+17   2.21480491E+09   0.00000000E+00   7.20067863E+06   0.26162746      
  51               3.16227766E-03   1.25666459E-01   1704.76488341    2.09514648E-06   5.33925580E+17   2.21480515E+09   0.00000000E+00   7.13014514E+06   0.2603679       
  52               4.07380278E-03   1.42164913E-01   1761.16832473    2.29404874E-06   5.84678867E+17   2.21480521E+09   0.00000000E+00   7.05488982E+06   0.25776935      
  53               5.24807460E-03   1.61417196E-01   1772.12389100    2.58858501E-06   6.59753281E+17   2.21480506E+09   0.00000000E+00   6.97588570E+06   0.25575471      
  54               6.76082975E-03   1.83494774E-01   1836.95496012    2.83823509E-06   7.23520819E+17   2.21480246E+09   0.00000000E+00   6.89443387E+06   0.25194323      
  55               8.70963590E-03   2.07961024E-01   1859.65162532    3.17720620E-06   8.09983540E+17   2.21480414E+09   0.00000000E+00   6.81295952E+06   0.24901428      
  56               1.12201845E-02   2.36685738E-01   1910.21273998    3.51956714E-06   8.97462252E+17   2.21480426E+09   0.00000000E+00   6.72705979E+06   0.24493525      
  57               1.44543977E-02   2.70313081E-01   1935.00542585    3.96771818E-06   1.01183737E+18   2.21480504E+09   0.00000000E+00   6.63707314E+06   0.2420793       
  58               1.86208714E-02   3.09609733E-01   1988.27172895    4.42132917E-06   1.12788470E+18   2.21480537E+09   0.00000000E+00   6.54324923E+06   0.23731034      
  59               2.39883292E-02   3.55316699E-01   2018.46714850    4.99723792E-06   1.27502815E+18   2.21480609E+09   0.00000000E+00   6.44600986E+06   0.23354101      
  60               3.09029543E-02   4.08361763E-01   2076.19235436    5.58077591E-06   1.42463406E+18   2.21480642E+09   0.00000000E+00   6.34556216E+06   0.22751929      
  61               3.98107171E-02   4.69627431E-01   2113.81753382    6.30166012E-06   1.60920658E+18   2.21480695E+09   0.00000000E+00   6.24225151E+06   0.22263992      
  62               5.12861384E-02   5.40170841E-01   2179.19457482    7.02487212E-06   1.79539895E+18   2.21480755E+09   0.00000000E+00   6.13622305E+06   0.21519619      
  63               6.60693448E-02   6.20189228E-01   2243.70290004    7.82541694E-06   2.00209513E+18   2.20693405E+09   7.85445877E+06   6.02829575E+06   0.20648965      
  64               8.51138038E-02   7.11304917E-01   2306.63899662    8.71928173E-06   2.23358261E+18   2.19094634E+09   2.38357922E+07   5.91798578E+06   0.19755419      
  65               1.09647820E-01   8.15191962E-01   2368.24995630    9.71951360E-06   2.49320616E+18   2.16587289E+09   4.89067238E+07   5.80512900E+06   0.18907086      
  66               1.41253754E-01   9.33933617E-01   2428.54882819    1.08406043E-05   2.78544770E+18   2.13077774E+09   8.40013654E+07   5.68944544E+06   0.18122774      
  67               1.81970086E-01   1.07006957E+00   2487.99525414    1.21010168E-05   3.11521702E+18   2.08466057E+09   1.30119575E+08   5.57058057E+06   0.17394012      
  68               2.34422882E-01   1.22618550E+00   2546.38894925    1.35199770E-05   3.48784580E+18   2.02590121E+09   1.88880420E+08   5.44852236E+06   0.16743383      
  69               3.01995172E-01   1.40526014E+00   2604.21605635    1.51151879E-05   3.90845895E+18   1.95300565E+09   2.61776276E+08   5.32324905E+06   0.1613867       
  70               3.89045145E-01   1.61058546E+00   2661.03780897    1.69113033E-05   4.38387909E+18   1.86478789E+09   3.49992866E+08   5.19481910E+06   0.15605007      
  71               5.01187234E-01   1.84575545E+00   2717.50650935    1.89264190E-05   4.91959561E+18   1.76021403E+09   4.54562709E+08   5.06336367E+06   0.15124941      
  72               6.45654229E-01   2.11471772E+00   2773.02797899    2.11894381E-05   5.52362254E+18   1.63886365E+09   5.75907989E+08   4.92905120E+06   0.14686157      
  73               8.31763771E-01   2.42180450E+00   2828.20337525    2.37208525E-05   6.20232165E+18   1.50122187E+09   7.13542830E+08   4.79207184E+06   0.14316623      
  74               1.07151931E+00   2.77172387E+00   2882.64812331    2.65513812E-05   6.96440741E+18   1.34889927E+09   8.65854255E+08   4.65263498E+06   0.13993446      
  75               1.38038426E+00   3.16963821E+00   2936.84163275    2.97043675E-05   7.81726807E+18   1.18532035E+09   1.02941974E+09   4.51094015E+06   0.13711451      
  76               1.77827941E+00   3.62123564E+00   2990.38425508    3.32157370E-05   8.77113162E+18   1.01640830E+09   1.19831659E+09   4.36716401E+06   0.13468063      
  77               2.29086765E+00   4.13283229E+00   3043.79843733    3.71119412E-05   9.83462336E+18   8.50217481E+08   1.36448991E+09   4.22144503E+06   0.13254391      
  78               2.95120923E+00   4.71108845E+00   3096.60977405    4.14342231E-05   1.10194677E+19   6.95529525E+08   1.51916521E+09   4.07397619E+06   0.13068412      
  79               3.80189396E+00   5.36339882E+00   3149.35771268    4.62104163E-05   1.23351359E+19   5.60010803E+08   1.65467673E+09   3.92489566E+06   0.12910423      
  80               4.89778819E+00   6.09815970E+00   3201.61387812    5.14913181E-05   1.37960792E+19   4.47950935E+08   1.76673010E+09   3.77426114E+06   0.12784862      
  81               6.30957344E+00   6.92489981E+00   3254.03066844    5.73104660E-05   1.54140830E+19   3.59099796E+08   1.85558053E+09   3.62206615E+06   0.12678106      
  82               8.12830516E+00   7.85451390E+00   3306.09770288    6.37347107E-05   1.72079632E+19   2.89833379E+08   1.92485283E+09   3.46824633E+06   0.12589576      
  83               1.04712855E+01   8.89949245E+00   3358.52169438    7.08070536E-05   1.91930025E+19   2.35564541E+08   1.97912962E+09   3.31268713E+06   0.12513902      
  84               1.34896288E+01   1.00740894E+01   3410.75552115    7.86139608E-05   2.13934611E+19   1.92134935E+08   2.02256474E+09   3.15524727E+06   0.12455317      
  85               1.73780083E+01   1.13945550E+01   3463.57797042    8.72080448E-05   2.38285843E+19   1.57044941E+08   2.05766291E+09   2.99576477E+06   0.12407415      
  86               2.23872114E+01   1.28794392E+01   3516.37926078    9.67000842E-05   2.65293790E+19   1.28409642E+08   2.08630749E+09   2.83406315E+06   0.12375227      
  87               2.88403150E+01   1.45498937E+01   3570.01173064    1.07153858E-04   2.95199772E+19   1.05222208E+08   2.10950076E+09   2.66995465E+06   0.12354204      
  88               3.71535229E+01   1.64300316E+01   3623.81020443    1.18709593E-04   3.28396708E+19   8.63435731E+07   2.12838165E+09   2.50324675E+06   0.12348253      
  89               4.78630092E+01   1.85473337E+01   3678.68876270    1.31444198E-04   3.65186134E+19   7.10550976E+07   2.14367254E+09   2.33374158E+06   0.12349712      
  90               6.16595002E+01   2.09331950E+01   3733.89544252    1.45536525E-04   4.06068412E+19   5.84504220E+07   2.15627943E+09   2.16123652E+06   0.1236261       
  91               7.94328235E+01   2.36235241E+01   3790.41112359    1.61080473E-04   4.51423546E+19   4.81366469E+07   2.16659111E+09   1.98552028E+06   0.12382859      
  92               1.02329299E+02   2.66594093E+01   3847.42643180    1.78302615E-04   5.01887105E+19   3.95757697E+07   2.17514738E+09   1.80637776E+06   0.12415204      
  93               1.31825674E+02   3.00879246E+01   3905.99900866    1.97317231E-04   5.57938001E+19   3.25853519E+07   2.18213232E+09   1.62358498E+06   0.12452624      
  94               1.69824365E+02   3.39630048E+01   3965.23163990    2.18413619E-04   6.20387992E+19   2.68096118E+07   2.18790127E+09   1.43691594E+06   0.12497961      
  95               2.18776162E+02   3.83466589E+01   4026.24501441    2.41734213E-04   6.89847620E+19   2.21073425E+07   2.19258886E+09   1.24613194E+06   0.12546468      
  96               2.81838293E+02   4.33103432E+01   4088.07492749    2.67649384E-04   7.67359048E+19   1.82091655E+07   2.19647341E+09   1.05098311E+06   0.12603063      
  97               3.63078055E+02   4.89366122E+01   4151.93385852    2.96338231E-04   8.53707926E+19   1.50343334E+07   2.19963673E+09   8.51200392E+05   0.12668062      
  98               4.67735141E+02   5.53206883E+01   4216.83913761    3.28268575E-04   9.50224843E+19   1.24069186E+07   2.20225352E+09   6.46507298E+05   0.1274739       
  99               6.02559586E+02   6.25726720E+01   4284.11096311    3.63660879E-04   1.05791270E+20   1.02776523E+07   2.20436355E+09   4.36609480E+05   0.12839909      
  100              7.76247117E+02   7.08193606E+01   4352.73116348    4.03102530E-04   1.17846312E+20   8.52131896E+06   2.20609695E+09   2.21213808E+05   0.12943399      
  101              1.00000000E+03   8.02079469E+01   4424.04883927    4.46877504E-04   1.31317718E+20   7.77093140E+06   2.20682867E+09   0.00000000E+00   0.13053001      
