# ATMO pressure-temperature profile
# Effective temperature = 2900.0K
# log(g) = 4.0cm/s^2
# M/H = 0.0
# Optical depth grid in band 17 (1.20-1.33microns)
# All parameters in cgs units
#
# Model Level      Optical Depth    Pressure         Temperature      Density          Number Density   Rad Flux         Conv Flux        Radial Extension Adiabatic Gradient
#                                   [Ba]             [K]              [g/cm^3]         [/cm^3]          [ergs/s/cm^2/sr] [ergs/s/cm^2/sr] [cm]             [K/Ba]          
  1                8.00000000E-05   1.00000000E-05   1654.04774655    1.69560636E-10   4.37902876E+13   4.01021412E+09   0.00000000E+00   1.62184666E+08   0.27070047      
  2                9.42017752E-05   5.83566519E-05   1797.98814651    9.03742616E-10   2.35087416E+14   4.01021412E+09   0.00000000E+00   1.49827449E+08   0.26835246      
  3                1.10924681E-04   1.06738859E-04   1859.17939810    1.59156110E-09   4.15840798E+14   4.01021412E+09   0.00000000E+00   1.45792911E+08   0.09838983      
  4                1.30616273E-04   1.59787250E-04   1890.70436275    2.34031770E-09   6.12130947E+14   4.01021412E+09   0.00000000E+00   1.43044223E+08   0.099060898     
  5                1.53803560E-04   2.19116195E-04   1926.20099014    3.14093437E-09   8.23945934E+14   4.01021412E+09   0.00000000E+00   1.40855881E+08   0.095711692     
  6                1.81107105E-04   2.86025490E-04   1946.37691850    4.05597957E-09   1.06439698E+15   4.01021412E+09   0.00000000E+00   1.38981278E+08   0.096963214     
  7                2.13257635E-04   3.61881828E-04   1974.77652370    5.04507794E-09   1.32731701E+15   4.01021412E+09   0.00000000E+00   1.37304326E+08   0.094225127     
  8                2.51115597E-04   4.48117070E-04   1990.96188915    6.19545887E-09   1.63025064E+15   4.01021412E+09   0.00000000E+00   1.35761865E+08   0.095417725     
  9                2.95694188E-04   5.46365094E-04   2016.27779875    7.44117227E-09   1.96272031E+15   4.01021412E+09   0.00000000E+00   1.34314843E+08   0.093186036     
  10               3.48186468E-04   6.58409785E-04   2030.79818880    8.90197579E-09   2.34830957E+15   4.01021412E+09   0.00000000E+00   1.32938181E+08   0.094373337     
  11               4.09997292E-04   7.86328843E-04   2054.64510977    1.04833331E-08   2.77200001E+15   4.01021412E+09   0.00000000E+00   1.31613991E+08   0.092436629     
  12               4.82780909E-04   9.32425447E-04   2068.59916486    1.23452379E-08   3.26485285E+15   4.01021412E+09   0.00000000E+00   1.30329767E+08   0.093461186     
  13               5.68485234E-04   1.09936007E-03   2091.83754067    1.43590331E-08   3.80660528E+15   4.01021412E+09   0.00000000E+00   1.29075927E+08   0.091610215     
  14               6.69403978E-04   1.29007219E-03   2105.90132165    1.67327325E-08   4.43712676E+15   4.01021412E+09   0.00000000E+00   1.27845567E+08   0.092435991     
  15               7.88238038E-04   1.50794279E-03   2129.14456555    1.92957133E-08   5.12986050E+15   4.01021412E+09   0.00000000E+00   1.26633036E+08   0.090703775     
  16               9.28167781E-04   1.75668995E-03   2143.89879118    2.23128243E-08   5.93494471E+15   4.01021412E+09   0.00000000E+00   1.25434224E+08   0.091381372     
  17               1.09293816E-03   2.04055740E-03   2167.75816490    2.55607864E-08   6.81810719E+15   4.01021412E+09   0.00000000E+00   1.24245556E+08   0.089781879     
  18               1.28695893E-03   2.36414325E-03   2183.99961364    2.93671845E-08   7.84055977E+15   4.01021412E+09   0.00000000E+00   1.23064496E+08   0.090207808     
  19               1.51542270E-03   2.73202262E-03   2212.44597539    3.33602754E-08   8.94411667E+15   4.01011064E+09   1.03775761E+05   1.21889115E+08   0.088364597     
  20               1.78444386E-03   3.14763472E-03   2239.95877236    3.78057850E-08   1.01781803E+16   4.00949508E+09   7.21918345E+05   1.20718775E+08   0.086771167     
  21               2.10122224E-03   3.61745742E-03   2267.04716830    4.27491422E-08   1.15576280E+16   4.00831910E+09   1.89560771E+06   1.19550062E+08   0.085392786     
  22               2.47423582E-03   4.14872050E-03   2293.48411235    4.82605676E-08   1.31022017E+16   4.00650694E+09   3.71250831E+06   1.18380386E+08   0.084284745     
  23               2.91346758E-03   4.74946799E-03   2319.77807084    5.43905483E-08   1.48294268E+16   4.00396131E+09   6.26727972E+06   1.17207788E+08   0.083326375     
  24               3.43067273E-03   5.42480974E-03   2345.44643126    6.11941783E-08   1.67527008E+16   4.00054698E+09   9.66459374E+06   1.16037122E+08   0.082510778     
  25               4.03969326E-03   6.18404855E-03   2371.01052060    6.87131176E-08   1.88914481E+16   3.99614975E+09   1.40612094E+07   1.14866228E+08   0.081755261     
  26               4.75682846E-03   7.04208924E-03   2396.19824758    7.71001138E-08   2.12865176E+16   3.99067972E+09   1.95308878E+07   1.13687337E+08   0.081107445     
  27               5.60127107E-03   8.01106706E-03   2421.51924399    8.64188003E-08   2.39622879E+16   3.98399021E+09   2.62200578E+07   1.12500215E+08   0.080578299     
  28               6.59562098E-03   9.10435211E-03   2446.53091283    9.67972377E-08   2.69540592E+16   3.97592440E+09   3.42856382E+07   1.11304824E+08   0.080177801     
  29               7.76649006E-03   1.03366332E-02   2471.75299583    1.08304263E-07   3.02900421E+16   3.96630869E+09   4.39012841E+07   1.10101263E+08   0.079823385     
  30               9.14521438E-03   1.17208084E-02   2496.62176050    1.21066692E-07   3.40040507E+16   3.95497171E+09   5.52380610E+07   1.08892426E+08   0.079806976     
  31               1.07686929E-02   1.32744032E-02   2521.86473182    1.35139270E-07   3.81258079E+16   3.94169167E+09   6.85162772E+07   1.07677788E+08   0.079580834     
  32               1.26803748E-02   1.50172628E-02   2546.63522188    1.50749155E-07   4.27119972E+16   3.92626188E+09   8.39444306E+07   1.06456677E+08   0.079205405     
  33               1.49314227E-02   1.69713245E-02   2571.71460071    1.67959821E-07   4.77989995E+16   3.90847856E+09   1.01727131E+08   1.05228617E+08   0.078733038     
  34               1.75820816E-02   1.91607112E-02   2596.26467362    1.87048179E-07   5.34550205E+16   3.88816388E+09   1.22042940E+08   1.03993372E+08   0.078428731     
  35               2.07032912E-02   2.16117249E-02   2621.24228517    2.08053313E-07   5.97183920E+16   3.86511790E+09   1.45090497E+08   1.02750884E+08   0.078314279     
  36               2.43785848E-02   2.43528573E-02   2645.79751962    2.31298462E-07   6.66682658E+16   3.83913716E+09   1.71072594E+08   1.01501299E+08   0.078411524     
  37               2.87063246E-02   2.74149088E-02   2670.91239542    2.56799188E-07   7.43452114E+16   3.80998638E+09   2.00224226E+08   1.00244865E+08   0.078592853     
  38               3.38023342E-02   3.08310969E-02   2695.63359415    2.84948621E-07   8.28426448E+16   3.77742960E+09   2.32782279E+08   9.89819591E+07   0.078885166     
  39               3.98029987E-02   3.46372118E-02   2720.97498417    3.15730558E-07   9.22028224E+16   3.74118087E+09   2.69030708E+08   9.77129915E+07   0.079192739     
  40               4.68689142E-02   3.88717279E-02   2745.90138305    3.49622324E-07   1.02535617E+17   3.70095156E+09   3.09258524E+08   9.64384468E+07   0.079481427     
  41               5.51891865E-02   4.35761513E-02   2771.42406531    3.86580380E-07   1.13886363E+17   3.65641463E+09   3.53793388E+08   9.51587798E+07   0.079682678     
  42               6.49864917E-02   4.87951959E-02   2796.44601940    4.27189453E-07   1.26385271E+17   3.60726627E+09   4.02939792E+08   9.38744704E+07   0.079844835     
  43               7.65230361E-02   5.45771772E-02   2822.03114328    4.71360694E-07   1.40079669E+17   3.55317771E+09   4.57026533E+08   9.25859260E+07   0.0799552       
  44               9.01075730E-02   6.09741310E-02   2847.05667021    5.19798770E-07   1.55122697E+17   3.49384220E+09   5.16361079E+08   9.12935549E+07   0.080077682     
  45               1.06103667E-01   6.80422477E-02   2872.64924057    5.72349671E-07   1.71562312E+17   3.42889333E+09   5.81310131E+08   8.99976757E+07   0.080226944     
  46               1.24939422E-01   7.58419202E-02   2897.67696149    6.29848218E-07   1.89576801E+17   3.35796653E+09   6.52237653E+08   8.86985967E+07   0.080488184     
  47               1.47118942E-01   8.44381475E-02   2923.34285794    6.92039354E-07   2.09211129E+17   3.28059704E+09   7.29607335E+08   8.73965296E+07   0.080833338     
  48               1.73235819E-01   9.39006244E-02   2948.47792825    7.59914364E-07   2.30672827E+17   3.19632033E+09   8.13883243E+08   8.60916672E+07   0.081258621     
  49               2.03989021E-01   1.04304541E-01   2974.30609045    8.33119972E-07   2.54005662E+17   3.10459756E+09   9.05603876E+08   8.47840837E+07   0.081683846     
  50               2.40201599E-01   1.15731007E-01   2999.58964550    9.12863852E-07   2.79456186E+17   3.00497891E+09   1.00522020E+09   8.34738084E+07   0.082104335     
  51               2.82842712E-01   1.28267625E-01   3025.57385138    9.98687301E-07   3.07068407E+17   2.89699248E+09   1.11320402E+09   8.21607892E+07   0.082496806     
  52               3.33053570E-01   1.42006075E-01   3050.98139320    1.09201993E-06   3.37126743E+17   2.78029173E+09   1.22990198E+09   8.08452164E+07   0.082858638     
  53               3.92177970E-01   1.57046313E-01   3077.07751189    1.19226698E-06   3.69670800E+17   2.65465476E+09   1.35553640E+09   7.95270786E+07   0.083162474     
  54               4.61798262E-01   1.73497715E-01   3102.55341115    1.30116430E-06   4.05042255E+17   2.52025144E+09   1.48993774E+09   7.82062181E+07   0.083453936     
  55               5.43777701E-01   1.91480501E-01   3128.73203032    1.41796674E-06   4.43283971E+17   2.37757763E+09   1.63261031E+09   7.68822860E+07   0.08376653      
  56               6.40310309E-01   2.11125817E-01   3154.30793562    1.54472713E-06   4.84800538E+17   2.22767255E+09   1.78251559E+09   7.55548712E+07   0.084147485     
  57               7.53979598E-01   2.32577188E-01   3180.65871662    1.68049793E-06   5.29634032E+17   2.07199398E+09   1.93819565E+09   7.42234430E+07   0.084602294     
  58               8.87827707E-01   2.55990611E-01   3206.46145856    1.82769835E-06   5.78260933E+17   1.91254090E+09   2.09765115E+09   7.28874626E+07   0.08514323      
  59               1.04543683E+00   2.81536513E-01   3233.12472966    1.98515353E-06   6.30722186E+17   1.75164255E+09   2.25855162E+09   7.15463062E+07   0.085772469     
  60               1.23102506E+00   3.09399905E-01   3259.30502938    2.15569954E-06   6.87576474E+17   1.59199172E+09   2.41820416E+09   7.01993630E+07   0.086475825     
  61               1.44955933E+00   3.39783064E-01   3286.42599299    2.33791551E-06   7.48865305E+17   1.43631431E+09   2.57388293E+09   6.88459447E+07   0.087211536     
  62               1.70688827E+00   3.72906402E-01   3313.09667442    2.53517629E-06   8.15251433E+17   1.28730240E+09   2.72289462E+09   6.74853706E+07   0.087919523     
  63               2.00989882E+00   4.09012671E-01   3340.72910227    2.74586373E-06   8.86791132E+17   1.14725748E+09   2.86293706E+09   6.61168643E+07   0.088551014     
  64               2.36670046E+00   4.48368558E-01   3367.88151670    2.97404403E-06   9.64282278E+17   1.01802636E+09   2.99216138E+09   6.47396447E+07   0.089086018     
  65               2.78684231E+00   4.91269445E-01   3395.97987017    3.21788238E-06   1.04780505E+18   9.00707060E+08   3.10947564E+09   6.33528402E+07   0.089533841     
  66               3.28156866E+00   5.38040326E-01   3423.56602552    3.48220467E-06   1.13831369E+18   7.95625508E+08   3.21455558E+09   6.19556038E+07   0.08992592      
  67               3.86411992E+00   5.89040682E-01   3452.11064029    3.76485780E-06   1.23590880E+18   7.02418971E+08   3.30776517E+09   6.05470307E+07   0.090297247     
  68               4.55008695E+00   6.44664894E-01   3480.15345023    4.07148297E-06   1.34171868E+18   6.20113363E+08   3.39007883E+09   5.91262741E+07   0.090690633     
  69               5.35782835E+00   7.05347708E-01   3509.21612255    4.39949924E-06   1.45585789E+18   5.47648247E+08   3.46255735E+09   5.76924519E+07   0.091169648     
  70               6.30896177E+00   7.71563694E-01   3537.85309109    4.75536946E-06   1.57963893E+18   4.83646102E+08   3.52657960E+09   5.62447622E+07   0.091774474     
  71               7.42894249E+00   8.43833614E-01   3567.63563018    5.13593841E-06   1.71317674E+18   4.27183277E+08   3.58306885E+09   5.47823724E+07   0.092525365     
  72               8.74774463E+00   9.22724786E-01   3597.10588618    5.54862788E-06   1.85799613E+18   3.76959790E+08   3.63331674E+09   5.33045156E+07   0.09337673      
  73               1.03006634E+01   1.00886120E+00   3627.83191197    5.98979619E-06   2.01423484E+18   3.32507095E+08   3.67779385E+09   5.18103596E+07   0.094306394     
  74               1.21292597E+01   1.10292529E+00   3658.31743051    6.46810648E-06   2.18368780E+18   2.92763966E+08   3.71755334E+09   5.02991098E+07   0.095259798     
  75               1.42824725E+01   1.20567120E+00   3690.12293224    6.97946458E-06   2.36654022E+18   2.57722334E+08   3.75260807E+09   4.87698780E+07   0.096236201     
  76               1.68179283E+01   1.31792668E+00   3721.72749409    7.53397638E-06   2.56491228E+18   2.26411191E+08   3.78392375E+09   4.72218037E+07   0.097157281     
  77               1.98034838E+01   1.44061033E+00   3754.66851066    8.12721680E-06   2.77907817E+18   1.98981266E+08   3.81135305E+09   4.56539253E+07   0.098010792     
  78               2.33190416E+01   1.57473467E+00   3787.39173479    8.77110834E-06   3.01157028E+18   1.74515707E+08   3.83580163E+09   4.40653159E+07   0.098723262     
  79               2.74586889E+01   1.72142686E+00   3821.41300754    9.46100765E-06   3.26279988E+18   1.53301497E+08   3.85701500E+09   4.24549675E+07   0.099358995     
  80               3.23332155E+01   1.88192991E+00   3855.19400403    1.02107191E-05   3.53576219E+18   1.34626073E+08   3.87570768E+09   4.08219381E+07   0.099999642     
  81               3.80730788E+01   2.05761949E+00   3890.33283945    1.10146524E-05   3.83092937E+18   1.18677733E+08   3.89169613E+09   3.91652486E+07   0.10072297      
  82               4.48318951E+01   2.25000342E+00   3925.31622173    1.18884724E-05   4.15178034E+18   1.04652213E+08   3.90577948E+09   3.74840156E+07   0.10154342      
  83               5.27905513E+01   2.46074445E+00   3961.78065034    1.28255953E-05   4.49885429E+18   9.26645575E+07   3.91784821E+09   3.57773200E+07   0.10250551      
  84               6.21620456E+01   2.69166177E+00   3998.21642122    1.38438113E-05   4.87618335E+18   8.20116715E+07   3.92858363E+09   3.40443237E+07   0.10358719      
  85               7.31971881E+01   2.94475834E+00   4036.27488028    1.49354989E-05   5.28438882E+18   7.28300937E+07   3.93783902E+09   3.22841415E+07   0.10479233      
  86               8.61913133E+01   3.22222502E+00   4074.42132585    1.61210636E-05   5.72816829E+18   6.45273684E+07   3.94619880E+09   3.04959572E+07   0.10600827      
  87               1.01492184E+02   3.52647487E+00   4114.25605313    1.73924134E-05   6.20833748E+18   5.72929366E+07   3.95348694E+09   2.86789230E+07   0.10722647      
  88               1.19509299E+02   3.86014999E+00   4154.20756582    1.87732236E-05   6.73041474E+18   5.07060241E+07   3.96011997E+09   2.68322796E+07   0.10837197      
  89               1.40724851E+02   4.22615310E+00   4195.84869717    2.02548566E-05   7.29543592E+18   4.49691813E+07   3.96591219E+09   2.49552954E+07   0.10950362      
  90               1.65706635E+02   4.62764898E+00   4237.61751943    2.18641965E-05   7.90978162E+18   3.97629973E+07   3.97114128E+09   2.30473821E+07   0.11060778      
  91               1.95123240E+02   5.06808976E+00   4281.10275551    2.35913695E-05   8.57461217E+18   3.52300318E+07   3.97572529E+09   2.11080406E+07   0.11170136      
  92               2.29761945E+02   5.55121930E+00   4324.71807177    2.54670807E-05   9.29729096E+18   3.11345709E+07   3.97993065E+09   1.91369503E+07   0.11282875      
  93               2.70549789E+02   6.08108622E+00   4370.11266326    2.74791804E-05   1.00789286E+19   2.76054993E+07   3.98363074E+09   1.71339286E+07   0.11410224      
  94               3.18578380E+02   6.66204015E+00   4415.75022032    2.96610570E-05   1.09276955E+19   2.44378440E+07   3.98700113E+09   1.50989685E+07   0.1155097       
  95               3.75133111E+02   7.29873080E+00   4463.29817554    3.19978844E-05   1.18445150E+19   2.17109363E+07   3.98995525E+09   1.30322312E+07   0.11710049      
  96               4.41727563E+02   7.99610555E+00   4511.22086401    3.45261092E-05   1.28383812E+19   1.92478383E+07   3.99256635E+09   1.09340561E+07   0.11872525      
  97               5.20144008E+02   8.75939569E+00   4561.09018939    3.72295009E-05   1.39101344E+19   1.70956352E+07   3.99487137E+09   8.80501759E+06   0.12034644      
  98               6.12481111E+02   9.59412561E+00   4611.29524992    4.01492257E-05   1.50698285E+19   1.51385944E+07   3.99700754E+09   6.64591033E+06   0.1218965       
  99               7.21210099E+02   1.05060726E+01   4663.37397284    4.32665803E-05   1.63179649E+19   1.34310360E+07   3.99897577E+09   4.45781447E+06   0.12348155      
  100              8.49240896E+02   1.15012720E+01   4715.75773593    4.66253369E-05   1.76652678E+19   1.18926516E+07   4.00087224E+09   2.24199950E+06   0.12511635      
  101              1.00000000E+03   1.25859348E+01   4770.02072033    5.02019057E-05   1.91113362E+19   1.12643861E+07   4.00183755E+09   0.00000000E+00   0.12688645      
