# ATMO pressure-temperature profile
# Effective temperature = 200.0K
# log(g) = 3.5cm/s^2
# M/H = 0.0
# Optical depth grid in band 17 (1.20-1.33microns)
# All parameters in cgs units
#
# Model Level      Optical Depth    Pressure         Temperature      Density          Number Density   Rad Flux         Conv Flux        Radial Extension Adiabatic Gradient
#                                   [Ba]             [K]              [g/cm^3]         [/cm^3]          [ergs/s/cm^2/sr] [ergs/s/cm^2/sr] [cm]             [K/Ba]          
  1                5.00000000E-05   1.00000000E-05   28.33114851      9.94816895E-09   2.55659337E+15   9.06536510E+04   0.00000000E+00   4.59154645E+07   0.3458213       
  2                5.91534807E-05   1.55821580E-04   33.43591830      1.31347461E-07   3.37551614E+16   9.06536510E+04   0.00000000E+00   4.46397914E+07   0.31479363      
  3                6.99826855E-05   3.27941178E-04   38.85175883      2.37898991E-07   6.11379831E+16   9.06536510E+04   0.00000000E+00   4.43318819E+07   0.31482527      
  4                8.27943887E-05   5.31112149E-04   40.17027881      3.72639358E-07   9.57650917E+16   9.06536371E+04   0.00000000E+00   4.41160970E+07   0.31484625      
  5                9.79515255E-05   7.70847498E-04   41.69629409      5.21048732E-07   1.33905017E+17   9.06536563E+04   0.00000000E+00   4.39440494E+07   0.31486273      
  6                1.15883473E-04   1.05363240E-03   44.22172875      6.71522758E-07   1.72575540E+17   9.06536656E+04   0.00000000E+00   4.37928721E+07   0.31487683      
  7                1.37098216E-04   1.38702229E-03   45.18453569      8.65168999E-07   2.22340949E+17   9.06536737E+04   0.00000000E+00   4.36545564E+07   0.31488952      
  8                1.62196734E-04   1.77986536E-03   47.41707466      1.05793681E-06   2.71880609E+17   9.06536828E+04   0.00000000E+00   4.35247073E+07   0.3149013       
  9                1.91890027E-04   2.24259569E-03   48.25792018      1.30975395E-06   3.36595435E+17   9.06536917E+04   0.00000000E+00   4.34003981E+07   0.31491251      
  10               2.27019260E-04   2.78713632E-03   50.37142998      1.55948522E-06   4.00774214E+17   9.06537101E+04   0.00000000E+00   4.32799098E+07   0.31492335      
  11               2.68579588E-04   3.42740947E-03   51.28290311      1.88365222E-06   4.84082329E+17   9.06537286E+04   0.00000000E+00   4.31617760E+07   0.31493396      
  12               3.17748350E-04   4.17985032E-03   53.39012583      2.20651619E-06   5.67055575E+17   9.06537482E+04   0.00000000E+00   4.30450632E+07   0.31494446      
  13               3.75918418E-04   5.06311321E-03   54.38679662      2.62380461E-06   6.74295091E+17   9.06537531E+04   0.00000000E+00   4.29289797E+07   0.31495494      
  14               4.44737657E-04   6.09833978E-03   56.33696288      3.05088277E-06   7.84050484E+17   9.06538019E+04   0.00000000E+00   4.28132734E+07   0.31496546      
  15               5.26155608E-04   7.31066384E-03   57.45940656      3.58593994E-06   9.21555548E+17   9.06538852E+04   0.00000000E+00   4.26973678E+07   0.31497609      
  16               6.22478712E-04   8.72889521E-03   59.50825709      4.13418001E-06   1.06244850E+18   9.06540319E+04   0.00000000E+00   4.25808879E+07   0.3149869       
  17               7.36435649E-04   1.03852508E-02   60.81512088      4.81296549E-06   1.23689050E+18   9.06542524E+04   0.00000000E+00   4.24634651E+07   0.31499794      
  18               8.71254639E-04   1.23156009E-02   63.08590643      5.50212675E-06   1.41399898E+18   9.06545669E+04   0.00000000E+00   4.23448433E+07   0.31500925      
  19               1.03075489E-03   1.45613352E-02   64.60238077      6.35272433E-06   1.63259521E+18   9.06549837E+04   0.00000000E+00   4.22247239E+07   0.3150209       
  20               1.21945479E-03   1.71703498E-02   67.12837485      7.20908826E-06   1.85267333E+18   9.06555312E+04   0.00000000E+00   4.21028092E+07   0.31503294      
  21               1.44269991E-03   2.01976155E-02   69.02341416      8.24728486E-06   2.11948087E+18   9.06561397E+04   0.00000000E+00   4.19786568E+07   0.31504544      
  22               1.70681442E-03   2.37060321E-02   71.99108755      9.28084387E-06   2.38509660E+18   9.06567238E+04   0.00000000E+00   4.18518444E+07   0.31505848      
  23               2.01928028E-03   2.77595330E-02   74.62560412      1.04841114E-05   2.69432596E+18   9.06566088E+04   0.00000000E+00   4.17218960E+07   0.31507211      
  24               2.38894914E-03   3.24346906E-02   77.89829555      1.17351633E-05   3.01583546E+18   9.06556732E+04   0.00000000E+00   4.15886096E+07   0.31508643      
  25               2.82629313E-03   3.78336417E-02   81.00172633      1.31641010E-05   3.38306008E+18   9.06534947E+04   0.00000000E+00   4.14512468E+07   0.31510155      
  26               3.34370152E-03   4.40899061E-02   85.00515150      1.46184478E-05   3.75681464E+18   9.06491250E+04   4.58220927E+00   4.13086306E+07   0.31511766      
  27               3.95583167E-03   5.13702288E-02   89.19744531      1.62317901E-05   4.17142965E+18   9.06398623E+04   1.38263953E+01   4.11591734E+07   0.31513499      
  28               4.68002425E-03   5.98615153E-02   93.60474646      1.80242486E-05   4.63207598E+18   9.06244248E+04   2.92617337E+01   4.10021871E+07   0.31515375      
  29               5.53679448E-03   6.97924461E-02   98.24227813      2.00224548E-05   5.14559777E+18   9.06006101E+04   5.30747875E+01   4.08368758E+07   0.31517421      
  30               6.55041330E-03   8.14383979E-02   103.14088589     2.22538777E-05   5.71905408E+18   9.05647897E+04   8.88963035E+01   4.06624087E+07   0.31519668      
  31               7.74959494E-03   9.51142205E-02   108.31099765     2.47502917E-05   6.36060954E+18   9.05101369E+04   1.43563671E+02   4.04781362E+07   0.31691429      
  32               9.16831029E-03   1.11086561E-01   113.80495500     2.75111217E-05   7.07011035E+18   9.04192965E+04   2.34480024E+02   4.02845723E+07   0.32011855      
  33               1.08467493E-02   1.29225965E-01   119.47629839     3.04844765E-05   7.83418574E+18   9.02594809E+04   3.94676127E+02   4.00864969E+07   0.32272002      
  34               1.28324595E-02   1.48042268E-01   124.85680395     3.34187389E-05   8.58814474E+18   9.00225011E+04   6.34079638E+02   3.99000727E+07   0.32433569      
  35               1.51816929E-02   1.63073081E-01   128.83986073     3.56799443E-05   9.16764672E+18   8.97478504E+04   9.18097198E+02   3.97624188E+07   0.32547666      
  36               1.79609996E-02   1.75097443E-01   131.86743908     3.74278830E-05   9.61763014E+18   8.94810816E+04   1.19249111E+03   3.96583663E+07   0.32603565      
  37               2.12491128E-02   1.83927586E-01   133.99555727     3.87164253E-05   9.94219579E+18   8.92277413E+04   1.43425500E+03   3.95850047E+07   0.32614341      
  38               2.51391797E-02   1.89902215E-01   135.40485098     3.95580236E-05   1.01583143E+19   8.90115824E+04   1.63608560E+03   3.95367270E+07   0.32602888      
  39               2.97413996E-02   1.96949741E-01   137.01757054     4.05431913E-05   1.04113007E+19   8.88329058E+04   1.81475061E+03   3.94810776E+07   0.3258453       
  40               3.51861462E-02   2.05259517E-01   138.87980886     4.16872236E-05   1.07050828E+19   8.86798751E+04   1.96783967E+03   3.94171588E+07   0.32558038      
  41               4.16276604E-02   2.15053448E-01   140.99721349     4.30204214E-05   1.10474417E+19   8.85483830E+04   2.09944487E+03   3.93440250E+07   0.32539469      
  42               4.92484201E-02   2.26591510E-01   143.42065379     4.45626199E-05   1.14434711E+19   8.84356715E+04   2.21231305E+03   3.92606933E+07   0.32525811      
  43               5.82643093E-02   2.40178231E-01   146.15672459     4.63504143E-05   1.19025682E+19   8.83384438E+04   2.30973319E+03   3.91661561E+07   0.32515263      
  44               6.89307339E-02   2.56170339E-01   149.25798093     4.84094404E-05   1.24313164E+19   8.82521599E+04   2.39623754E+03   3.90593948E+07   0.32502618      
  45               8.15498567E-02   2.74985782E-01   152.72944591     5.07839226E-05   1.30410723E+19   8.81706218E+04   2.47801938E+03   3.89393934E+07   0.32492497      
  46               9.64791575E-02   2.97114319E-01   156.62499312     5.35058547E-05   1.37400514E+19   8.80854443E+04   2.56345500E+03   3.88051513E+07   0.32476106      
  47               1.14141560E-01   3.23130189E-01   160.94517130     5.66289317E-05   1.45420429E+19   8.79851117E+04   2.66405280E+03   3.86556935E+07   0.32440491      
  48               1.35037411E-01   3.53707822E-01   165.73926292     6.01946728E-05   1.54577081E+19   8.78494000E+04   2.80003727E+03   3.84900762E+07   0.32380746      
  49               1.59758657E-01   3.89640719E-01   171.00124559     6.42693474E-05   1.65040641E+19   8.76320054E+04   3.01772441E+03   3.83073877E+07   0.32297216      
  50               1.89005613E-01   4.31862625E-01   176.77768780     6.89060080E-05   1.76947329E+19   8.72439177E+04   3.40615083E+03   3.81067524E+07   0.32181231      
  51               2.23606798E-01   4.81466495E-01   183.05198285     7.41875142E-05   1.90509866E+19   8.65201334E+04   4.13040542E+03   3.78873600E+07   0.32040728      
  52               2.64542408E-01   5.39737189E-01   189.86927808     8.01802932E-05   2.05898642E+19   8.51582411E+04   5.49312573E+03   3.76484407E+07   0.31882607      
  53               3.12972084E-01   6.08081050E-01   197.19777174     8.69764862E-05   2.23349665E+19   8.18486136E+04   8.80529378E+03   3.73896401E+07   0.31727355      
  54               3.70267763E-01   6.88059104E-01   205.07333370     9.46381084E-05   2.43020211E+19   7.42795698E+04   1.63775024E+04   3.71108750E+07   0.31565189      
  55               4.38052539E-01   7.81433022E-01   213.44509647     1.03270296E-04   2.65174292E+19   6.16139666E+04   2.90451838E+04   3.68121932E+07   0.31402673      
  56               5.18246648E-01   8.90086967E-01   222.34105074     1.12919690E-04   2.89960358E+19   4.67009120E+04   4.39578005E+04   3.64940052E+07   0.31236702      
  57               6.13121862E-01   1.01479213E+00   231.59835114     1.23811530E-04   3.17371164E+19   3.43405881E+04   5.63190176E+04   3.61603583E+07   0.31081573      
  58               7.25365844E-01   1.15556383E+00   241.13175656     1.35343283E-04   3.47108597E+19   2.73691878E+04   6.32903538E+04   3.58164707E+07   0.30937289      
  59               8.58158289E-01   1.31388354E+00   250.86556895     1.48495968E-04   3.79351367E+19   2.43480082E+04   6.63051298E+04   3.54631412E+07   0.3080918       
  60               1.01526100E+00   1.48754410E+00   260.64227051     1.61816889E-04   4.13381311E+19   2.30247896E+04   6.76232885E+04   3.51088732E+07   0.30694345      
  61               1.20112443E+00   1.69041585E+00   271.03920146     1.76831771E-04   4.51738689E+19   2.23651639E+04   6.82833725E+04   3.47296198E+07   0.30586252      
  62               1.42101382E+00   1.92715167E+00   282.12270989     1.93676397E-04   4.94770375E+19   2.18552404E+04   6.87934781E+04   3.43250947E+07   0.30485353      
  63               1.68115827E+00   2.20301436E+00   293.83103493     2.12578096E-04   5.43057109E+19   2.15952139E+04   6.90530254E+04   3.38951670E+07   0.30394887      
  64               1.98892727E+00   2.52409454E+00   306.23714773     2.33693480E-04   5.96998976E+19   2.16470637E+04   6.90000401E+04   3.34396224E+07   0.30316594      
  65               2.35303941E+00   2.89722156E+00   319.27413853     2.57286391E-04   6.57269994E+19   2.19378812E+04   6.87076884E+04   3.29584231E+07   0.30250303      
  66               2.78380943E+00   3.32997592E+00   333.01196126     2.83517655E-04   7.24281012E+19   2.23438160E+04   6.83003519E+04   3.24517323E+07   0.30193137      
  67               3.29344035E+00   3.83094436E+00   347.37248019     3.12686611E-04   7.98796724E+19   2.27265327E+04   6.79170890E+04   3.19196661E+07   0.30143304      
  68               3.89636920E+00   4.41072200E+00   362.45611754     3.45027003E-04   8.81414298E+19   2.29275689E+04   6.77169416E+04   3.13614784E+07   0.30102916      
  69               4.60967600E+00   5.08107812E+00   378.19582401     3.80923938E-04   9.73116828E+19   2.27708579E+04   6.78758812E+04   3.07767421E+07   0.30072828      
  70               5.45356761E+00   5.85441854E+00   394.67288933     4.20577073E-04   1.07441562E+20   2.21412809E+04   6.85078934E+04   3.01657596E+07   0.30050684      
  71               6.45195012E+00   6.74340269E+00   411.77129372     4.64325088E-04   1.18617528E+20   2.10926353E+04   6.95584411E+04   2.95296087E+07   0.30030543      
  72               7.63310614E+00   7.76107763E+00   429.54259027     5.12288867E-04   1.30870462E+20   1.98816368E+04   7.07718080E+04   2.88697658E+07   0.30011488      
  73               9.03049593E+00   8.92396006E+00   447.89236342     5.64914969E-04   1.44314444E+20   1.87475908E+04   7.19087313E+04   2.81861898E+07   0.29994463      
  74               1.06837053E+01   1.02492781E+01   466.90762870     6.22387935E-04   1.58996713E+20   1.76678948E+04   7.29906012E+04   2.74793874E+07   0.29980474      
  75               1.26395671E+01   1.17544140E+01   486.45576085     6.85112244E-04   1.75018304E+20   1.62352912E+04   7.44269021E+04   2.67504899E+07   0.29967954      
  76               1.49534878E+01   1.34567036E+01   506.60181474     7.53154799E-04   1.92396774E+20   1.42565973E+04   7.64064060E+04   2.60010941E+07   0.29955357      
  77               1.76910170E+01   1.53754537E+01   527.20486526     8.26914928E-04   2.11239130E+20   1.28711773E+04   7.77893456E+04   2.52322365E+07   0.29941271      
  78               2.09297047E+01   1.75410541E+01   548.44649783     9.06846367E-04   2.31657977E+20   1.22984772E+04   7.83610852E+04   2.44414103E+07   0.29925526      
  79               2.47612977E+01   1.99851886E+01   570.24137012     9.93711975E-04   2.53848948E+20   1.17490737E+04   7.89096491E+04   2.36272162E+07   0.29908866      
  80               2.92943389E+01   2.27382569E+01   592.70969380     1.08779948E-03   2.77869563E+20   1.12081978E+04   7.94497471E+04   2.27898439E+07   0.29891459      
  81               3.46572422E+01   2.58271807E+01   615.67070636     1.18949387E-03   3.03846578E+20   1.06674259E+04   7.99897709E+04   2.19311238E+07   0.2987231       
  82               4.10019301E+01   2.92747653E+01   639.17945207     1.29868640E-03   3.31738943E+20   1.01693623E+04   8.04872346E+04   2.10539580E+07   0.29849552      
  83               4.85081376E+01   3.31163405E+01   663.09488822     1.41612080E-03   3.61736639E+20   9.74046979E+03   8.09159848E+04   2.01581662E+07   0.2982142       
  84               5.73885036E+01   3.74061652E+01   687.65032765     1.54244303E-03   3.94004673E+20   9.34725894E+03   8.13093525E+04   1.92402885E+07   0.29787041      
  85               6.78945948E+01   4.21947220E+01   712.71576769     1.67870856E-03   4.28812664E+20   8.94851404E+03   8.17084599E+04   1.82992390E+07   0.29747775      
  86               8.03240320E+01   4.75293931E+01   738.43288712     1.82509171E-03   4.66205163E+20   8.52586140E+03   8.21312316E+04   1.73354595E+07   0.29705218      
  87               9.50289215E+01   5.34562917E+01   764.60252651     1.98242351E-03   5.06394452E+20   8.07465198E+03   8.25799385E+04   1.63501176E+07   0.29659025      
  88               1.12425830E+02   6.00281038E+01   791.37627406     2.15082397E-03   5.49411112E+20   7.63503252E+03   8.30149199E+04   1.53436853E+07   0.29608711      
  89               1.33007583E+02   6.73306897E+01   818.66812763     2.33205204E-03   5.95704691E+20   7.27210606E+03   8.33754116E+04   1.43125749E+07   0.29552669      
  90               1.57357229E+02   7.54823265E+01   846.80844120     2.52751399E-03   6.45633325E+20   7.02435831E+03   8.36255894E+04   1.32508082E+07   0.29490701      
  91               1.86164557E+02   8.45825540E+01   875.63610491     2.73898828E-03   6.99653440E+20   6.88281181E+03   8.37753498E+04   1.21570774E+07   0.29421764      
  92               2.20245630E+02   9.47071789E+01   905.26700967     2.96648454E-03   7.57760645E+20   6.81346220E+03   8.38586433E+04   1.10338608E+07   0.29345571      
  93               2.60565913E+02   1.05903284E+02   935.34827226     3.21049111E-03   8.20090764E+20   6.84207548E+03   8.38443906E+04   9.88660493E+06   0.2926244       
  94               3.08267614E+02   1.18203996E+02   965.92094158     3.46998618E-03   8.86372793E+20   6.97667778E+03   8.37237174E+04   8.72118879E+06   0.29172618      
  95               3.64702046E+02   1.31668174E+02   996.69505217     3.74589238E-03   9.56851076E+20   7.12399916E+03   8.35928706E+04   7.54022003E+06   0.29077617      
  96               4.31467909E+02   1.46455460E+02   1028.02840769    4.03958734E-03   1.03187310E+21   7.23593067E+03   8.34964106E+04   6.33811493E+06   0.28977388      
  97               5.10456573E+02   1.62711339E+02   1059.74957161    4.35362741E-03   1.11209121E+21   7.30627149E+03   8.34330436E+04   5.11232383E+06   0.2887327       
  98               6.03905660E+02   1.80557514E+02   1092.07838163    4.68812707E-03   1.19753330E+21   7.32065059E+03   8.34175571E+04   3.86315816E+06   0.28764505      
  99               7.14462436E+02   2.00096653E+02   1124.70884135    5.04474945E-03   1.28862204E+21   7.26645315E+03   8.34788499E+04   2.59262443E+06   0.28652792      
  100              8.45258798E+02   2.21408329E+02   1157.80119783    5.42264245E-03   1.38511490E+21   7.20487646E+03   8.35874990E+04   1.30409770E+06   0.2853798       
  101              1.00000000E+03   2.44580520E+02   1191.02288256    5.82241443E-03   1.48739939E+21   7.17725596E+03   8.36694923E+04   0.00000000E+00   0.28421706      
