# ATMO pressure-temperature profile
# Effective temperature = 250.0K
# log(g) = 3.0cm/s^2
# M/H = 0.0
# Optical depth grid in band 17 (1.20-1.33microns)
# All parameters in cgs units
#
# Model Level      Optical Depth    Pressure         Temperature      Density          Number Density   Rad Flux         Conv Flux        Radial Extension Adiabatic Gradient
#                                   [Ba]             [K]              [g/cm^3]         [/cm^3]          [ergs/s/cm^2/sr] [ergs/s/cm^2/sr] [cm]             [K/Ba]          
  1                1.00000000E-04   1.00000000E-05   33.74368236      8.35247415E-09   2.14651222E+15   2.21440935E+05   0.00000000E+00   2.05081041E+08   0.34612403      
  2                1.17489755E-04   9.77588022E-05   43.46641116      6.33883872E-08   1.62902567E+16   2.21440935E+05   0.00000000E+00   2.01267062E+08   0.34616407      
  3                1.38038426E-04   2.00719696E-04   47.06143660      1.20207738E-07   3.08923288E+16   2.21440935E+05   0.00000000E+00   2.00087553E+08   0.31479367      
  4                1.62181010E-04   3.21525768E-04   51.14071045      1.77197113E-07   4.55380958E+16   2.21440935E+05   0.00000000E+00   1.99259813E+08   0.31481608      
  5                1.90546072E-04   4.63236186E-04   52.96880694      2.46484662E-07   6.33443852E+16   2.21440935E+05   0.00000000E+00   1.98581737E+08   0.31483331      
  6                2.23872114E-04   6.29438963E-04   56.02534846      3.16647942E-07   8.13757296E+16   2.21440953E+05   0.00000000E+00   1.97986821E+08   0.3148477       
  7                2.63026799E-04   8.24286677E-04   58.04618740      4.00232355E-07   1.02856187E+17   2.21440952E+05   0.00000000E+00   1.97439489E+08   0.31486038      
  8                3.09029543E-04   1.05267485E-03   60.69484096      4.88821259E-07   1.25622754E+17   2.21440945E+05   0.00000000E+00   1.96923141E+08   0.31487195      
  9                3.63078055E-04   1.32025627E-03   62.50677579      5.95303938E-07   1.52987864E+17   2.21440948E+05   0.00000000E+00   1.96427107E+08   0.31488277      
  10               4.26579519E-04   1.63360547E-03   65.20023187      7.06164127E-07   1.81477955E+17   2.21440960E+05   0.00000000E+00   1.95943819E+08   0.31489308      
  11               5.01187234E-04   2.00046893E-03   67.04983916      8.40894835E-07   2.16102559E+17   2.21440972E+05   0.00000000E+00   1.95467738E+08   0.31490305      
  12               5.88843655E-04   2.42973088E-03   69.88785957      9.79860044E-07   2.51815393E+17   2.21440973E+05   0.00000000E+00   1.94994838E+08   0.31491274      
  13               6.91830971E-04   2.93130603E-03   71.92634232      1.14863171E-06   2.95188222E+17   2.21440941E+05   0.00000000E+00   1.94522053E+08   0.31492224      
  14               8.12830516E-04   3.51401142E-03   74.93185590      1.32173471E-06   3.39674167E+17   2.21440883E+05   0.00000000E+00   1.94049134E+08   0.3149316       
  15               9.54992586E-04   4.18694961E-03   77.30134126      1.52657561E-06   3.92316474E+17   2.21440744E+05   0.00000000E+00   1.93575390E+08   0.31494089      
  16               1.12201845E-03   4.96036169E-03   80.74866673      1.73135290E-06   4.44942431E+17   2.21440462E+05   0.00000000E+00   1.93099662E+08   0.31495015      
  17               1.31825674E-03   5.84595863E-03   83.68654110      1.96882780E-06   5.05971388E+17   2.21439894E+05   0.00000000E+00   1.92619995E+08   0.31495944      
  18               1.54881662E-03   6.85849565E-03   87.99452417      2.19675101E-06   5.64545643E+17   2.21438670E+05   4.98584700E+02   1.92133121E+08   0.31496882      
  19               1.81970086E-03   8.01729766E-03   92.44023685      2.44441293E-06   6.28192574E+17   2.21435221E+05   5.67756145E+00   1.91633050E+08   0.31497834      
  20               2.13796209E-03   9.34727809E-03   97.00776245      2.71572813E-06   6.97918187E+17   2.21428884E+05   1.20122870E+01   1.91116854E+08   0.31498805      
  21               2.51188643E-03   1.08778836E-02   101.76587244     3.01265715E-06   7.74226598E+17   2.21418301E+05   2.25910000E+01   1.90581741E+08   0.31499801      
  22               2.95120923E-03   1.26354493E-02   106.66980617     3.33854412E-06   8.57975773E+17   2.21400500E+05   4.03764882E+01   1.90027552E+08   0.31500826      
  23               3.46736850E-03   1.46049005E-02   111.66288322     3.68638147E-06   9.47361224E+17   2.21368950E+05   7.19627101E+01   1.89466158E+08   0.31531928      
  24               4.07380278E-03   1.66481532E-02   116.36142997     4.03247967E-06   1.03629369E+18   2.21317358E+05   1.24998330E+02   1.88936204E+08   0.31843681      
  25               4.78630092E-03   1.83074203E-02   119.99320248     4.30093722E-06   1.10508669E+18   2.21254405E+05   1.95942713E+02   1.88537764E+08   0.32015728      
  26               5.62341325E-03   1.96307763E-02   122.66572131     4.51094788E-06   1.15915122E+18   2.21197121E+05   2.61375755E+02   1.88237322E+08   0.32251082      
  27               6.60693448E-03   2.06121127E-02   124.67073024     4.66333743E-06   1.19752295E+18   2.21148337E+05   3.00214721E+02   1.88023338E+08   0.3237555       
  28               7.76247117E-03   2.12802270E-02   125.91203718     4.76702952E-06   1.22415059E+18   2.21112287E+05   3.22908070E+02   1.87881635E+08   0.32475314      
  29               9.12010839E-03   2.20628427E-02   127.45515452     4.88250729E-06   1.25380473E+18   2.21085082E+05   3.50191632E+02   1.87719415E+08   0.32524893      
  30               1.07151931E-02   2.29792423E-02   129.09737458     5.02061742E-06   1.28927076E+18   2.21065353E+05   3.70068599E+02   1.87534324E+08   0.32581204      
  31               1.25892541E-02   2.40518787E-02   131.09053449     5.17507331E-06   1.32893430E+18   2.21052809E+05   3.82827064E+02   1.87323890E+08   0.32601153      
  32               1.47910839E-02   2.53068735E-02   133.22270485     5.35795525E-06   1.37589751E+18   2.21047423E+05   3.88480252E+02   1.87085558E+08   0.32599075      
  33               1.73780083E-02   2.67745910E-02   135.75443389     5.56298204E-06   1.42854742E+18   2.21049464E+05   3.86747326E+02   1.86816720E+08   0.32581539      
  34               2.04173794E-02   2.84902991E-02   138.46635925     5.80352114E-06   1.49031672E+18   2.21059570E+05   3.76982942E+02   1.86514764E+08   0.32542938      
  35               2.39883292E-02   3.04949260E-02   141.62580005     6.07329034E-06   1.55959217E+18   2.21078718E+05   3.58201040E+02   1.86177107E+08   0.32528512      
  36               2.81838293E-02   3.28359229E-02   145.01030771     6.38688637E-06   1.64012215E+18   2.21107988E+05   3.29322076E+02   1.85801232E+08   0.32510763      
  37               3.31131121E-02   3.55682633E-02   148.89188215     6.73799181E-06   1.73028435E+18   2.21147952E+05   2.89764802E+02   1.85384722E+08   0.3250158       
  38               3.89045145E-02   3.87555965E-02   153.03657848     7.14295675E-06   1.83427741E+18   2.21197687E+05   2.40446593E+02   1.84925288E+08   0.32485358      
  39               4.57088190E-02   4.24716135E-02   157.72353924     7.59523304E-06   1.95041975E+18   2.21252858E+05   1.85690724E+02   1.84420780E+08   0.32475417      
  40               5.37031796E-02   4.68018795E-02   162.70542118     8.11334919E-06   2.08346932E+18   2.21305062E+05   1.33890217E+02   1.83869155E+08   0.32443608      
  41               6.30957344E-02   5.18454167E-02   168.26603891     8.69066341E-06   2.23172017E+18   2.21335109E+05   1.04187111E+02   1.83268523E+08   0.32402099      
  42               7.41310241E-02   5.77165719E-02   174.14059345     9.34845695E-06   2.40063618E+18   2.21304068E+05   1.35419634E+02   1.82617153E+08   0.32318747      
  43               8.70963590E-02   6.45475913E-02   180.61513575     1.00801417E-05   2.58852127E+18   2.21133777E+05   3.05837370E+02   1.81913462E+08   0.3222882       
  44               1.02329299E-01   7.24907140E-02   187.41344504     1.09100375E-05   2.80160867E+18   2.20659005E+05   7.80902384E+02   1.81156026E+08   0.32079296      
  45               1.20226443E-01   8.17178063E-02   194.81176184     1.18320137E-05   3.03827699E+18   2.19649795E+05   1.79083066E+03   1.80343897E+08   0.3193656       
  46               1.41253754E-01   9.24136825E-02   202.52526535     1.28721192E-05   3.30508708E+18   2.17628073E+05   3.81394744E+03   1.79477195E+08   0.31760619      
  47               1.65958691E-01   1.04751939E-01   210.79859553     1.40215564E-05   3.59931783E+18   2.13682775E+05   7.76142175E+03   1.78558752E+08   0.31613584      
  48               1.94984460E-01   1.18809672E-01   219.26777210     1.52954581E-05   3.92466719E+18   2.07355068E+05   1.40912967E+04   1.77598713E+08   0.3143834       
  49               2.29086765E-01   1.34139665E-01   227.84070595     1.66927483E-05   4.26433917E+18   1.98224866E+05   2.32210687E+04   1.76638640E+08   0.31292602      
  50               2.69153480E-01   1.50540763E-01   236.12651119     1.80763736E-05   4.61780089E+18   1.89550874E+05   3.18932683E+04   1.75694463E+08   0.31125053      
  51               3.16227766E-01   1.69542247E-01   245.07128122     1.96149614E-05   5.01084943E+18   1.82423861E+05   3.90196597E+04   1.74685354E+08   0.30998128      
  52               3.71535229E-01   1.91553760E-01   254.43721803     2.13457780E-05   5.45300483E+18   1.74728454E+05   4.67143376E+04   1.73609631E+08   0.30852318      
  53               4.36515832E-01   2.17049644E-01   264.47929375     2.32685513E-05   5.94419763E+18   1.66412225E+05   5.50299437E+04   1.72465623E+08   0.30741148      
  54               5.12861384E-01   2.46573078E-01   274.97321390     2.54247805E-05   6.49502918E+18   1.57813294E+05   6.36283971E+04   1.71251804E+08   0.30614857      
  55               6.02559586E-01   2.80747776E-01   286.15844057     2.78170908E-05   7.10617018E+18   1.49232470E+05   7.22088319E+04   1.69966754E+08   0.30525556      
  56               7.07945784E-01   3.20297560E-01   297.83135460     3.04919472E-05   7.78949053E+18   1.40874087E+05   8.05668303E+04   1.68608767E+08   0.30424424      
  57               8.31763771E-01   3.66061274E-01   310.21832440     3.34570992E-05   8.54696999E+18   1.32870631E+05   8.85699238E+04   1.67175970E+08   0.30351545      
  58               9.77237221E-01   4.19000299E-01   323.13148732     3.67652056E-05   9.39206074E+18   1.25430517E+05   9.60096594E+04   1.65666539E+08   0.30268828      
  59               1.14815362E+00   4.80212409E-01   336.78189319     4.04284033E-05   1.03278634E+19   1.19149958E+05   1.02289681E+05   1.64078813E+08   0.30212818      
  60               1.34896288E+00   5.50950803E-01   350.99614857     4.45053707E-05   1.13693676E+19   1.14504808E+05   1.06934205E+05   1.62411160E+08   0.3015606       
  61               1.58489319E+00   6.32678538E-01   365.98306344     4.90144418E-05   1.25212577E+19   1.11632650E+05   1.09805570E+05   1.60661308E+08   0.30115502      
  62               1.86208714E+00   7.27080346E-01   381.57752718     5.40258561E-05   1.38014735E+19   1.09984999E+05   1.11453248E+05   1.58826809E+08   0.30080988      
  63               2.18776162E+00   8.36072163E-01   397.99499724     5.95618518E-05   1.52157019E+19   1.08715438E+05   1.12722901E+05   1.56905448E+08   0.30053388      
  64               2.57039578E+00   9.61837136E-01   415.05318668     6.57051860E-05   1.67850882E+19   1.06826111E+05   1.14612596E+05   1.54895079E+08   0.30030771      
  65               3.01995172E+00   1.10686056E+00   432.98232455     7.24815955E-05   1.85160602E+19   1.03427315E+05   1.18011940E+05   1.52793596E+08   0.30013438      
  66               3.54813389E+00   1.27398973E+00   451.58526329     7.99891661E-05   2.04339349E+19   9.76707131E+04   1.23768859E+05   1.50598655E+08   0.29998938      
  67               4.16869383E+00   1.46640800E+00   471.10499736     8.82556050E-05   2.25456598E+19   8.79543165E+04   1.33485384E+05   1.48308528E+08   0.29987005      
  68               4.89778819E+00   1.68763206E+00   491.31236889     9.73943043E-05   2.48797441E+19   7.32719787E+04   1.48167008E+05   1.45922391E+08   0.29973706      
  69               5.75439937E+00   1.94176050E+00   512.46964310     1.07433455E-04   2.74443758E+19   6.10696447E+04   1.60366962E+05   1.43438018E+08   0.29959742      
  70               6.76082975E+00   2.23392973E+00   534.37535300     1.18538574E-04   3.02795159E+19   5.53666317E+04   1.66067468E+05   1.40848951E+08   0.29944729      
  71               7.94328235E+00   2.56992429E+00   557.33777133     1.30748967E-04   3.33985561E+19   5.09153567E+04   1.70518806E+05   1.38150072E+08   0.29933145      
  72               9.33254301E+00   2.95608481E+00   581.11153835     1.44242573E-04   3.68453961E+19   4.69691670E+04   1.74467899E+05   1.35338157E+08   0.29918108      
  73               1.09647820E+01   3.39985529E+00   606.01189978     1.59079703E-04   4.06354543E+19   4.34489433E+04   1.77992670E+05   1.32408583E+08   0.29901089      
  74               1.28824955E+01   3.91020830E+00   631.80695132     1.75489070E-04   4.48271711E+19   4.03973536E+04   1.81052387E+05   1.29354094E+08   0.29877526      
  75               1.51356125E+01   4.49904791E+00   658.91645111     1.93608080E-04   4.94556719E+19   3.79388597E+04   1.83524600E+05   1.26159536E+08   0.29856569      
  76               1.77827941E+01   5.18081092E+00   687.17700391     2.13776728E-04   5.46078358E+19   3.59645964E+04   1.85516478E+05   1.22808399E+08   0.29826899      
  77               2.08929613E+01   5.97231800E+00   717.00834424     2.36182393E-04   6.03315598E+19   3.44293357E+04   1.87073189E+05   1.19285894E+08   0.29796244      
  78               2.45470892E+01   6.89234130E+00   748.18128851     2.61207588E-04   6.67245682E+19   3.32803154E+04   1.88247099E+05   1.15581791E+08   0.29747947      
  79               2.88403150E+01   7.96204113E+00   781.04128096     2.89050077E-04   7.38373782E+19   3.26507834E+04   1.88902282E+05   1.11688799E+08   0.29699444      
  80               3.38844156E+01   9.20820427E+00   815.40103462     3.20201519E-04   8.17955216E+19   3.26599085E+04   1.88910437E+05   1.07592633E+08   0.29636232      
  81               3.98107171E+01   1.06571911E+01   851.52807671     3.54864665E-04   9.06503782E+19   3.34419597E+04   1.88125142E+05   1.03294076E+08   0.29572054      
  82               4.67735141E+01   1.23314427E+01   888.95588648     3.93325524E-04   1.00475348E+20   3.50581106E+04   1.86478070E+05   9.88126688E+07   0.29486156      
  83               5.49540874E+01   1.42468865E+01   927.62908962     4.35473087E-04   1.11242681E+20   3.74511842E+04   1.84034933E+05   9.41844567E+07   0.2940054       
  84               6.45654229E+01   1.64177296E+01   966.99650442     4.81395337E-04   1.22974208E+20   4.04149420E+04   1.81015646E+05   8.94431580E+07   0.29291584      
  85               7.58577575E+01   1.88666693E+01   1007.17026837    5.31135499E-04   1.35680733E+20   4.35803860E+04   1.77790858E+05   8.46000408E+07   0.29187447      
  86               8.91250938E+01   2.16119320E+01   1047.77748877    5.84843691E-04   1.49399921E+20   4.63675469E+04   1.74945225E+05   7.96744080E+07   0.29056237      
  87               1.04712855E+02   2.46666883E+01   1088.75190664    6.42401869E-04   1.64099689E+20   4.89302133E+04   1.72334440E+05   7.46906789E+07   0.2893397       
  88               1.23026877E+02   2.80423987E+01   1129.79501696    7.03783103E-04   1.79779987E+20   5.17733172E+04   1.69463035E+05   6.96702290E+07   0.28784068      
  89               1.44543977E+02   3.17590298E+01   1170.90404598    7.69073319E-04   1.96458924E+20   5.48897415E+04   1.66329852E+05   6.46184251E+07   0.28649637      
  90               1.69824365E+02   3.58588382E+01   1212.24963850    8.38734255E-04   2.14254519E+20   5.78390259E+04   1.63362546E+05   5.95137527E+07   0.2849226       
  91               1.99526231E+02   4.03801418E+01   1253.83078621    9.13160929E-04   2.33267777E+20   6.04915414E+04   1.60691042E+05   5.43474683E+07   0.28353489      
  92               2.34422882E+02   4.53533765E+01   1295.73575352    9.92451689E-04   2.53523967E+20   6.25245521E+04   1.58639328E+05   4.91233714E+07   0.2818994       
  93               2.75422870E+02   5.08018548E+01   1337.66579555    1.07682560E-03   2.75079221E+20   6.38975577E+04   1.57247726E+05   4.38529100E+07   0.28047765      
  94               3.23593657E+02   5.67427532E+01   1379.77143744    1.16603921E-03   2.97871597E+20   6.45246685E+04   1.56641708E+05   3.85511039E+07   0.27894187      
  95               3.80189396E+02   6.32082465E+01   1421.73152315    1.26055459E-03   3.22019365E+20   6.47744025E+04   1.56439393E+05   3.32181797E+07   0.27749807      
  96               4.46683592E+02   7.02789851E+01   1464.16801870    1.36092635E-03   3.47664546E+20   6.47627881E+04   1.56462081E+05   2.78197430E+07   0.27595945      
  97               5.24807460E+02   7.80218481E+01   1506.78754747    1.46810734E-03   3.75050761E+20   6.43807982E+04   1.56821962E+05   2.23419335E+07   0.27444411      
  98               6.16595002E+02   8.64785460E+01   1549.93557524    1.58190795E-03   4.04129517E+20   6.34640926E+04   1.57691926E+05   1.67926983E+07   0.27292304      
  99               7.24435960E+02   9.56637374E+01   1592.99425922    1.70259521E-03   4.34969668E+20   6.19272635E+04   1.59170697E+05   1.11958459E+07   0.27140879      
  100              8.51138038E+02   1.05563872E+02   1636.13651688    1.82927785E-03   4.67327798E+20   5.97417088E+04   1.61317559E+05   5.58601086E+06   0.26995431      
  101              1.00000000E+03   1.16144778E+02   1678.64360811    1.96139941E-03   5.01149182E+20   5.83271833E+04   1.62711170E+05   0.00000000E+00   0.26850978      
