# ATMO pressure-temperature profile
# Effective temperature = 2400.0K
# log(g) = 5.5cm/s^2
# M/H = 0.0
# Optical depth grid in band 17 (1.20-1.33microns)
# All parameters in cgs units
#
# Model Level      Optical Depth    Pressure         Temperature      Density          Number Density   Rad Flux         Conv Flux        Radial Extension Adiabatic Gradient
#                                   [Ba]             [K]              [g/cm^3]         [/cm^3]          [ergs/s/cm^2/sr] [ergs/s/cm^2/sr] [cm]             [K/Ba]          
  1                1.00000000E-08   1.00000000E-05   745.44342188     3.79951363E-10   9.71652904E+13   1.88112816E+09   0.00000000E+00   3.31604727E+06   0.29631492      
  2                1.28824955E-08   1.27462490E-05   753.94823296     4.78832430E-10   1.22452234E+14   1.88112816E+09   0.00000000E+00   3.29568697E+06   0.29609293      
  3                1.65958691E-08   1.62390136E-05   762.40397209     6.03277563E-10   1.54276698E+14   1.88112816E+09   0.00000000E+00   3.27513663E+06   0.29588853      
  4                2.13796209E-08   2.06871928E-05   769.46367769     7.61475824E-10   1.94732876E+14   1.88112816E+09   0.00000000E+00   3.25438293E+06   0.29568641      
  5                2.75422870E-08   2.63543330E-05   777.62297786     9.59899187E-10   2.45475856E+14   1.88112816E+09   0.00000000E+00   3.23342139E+06   0.29547453      
  6                3.54813389E-08   3.35743487E-05   784.87911932     1.21156720E-09   3.09835133E+14   1.88112816E+09   0.00000000E+00   3.21224989E+06   0.2952541       
  7                4.57088190E-08   4.27703092E-05   793.52601326     1.52659526E-09   3.90397530E+14   1.88112816E+09   0.00000000E+00   3.19086725E+06   0.29501501      
  8                5.88843655E-08   5.44769388E-05   801.58600854     1.92488710E-09   4.92253040E+14   1.88112816E+09   0.00000000E+00   3.16927155E+06   0.29475947      
  9                7.58577575E-08   6.93697967E-05   811.19925674     2.42206375E-09   6.19396457E+14   1.88112816E+09   0.00000000E+00   3.14746020E+06   0.29447915      
  10               9.77237221E-08   8.83003232E-05   820.41504415     3.04839594E-09   7.79568922E+14   1.88112816E+09   0.00000000E+00   3.12542919E+06   0.29417809      
  11               1.25892541E-07   1.12342089E-04   831.18164676     3.82815263E-09   9.78976780E+14   1.88112816E+09   0.00000000E+00   3.10317376E+06   0.29510806      
  12               1.62181010E-07   1.42846534E-04   841.55629268     4.80761000E-09   1.22945425E+15   1.88112816E+09   0.00000000E+00   3.08068819E+06   0.2948708       
  13               2.08929613E-07   1.81515313E-04   853.36314143     6.02451483E-09   1.54065440E+15   1.88112816E+09   0.00000000E+00   3.05796681E+06   0.29461361      
  14               2.69153480E-07   2.30488081E-04   864.69383671     7.54968441E-09   1.93068734E+15   1.88112816E+09   0.00000000E+00   3.03500377E+06   0.29434         
  15               3.46736850E-07   2.92455158E-04   877.30951364     9.44167679E-09   2.41452822E+15   1.88112816E+09   0.00000000E+00   3.01179394E+06   0.29404831      
  16               4.46683592E-07   3.70793525E-04   889.36842980     1.18084560E-08   3.01978673E+15   1.88112815E+09   0.00000000E+00   2.98833257E+06   0.29375445      
  17               5.75439937E-07   4.69741061E-04   902.60811795     1.47401522E-08   3.76951199E+15   1.88112815E+09   0.00000000E+00   2.96461569E+06   0.2933968       
  18               7.41310241E-07   5.94597808E-04   915.32573081     1.83988345E-08   4.70514999E+15   1.88112815E+09   0.00000000E+00   2.94064029E+06   0.29308578      
  19               9.54992586E-07   7.52006550E-04   929.26223281     2.29206016E-08   5.86150549E+15   1.88112815E+09   0.00000000E+00   2.91640096E+06   0.29269242      
  20               1.23026877E-06   9.50416133E-04   942.73701147     2.85539320E-08   7.30212195E+15   1.88112815E+09   0.00000000E+00   2.89187552E+06   0.29234262      
  21               1.58489319E-06   1.20042807E-03   957.61548270     3.55048478E-08   9.07968583E+15   1.88112815E+09   0.00000000E+00   2.86704511E+06   0.29190267      
  22               2.04173794E-06   1.51530324E-03   972.08268140     4.41508452E-08   1.12907343E+16   1.88112815E+09   0.00000000E+00   2.84189586E+06   0.29150611      
  23               2.63026799E-06   1.91160003E-03   988.03184934     5.47985102E-08   1.40136712E+16   1.88112815E+09   0.00000000E+00   2.81641778E+06   0.29101424      
  24               3.38844156E-06   2.40996457E-03   1003.53356901    6.80176183E-08   1.73942053E+16   1.88112815E+09   0.00000000E+00   2.79060397E+06   0.29056701      
  25               4.36515832E-06   3.03607527E-03   1020.54306879    8.42604658E-08   2.15480035E+16   1.88112815E+09   0.00000000E+00   2.76445055E+06   0.29002261      
  26               5.62341325E-06   3.82186227E-03   1037.00202503    1.04384997E-07   2.66944678E+16   1.88112815E+09   0.00000000E+00   2.73795495E+06   0.28952656      
  27               7.24435960E-06   4.80692475E-03   1054.94989327    1.29055981E-07   3.30036012E+16   1.88112814E+09   0.00000000E+00   2.71111660E+06   0.28893178      
  28               9.33254301E-06   6.04034427E-03   1072.20218991    1.59561328E-07   4.08047613E+16   1.88112815E+09   0.00000000E+00   2.68393607E+06   0.28839119      
  29               1.20226443E-05   7.58286300E-03   1090.92102162    1.96871352E-07   5.03460889E+16   1.88112814E+09   0.00000000E+00   2.65641437E+06   0.28775218      
  30               1.54881662E-05   9.50953617E-03   1108.86061313    2.42898591E-07   6.21166773E+16   1.88112814E+09   0.00000000E+00   2.62855288E+06   0.2871815       
  31               1.99526231E-05   1.19129366E-02   1128.25633978    2.99056778E-07   7.64780644E+16   1.88112812E+09   0.00000000E+00   2.60035368E+06   0.28557813      
  32               2.57039578E-05   1.49104134E-02   1146.78285261    3.68257058E-07   9.41747194E+16   1.88112813E+09   0.00000000E+00   2.57179070E+06   0.28484917      
  33               3.31131121E-05   1.86492661E-02   1166.91373986    4.52653186E-07   1.15757418E+17   1.88112811E+09   0.00000000E+00   2.54283193E+06   0.28409726      
  34               4.26579519E-05   2.33118265E-02   1186.19139443    5.56626776E-07   1.42346690E+17   1.88112811E+09   0.00000000E+00   2.51345817E+06   0.28364509      
  35               5.49540874E-05   2.91230473E-02   1207.27169775    6.83241743E-07   1.74726040E+17   1.88112808E+09   0.00000000E+00   2.48365941E+06   0.28322657      
  36               7.07945784E-05   3.63597390E-02   1227.65872233    8.38852730E-07   2.14520570E+17   1.88112809E+09   0.00000000E+00   2.45343137E+06   0.28284087      
  37               9.12010839E-05   4.53598569E-02   1250.02143242    1.02777284E-06   2.62833099E+17   1.88112805E+09   0.00000000E+00   2.42277951E+06   0.2822607       
  38               1.17489755E-04   5.65368996E-02   1271.72720038    1.25915995E-06   3.22005929E+17   1.88112803E+09   0.00000000E+00   2.39170974E+06   0.2815827       
  39               1.51356125E-04   7.03879158E-02   1295.81731347    1.53850541E-06   3.93441500E+17   1.88112791E+09   0.00000000E+00   2.36024009E+06   0.28065273      
  40               1.94984460E-04   8.75080252E-02   1319.58935552    1.87825227E-06   4.80324699E+17   1.88112788E+09   0.00000000E+00   2.32839224E+06   0.27962804      
  41               2.51188643E-04   1.08586384E-01   1346.27678573    2.28451152E-06   5.84207130E+17   1.88112766E+09   0.00000000E+00   2.29621386E+06   0.27858762      
  42               3.23593657E-04   1.34430906E-01   1372.94595765    2.77332080E-06   7.09204566E+17   1.88112751E+09   0.00000000E+00   2.26374463E+06   0.27777956      
  43               4.16869383E-04   1.65843737E-01   1402.97635310    3.34841711E-06   8.56198701E+17   1.88112758E+09   0.00000000E+00   2.23114653E+06   0.27683207      
  44               5.37031796E-04   2.03907911E-01   1433.40353727    4.02950628E-06   1.03036582E+18   1.88112787E+09   0.00000000E+00   2.19837694E+06   0.27569488      
  45               6.91830971E-04   2.48568844E-01   1467.65754448    4.79952446E-06   1.22672665E+18   1.88112592E+09   0.00000000E+00   2.16626007E+06   0.27428134      
  46               8.91250938E-04   3.00514536E-01   1502.11840438    5.66956415E-06   1.44906263E+18   1.88112546E+09   0.00000000E+00   2.13476975E+06   0.27287411      
  47               1.14815362E-03   3.61796151E-01   1540.75109988    6.65490165E-06   1.70081585E+18   1.88112591E+09   0.00000000E+00   2.10322070E+06   0.27120667      
  48               1.47910839E-03   4.31257409E-01   1579.28892196    7.74066440E-06   1.97788401E+18   1.88112926E+09   0.00000000E+00   2.07261584E+06   0.26957955      
  49               1.90546072E-03   5.04668091E-01   1620.52093177    8.83156878E-06   2.25567767E+18   1.88112440E+09   0.00000000E+00   2.04453800E+06   0.26785656      
  50               2.45470892E-03   5.72431852E-01   1657.92801097    9.80539887E-06   2.50082880E+18   1.88111795E+09   0.00000000E+00   2.02150756E+06   0.26625868      
  51               3.16227766E-03   6.31418956E-01   1693.55720337    1.05880514E-05   2.70049629E+18   1.88111758E+09   0.00000000E+00   2.00320058E+06   0.26451234      
  52               4.07380278E-03   7.01935414E-01   1725.56972225    1.15514157E-05   2.94639169E+18   1.88112228E+09   0.00000000E+00   1.98303712E+06   0.26291587      
  53               5.24807460E-03   7.62216954E-01   1759.42894245    1.23138956E-05   3.13785385E+18   1.88111729E+09   0.00000000E+00   1.96705105E+06   0.26142971      
  54               6.76082975E-03   8.08009606E-01   1778.49995227    1.29134686E-05   3.29070162E+18   1.88112537E+09   0.00000000E+00   1.95556748E+06   0.26038786      
  55               8.70963590E-03   8.63367725E-01   1805.25192001    1.35932808E-05   3.46404746E+18   1.88112942E+09   0.00000000E+00   1.94235458E+06   0.2590249       
  56               1.12201845E-02   9.29695584E-01   1830.74592737    1.44332480E-05   3.67822702E+18   1.88113571E+09   0.00000000E+00   1.92738009E+06   0.25758111      
  57               1.44543977E-02   1.00834708E+00   1864.85132917    1.53671336E-05   3.91644173E+18   1.88114644E+09   0.00000000E+00   1.91067960E+06   0.25565408      
  58               1.86208714E-02   1.10030074E+00   1899.02164112    1.64656883E-05   4.19669425E+18   1.88115460E+09   0.00000000E+00   1.89239930E+06   0.25343641      
  59               2.39883292E-02   1.20639696E+00   1941.65647200    1.76551393E-05   4.50032295E+18   1.88111360E+09   0.00000000E+00   1.87272153E+06   0.25076442      
  60               3.09029543E-02   1.32928117E+00   1979.39308710    1.90805313E-05   4.86419125E+18   1.88113716E+09   0.00000000E+00   1.85154931E+06   0.24827522      
  61               3.98107171E-02   1.47282923E+00   2024.16906907    2.06700439E-05   5.27025282E+18   1.88113664E+09   0.00000000E+00   1.82869157E+06   0.24485906      
  62               5.12861384E-02   1.63985750E+00   2067.06426158    2.25324691E-05   5.74616341E+18   1.88114556E+09   0.00000000E+00   1.80421690E+06   0.24145868      
  63               6.60693448E-02   1.83337965E+00   2118.62448257    2.45717459E-05   6.26793175E+18   1.88113796E+09   0.00000000E+00   1.77820861E+06   0.23706907      
  64               8.51138038E-02   2.05568424E+00   2176.42401918    2.68090882E-05   6.84130158E+18   1.87782340E+09   3.15647015E+06   1.75081844E+06   0.2319342       
  65               1.09647820E-01   2.31029579E+00   2235.34412809    2.93210504E-05   7.48598642E+18   1.86904218E+09   1.18632657E+07   1.72210048E+06   0.22635048      
  66               1.41253754E-01   2.60194074E+00   2295.67270133    3.21347913E-05   8.20943505E+18   1.85349349E+09   2.73952395E+07   1.69205462E+06   0.22023257      
  67               1.81970086E-01   2.93570332E+00   2356.46406517    3.52986311E-05   9.02354486E+18   1.82945000E+09   5.14499545E+07   1.66071511E+06   0.21383655      
  68               2.34422882E-01   3.31778094E+00   2418.15328666    3.88397766E-05   9.93778781E+18   1.79521745E+09   8.57104402E+07   1.62808305E+06   0.20743768      
  69               3.01995172E-01   3.75557373E+00   2480.01011707    4.28225197E-05   1.09685364E+19   1.74910124E+09   1.31866410E+08   1.59413574E+06   0.20093181      
  70               3.89045145E-01   4.25726748E+00   2542.41509578    4.72923621E-05   1.21285901E+19   1.68907010E+09   1.91940614E+08   1.55888084E+06   0.19471125      
  71               5.01187234E-01   4.83213217E+00   2604.79105484    5.23181074E-05   1.34366731E+19   1.61342161E+09   2.67618096E+08   1.52233336E+06   0.18856202      
  72               6.45654229E-01   5.49053839E+00   2667.38729615    5.79576479E-05   1.49092121E+19   1.52115853E+09   3.59884788E+08   1.48452160E+06   0.18281014      
  73               8.31763771E-01   6.24390283E+00   2729.79430349    6.42872452E-05   1.65673121E+19   1.41203823E+09   4.68982336E+08   1.44549128E+06   0.17712003      
  74               1.07151931E+00   7.10479776E+00   2792.02848946    7.13786893E-05   1.84313741E+19   1.28749629E+09   5.93490393E+08   1.40530120E+06   0.17202519      
  75               1.38038426E+00   8.08698811E+00   2854.04902759    7.93093054E-05   2.05234900E+19   1.15037547E+09   7.30577308E+08   1.36401880E+06   0.16731963      
  76               1.77827941E+00   9.20558764E+00   2915.75619751    8.81638364E-05   2.28678929E+19   1.00523563E+09   8.75689801E+08   1.32171463E+06   0.16311573      
  77               2.29086765E+00   1.04769376E+01   2977.22269447    9.80248402E-05   2.54887699E+19   8.57815584E+08   1.02310000E+09   1.27846647E+06   0.15926451      
  78               2.95120923E+00   1.19188592E+01   3038.26594633    1.08989887E-04   2.84141547E+19   7.15134559E+08   1.16579930E+09   1.23435046E+06   0.15582608      
  79               3.80189396E+00   1.35496800E+01   3099.01567137    1.21140533E-04   3.16687635E+19   5.84192589E+08   1.29681500E+09   1.18946724E+06   0.1526796       
  80               4.89778819E+00   1.53890919E+01   3159.19937806    1.34581084E-04   3.52826989E+19   4.70977353E+08   1.41015033E+09   1.14391000E+06   0.1499978       
  81               6.30957344E+00   1.74592711E+01   3219.17629464    1.49397911E-04   3.92832297E+19   3.78065661E+08   1.50320157E+09   1.09774014E+06   0.14764296      
  82               8.12830516E+00   1.97853342E+01   3278.65365542    1.65727304E-04   4.37092835E+19   3.04013146E+08   1.57742160E+09   1.05099175E+06   0.14558319      
  83               1.04712855E+01   2.23958852E+01   3338.05969137    1.83680089E-04   4.85959386E+19   2.45404716E+08   1.63621042E+09   1.00367462E+06   0.14378606      
  84               1.34896288E+01   2.53235845E+01   3397.12834258    2.03431669E-04   5.39931995E+19   1.98646576E+08   1.68312703E+09   9.55778549E+05   0.14227941      
  85               1.73780083E+01   2.86057002E+01   3456.37515019    2.25120762E-04   5.99456326E+19   1.61147601E+08   1.72077538E+09   9.07277575E+05   0.14095064      
  86               2.23872114E+01   3.22848778E+01   3515.46556410    2.48977695E-04   6.65184527E+19   1.31112722E+08   1.75094052E+09   8.58132959E+05   0.13986161      
  87               2.88403150E+01   3.64095863E+01   3575.00865174    2.75171972E-04   7.37674018E+19   1.07175640E+08   1.77496670E+09   8.08299143E+05   0.13895334      
  88               3.71535229E+01   4.10352412E+01   3634.62367822    3.03996882E-04   8.17755321E+19   8.78355302E+07   1.79436014E+09   7.57722568E+05   0.13823033      
  89               4.78630092E+01   4.62252612E+01   3694.96013565    3.35665921E-04   9.06140323E+19   7.21423495E+07   1.81008236E+09   7.06342599E+05   0.13762724      
  90               6.16595002E+01   5.20523528E+01   3755.57959427    3.70556526E-04   1.00389718E+20   5.92679106E+07   1.82295822E+09   6.54092909E+05   0.13719857      
  91               7.94328235E+01   5.85997431E+01   3817.21046772    4.08932088E-04   1.11192487E+20   4.87732144E+07   1.83340422E+09   6.00903098E+05   0.13688181      
  92               1.02329299E+02   6.59626715E+01   3879.34821488    4.51274201E-04   1.23158761E+20   4.01973492E+07   1.84189453E+09   5.46700810E+05   0.136702        
  93               1.31825674E+02   7.42497733E+01   3942.76781950    4.97907834E-04   1.36401695E+20   3.32512525E+07   1.84872095E+09   4.91414038E+05   0.13660935      
  94               1.69824365E+02   8.35859427E+01   4006.90465745    5.49445012E-04   1.51094994E+20   2.75241594E+07   1.85428470E+09   4.34966463E+05   0.13664461      
  95               2.18776162E+02   9.41150065E+01   4072.60690277    6.06293662E-04   1.67383338E+20   2.28150475E+07   1.85879798E+09   3.77276577E+05   0.13677391      
  96               2.81838293E+02   1.06002782E+02   4139.26835735    6.69235534E-04   1.85489581E+20   1.88882473E+07   1.86251036E+09   3.18258803E+05   0.13705526      
  97               3.63078055E+02   1.19440617E+02   4207.83137268    7.38778817E-04   2.05598314E+20   1.56509725E+07   1.86550252E+09   2.57822762E+05   0.13746891      
  98               4.67735141E+02   1.34649012E+02   4277.65831526    8.15912085E-04   2.27993738E+20   1.29727969E+07   1.86786576E+09   1.95876175E+05   0.13804373      
  99               6.02559586E+02   1.51881676E+02   4349.75666056    9.01265118E-04   2.52910150E+20   1.07883180E+07   1.86968293E+09   1.32325901E+05   0.13871979      
  100              7.76247117E+02   1.71432973E+02   4423.41594655    9.96101795E-04   2.80712930E+20   8.97477051E+06   1.87108224E+09   6.70714903E+04   0.13948179      
  101              1.00000000E+03   1.93646673E+02   4499.68434690    1.10125401E-03   3.11712221E+20   8.18333823E+06   1.87158492E+09   0.00000000E+00   0.14029416      
