# ATMO pressure-temperature profile
# Effective temperature = 2400.0K
# log(g) = 3.0cm/s^2
# M/H = 0.0
# Optical depth grid in band 17 (1.20-1.33microns)
# All parameters in cgs units
#
# Model Level      Optical Depth    Pressure         Temperature      Density          Number Density   Rad Flux         Conv Flux        Radial Extension Adiabatic Gradient
#                                   [Ba]             [K]              [g/cm^3]         [/cm^3]          [ergs/s/cm^2/sr] [ergs/s/cm^2/sr] [cm]             [K/Ba]          
  1                1.00000000E-05   1.00000000E-05   946.57969356     2.99216221E-10   7.65188891E+13   1.88108393E+09   0.00000000E+00   1.13532558E+09   0.29052245      
  2                1.20226443E-05   1.41609316E-05   1064.16780405    3.76897663E-10   9.63845780E+13   1.88108393E+09   0.00000000E+00   1.12293512E+09   0.28769333      
  3                1.44543977E-05   1.84967135E-05   1123.47402894    4.66313204E-10   1.19249721E+14   1.88108393E+09   0.00000000E+00   1.11259277E+09   0.28508051      
  4                1.73780083E-05   2.33254601E-05   1152.44648450    5.73267958E-10   1.46600446E+14   1.88108393E+09   0.00000000E+00   1.10325340E+09   0.2842982       
  5                2.08929613E-05   2.87675340E-05   1188.93742487    6.85403322E-10   1.75254621E+14   1.88108393E+09   0.00000000E+00   1.09457134E+09   0.28267567      
  6                2.51188643E-05   3.49543315E-05   1207.95393160    8.19742618E-10   2.09592852E+14   1.88108393E+09   0.00000000E+00   1.08631745E+09   0.28226244      
  7                3.01995172E-05   4.18416925E-05   1238.38005630    9.57554255E-10   2.44726576E+14   1.88108393E+09   0.00000000E+00   1.07854315E+09   0.28091201      
  8                3.63078055E-05   4.95057380E-05   1253.89442706    1.11921861E-09   2.85969955E+14   1.88108393E+09   0.00000000E+00   1.07113968E+09   0.28062615      
  9                4.36515832E-05   5.82204441E-05   1281.76441076    1.28774685E-09   3.28997914E+14   1.88108393E+09   0.00000000E+00   1.06388057E+09   0.27941575      
  10               5.24807460E-05   6.80391463E-05   1295.98039155    1.48848622E-09   3.80264921E+14   1.88108393E+09   0.00000000E+00   1.05678859E+09   0.27917313      
  11               6.30957344E-05   7.86621109E-05   1322.83890753    1.68831800E-09   4.30709525E+14   1.88108392E+09   0.00000000E+00   1.05008624E+09   0.27802187      
  12               7.58577575E-05   8.97905639E-05   1336.36409322    1.90822630E-09   4.86666823E+14   1.88108393E+09   0.00000000E+00   1.04388617E+09   0.27780168      
  13               9.12010839E-05   1.01334274E-04   1361.58074075    2.11544865E-09   5.39062103E+14   1.88108392E+09   0.00000000E+00   1.03814040E+09   0.27673115      
  14               1.09647820E-04   1.13449653E-04   1374.55821994    2.34596635E-09   5.97813712E+14   1.88108390E+09   0.00000000E+00   1.03270196E+09   0.27111168      
  15               1.31825674E-04   1.27578223E-04   1396.99823155    2.59563631E-09   6.61464485E+14   1.88108388E+09   0.00000000E+00   1.02697642E+09   0.26785237      
  16               1.58489319E-04   1.44054132E-04   1410.38477086    2.90295664E-09   7.39799355E+14   1.88108386E+09   0.00000000E+00   1.02097427E+09   0.26743519      
  17               1.90546072E-04   1.63265284E-04   1433.50053871    3.23684971E-09   8.24938982E+14   1.88108384E+09   0.00000000E+00   1.01470708E+09   0.26342065      
  18               2.29086765E-04   1.85652173E-04   1447.73705850    3.64436309E-09   9.28829893E+14   1.88108381E+09   0.00000000E+00   1.00818897E+09   0.26297367      
  19               2.75422870E-04   2.11722256E-04   1471.90654403    4.08753183E-09   1.04186660E+15   1.88108378E+09   0.00000000E+00   1.00143433E+09   0.25839646      
  20               3.31131121E-04   2.42041297E-04   1487.41150951    4.62392369E-09   1.17864813E+15   1.88108373E+09   0.00000000E+00   9.94460361E+08   0.25771356      
  21               3.98107171E-04   2.77242664E-04   1513.12024023    5.20578801E-09   1.32712693E+15   1.88108368E+09   0.00000000E+00   9.87285518E+08   0.25185267      
  22               4.78630092E-04   3.17987150E-04   1530.55372119    5.90235686E-09   1.50482789E+15   1.88108362E+09   0.00000000E+00   9.79935076E+08   0.25075891      
  23               5.75439937E-04   3.64917201E-04   1558.75449481    6.64968738E-09   1.69567437E+15   1.88108354E+09   0.00000000E+00   9.72444073E+08   0.24372437      
  24               6.91830971E-04   4.18428250E-04   1579.69637181    7.52261661E-09   1.91855042E+15   1.88108343E+09   0.00000000E+00   9.64878191E+08   0.2416262       
  25               8.31763771E-04   4.77559750E-04   1614.00556885    8.40037014E-09   2.14313005E+15   1.88108355E+09   0.00000000E+00   9.57439605E+08   0.23165449      
  26               1.00000000E-03   5.41469118E-04   1636.67136081    9.39036441E-09   2.39628268E+15   1.88108346E+09   0.00000000E+00   9.50243854E+08   0.22807279      
  27               1.20226443E-03   6.15216665E-04   1658.23540275    1.05278963E-08   2.68724800E+15   1.88108335E+09   0.00000000E+00   9.42826698E+08   0.22166351      
  28               1.44543977E-03   7.00359541E-04   1680.16062936    1.18250788E-08   3.01922921E+15   1.88108323E+09   0.00000000E+00   9.35195766E+08   0.21841482      
  29               1.73780083E-03   7.98692664E-04   1702.05046082    1.33076709E-08   3.39885865E+15   1.88108310E+09   0.00000000E+00   9.27356977E+08   0.21163328      
  30               2.08929613E-03   9.12254606E-04   1724.76494711    1.49940487E-08   3.83099854E+15   1.88108296E+09   0.00000000E+00   9.19317554E+08   0.20792925      
  31               2.51188643E-03   1.04335085E-03   1747.77042280    1.69159602E-08   4.32386203E+15   1.88108281E+09   0.00000000E+00   9.11085935E+08   0.20073129      
  32               3.01995172E-03   1.19458445E-03   1771.87494463    1.90949798E-08   4.88325754E+15   1.88108264E+09   0.00000000E+00   9.02671136E+08   0.19686055      
  33               3.63078055E-03   1.36887477E-03   1796.59941588    2.15675576E-08   5.51871929E+15   1.88108245E+09   0.00000000E+00   8.94082641E+08   0.18946007      
  34               4.36515832E-03   1.56946760E-03   1822.84231249    2.43552813E-08   6.23633008E+15   1.88108224E+09   0.00000000E+00   8.85330320E+08   0.18476016      
  35               5.24807460E-03   1.79990916E-03   1850.36296187    2.74933246E-08   7.04562460E+15   1.88108200E+09   0.00000000E+00   8.76424855E+08   0.17635891      
  36               6.30957344E-03   2.06390611E-03   1880.77489648    3.09831040E-08   7.94838612E+15   1.88108176E+09   0.00000000E+00   8.67379380E+08   0.17074832      
  37               7.58577575E-03   2.36333946E-03   1923.29939055    3.46259546E-08   8.90030833E+15   1.88013932E+09   9.31066342E+05   8.58236977E+08   0.15922614      
  38               9.12010839E-03   2.70089673E-03   1963.19226810    3.86836719E-08   9.96485498E+15   1.87727495E+09   3.78766355E+06   8.49013268E+08   0.14876313      
  39               1.09647820E-02   3.08279825E-03   2001.11184143    4.32142679E-08   1.11583398E+16   1.87250229E+09   8.55557122E+06   8.39672204E+08   0.14003127      
  40               1.31825674E-02   3.51600906E-03   2037.42634430    4.82846295E-08   1.24995364E+16   1.86568004E+09   1.53780544E+07   8.30187952E+08   0.13253437      
  41               1.58489319E-02   4.00856553E-03   2072.46439530    5.39697562E-08   1.40096650E+16   1.85661001E+09   2.44515467E+07   8.20538610E+08   0.12585302      
  42               1.90546072E-02   4.56979989E-03   2106.34131443    6.03610374E-08   1.57142724E+16   1.84508354E+09   3.59835170E+07   8.10705038E+08   0.12016921      
  43               2.29086765E-02   5.21027720E-03   2139.46219838    6.75475346E-08   1.76393286E+16   1.83086379E+09   5.02173188E+07   8.00674114E+08   0.11540268      
  44               2.75422870E-02   5.94194220E-03   2171.87099344    7.56394575E-08   1.98161937E+16   1.81368577E+09   6.74177586E+07   7.90437575E+08   0.11121231      
  45               3.31131121E-02   6.77834182E-03   2203.77566172    8.47510273E-08   2.22782936E+16   1.79329007E+09   8.78405753E+07   7.79990696E+08   0.10749258      
  46               3.98107171E-02   7.73481928E-03   2235.15178076    9.50198727E-08   2.50650740E+16   1.76943240E+09   1.11727175E+08   7.69331759E+08   0.10427895      
  47               4.78630092E-02   8.82867953E-03   2266.23044219    1.06582380E-07   2.82174344E+16   1.74186905E+09   1.39336857E+08   7.58461735E+08   0.10154076      
  48               5.75439937E-02   1.00793704E-02   2296.96682001    1.19604346E-07   3.17837051E+16   1.71035182E+09   1.70910296E+08   7.47383977E+08   0.099157152     
  49               6.91830971E-02   1.15014205E-02   2327.37742038    1.34192155E-07   3.57940223E+16   1.67460663E+09   2.06592606E+08   7.36158435E+08   0.097085453     
  50               8.31763771E-02   1.31177724E-02   2357.42571303    1.50509516E-07   4.03039782E+16   1.63460740E+09   2.46634037E+08   7.24784588E+08   0.095428689     
  51               1.00000000E-01   1.49629412E-02   2387.50886404    1.68832301E-07   4.53939335E+16   1.59039473E+09   2.90962838E+08   7.13208993E+08   0.093848454     
  52               1.20226443E-01   1.70672516E-02   2417.34259201    1.89421483E-07   5.11388817E+16   1.54189979E+09   3.39592599E+08   7.01441506E+08   0.092400594     
  53               1.44543977E-01   1.94640719E-02   2447.19968076    2.12492009E-07   5.76089728E+16   1.48913145E+09   3.92478957E+08   6.89494317E+08   0.091122363     
  54               1.73780083E-01   2.21901591E-02   2476.81321874    2.38347531E-07   6.48922747E+16   1.43216532E+09   4.49547680E+08   6.77380568E+08   0.09004027      
  55               2.08929613E-01   2.52783743E-02   2506.41823235    2.67157629E-07   7.30502050E+16   1.37097107E+09   5.10837399E+08   6.65141913E+08   0.089119106     
  56               2.51188643E-01   2.87746838E-02   2535.76335979    2.99298189E-07   8.21916458E+16   1.30586685E+09   5.76098172E+08   6.52777071E+08   0.088350524     
  57               3.01995172E-01   3.27298416E-02   2565.18808800    3.35058600E-07   9.24167152E+16   1.23720517E+09   6.44897565E+08   6.40286974E+08   0.087706492     
  58               3.63078055E-01   3.71996408E-02   2594.40625010    3.74884755E-07   1.03854807E+17   1.16540197E+09   7.16802898E+08   6.27674727E+08   0.087223851     
  59               4.36515832E-01   4.22451137E-02   2623.78375536    4.19089803E-07   1.16620335E+17   1.09086366E+09   7.91425782E+08   6.14945172E+08   0.086836923     
  60               5.24807460E-01   4.79328574E-02   2652.97809360    4.68201561E-07   1.30865598E+17   1.01405334E+09   8.68311570E+08   6.02104637E+08   0.086536032     
  61               6.30957344E-01   5.43354099E-02   2682.35404180    5.22561635E-07   1.46721138E+17   9.35490019E+08   9.46987572E+08   5.89160262E+08   0.086276143     
  62               7.58577575E-01   6.15316556E-02   2711.52874157    5.82794289E-07   1.64365335E+17   8.55804709E+08   1.02678407E+09   5.76119830E+08   0.086099136     
  63               9.12010839E-01   6.96071652E-02   2740.90317334    6.49255467E-07   1.83944198E+17   7.75666147E+08   1.10698313E+09   5.62991273E+08   0.085937871     
  64               1.09647820E+00   7.86548196E-02   2770.04230429    7.22691197E-07   2.05667078E+17   6.95929517E+08   1.18672153E+09   5.49782468E+08   0.085823726     
  65               1.31825674E+00   8.87754296E-02   2799.38170376    8.03471538E-07   2.29697624E+17   6.17615080E+08   1.26498822E+09   5.36500670E+08   0.085740556     
  66               1.58489319E+00   1.00078388E-01   2828.47029710    8.92475780E-07   2.56279884E+17   5.41976739E+08   1.34057519E+09   5.23152562E+08   0.085733392     
  67               1.90546072E+00   1.12682471E-01   2857.78883491    9.90074133E-07   2.85595963E+17   4.70404877E+08   1.41212380E+09   5.09743749E+08   0.085808426     
  68               2.29086765E+00   1.26716430E-01   2886.88420217    1.09728889E-06   3.17928459E+17   4.04294644E+08   1.47817572E+09   4.96279060E+08   0.085996519     
  69               2.75422870E+00   1.42319901E-01   2916.27257527    1.21447560E-06   3.53478789E+17   3.44800299E+08   1.53759860E+09   4.82762162E+08   0.086237913     
  70               3.31131121E+00   1.59644631E-01   2945.45493719    1.34285973E-06   3.92579641E+17   2.92711938E+08   1.58961424E+09   4.69195694E+08   0.086505175     
  71               3.98107171E+00   1.78856348E-01   2974.94523626    1.48282450E-06   4.35462962E+17   2.48301290E+08   1.63395086E+09   4.55580736E+08   0.086730759     
  72               4.78630092E+00   2.00136722E-01   3004.19491895    1.63588609E-06   4.82530216E+17   2.11284335E+08   1.67093557E+09   4.41917064E+08   0.08692514      
  73               5.75439937E+00   2.23683736E-01   3033.74045507    1.80245545E-06   5.34049883E+17   1.80894962E+08   1.70129069E+09   4.28203926E+08   0.087078585     
  74               6.91830971E+00   2.49708425E-01   3063.01260485    1.98432077E-06   5.90486878E+17   1.56008380E+08   1.72611220E+09   4.14442724E+08   0.087240746     
  75               8.31763771E+00   2.78443794E-01   3092.59414344    2.18185725E-06   6.52139421E+17   1.35526178E+08   1.74650662E+09   4.00632303E+08   0.08742393      
  76               1.00000000E+01   3.10147221E-01   3121.92271134    2.39722168E-06   7.19567578E+17   1.18407921E+08   1.76352366E+09   3.86769614E+08   0.087695364     
  77               1.20226443E+01   3.45102440E-01   3151.64490259    2.63074942E-06   7.93115778E+17   1.03958367E+08   1.77786469E+09   3.72850006E+08   0.088053652     
  78               1.44543977E+01   3.83621318E-01   3181.19010110    2.88500859E-06   8.73451811E+17   9.15345610E+07   1.79020846E+09   3.58868030E+08   0.0885279       
  79               1.73780083E+01   4.26046689E-01   3211.23891509    3.16027942E-06   9.60971296E+17   8.08564117E+07   1.80082943E+09   3.44817328E+08   0.089099942     
  80               2.08929613E+01   4.72754845E-01   3241.19816756    3.45961429E-06   1.05646775E+18   7.15036163E+07   1.81013273E+09   3.30691162E+08   0.089748029     
  81               2.51188643E+01   5.24160070E-01   3271.74784686    3.78329243E-06   1.16040595E+18   6.33409041E+07   1.81825302E+09   3.16482042E+08   0.090412794     
  82               3.01995172E+01   5.80719069E-01   3302.24495294    4.13504551E-06   1.27374544E+18   5.60490634E+07   1.82550956E+09   3.02182081E+08   0.091046188     
  83               3.63078055E+01   6.42938500E-01   3333.35264489    4.51527985E-06   1.39705663E+18   4.95928315E+07   1.83193603E+09   2.87782419E+08   0.091590297     
  84               4.36515832E+01   7.11381444E-01   3364.37996739    4.92865260E-06   1.53152233E+18   4.37678671E+07   1.83775914E+09   2.73273654E+08   0.092040944     
  85               5.24807460E+01   7.86676067E-01   3396.00340343    5.37574445E-06   1.67785204E+18   3.86106844E+07   1.84292502E+09   2.58645512E+08   0.092411762     
  86               6.30957344E+01   8.69521259E-01   3427.53054167    5.86221432E-06   1.83748884E+18   3.39915443E+07   1.84753237E+09   2.43887592E+08   0.092773719     
  87               7.58577575E+01   9.60694207E-01   3459.70027804    6.38863382E-06   2.01128000E+18   2.99504440E+07   1.85154270E+09   2.28989192E+08   0.093165051     
  88               9.12010839E+01   1.06105463E+00   3491.83262820    6.96167418E-06   2.20094995E+18   2.63534711E+07   1.85509523E+09   2.13940127E+08   0.093633626     
  89               1.09647820E+02   1.17155400E+00   3524.71179090    7.58181535E-06   2.40749027E+18   2.32238963E+07   1.85816744E+09   1.98730283E+08   0.094221201     
  90               1.31825674E+02   1.29324033E+00   3557.67190954    8.25675880E-06   2.63292922E+18   2.04414490E+07   1.86089215E+09   1.83350211E+08   0.094943311     
  91               1.58489319E+02   1.42727094E+00   3591.52115212    8.98684540E-06   2.87841781E+18   1.80163030E+07   1.86328608E+09   1.67790404E+08   0.095782031     
  92               1.90546072E+02   1.57492204E+00   3625.56748569    9.78114199E-06   3.14636358E+18   1.58419071E+07   1.86543612E+09   1.52041635E+08   0.096665818     
  93               2.29086765E+02   1.73761169E+00   3660.58439532    1.06402733E-05   3.43817631E+18   1.39340125E+07   1.86732585E+09   1.36093943E+08   0.097556919     
  94               2.75422870E+02   1.91691579E+00   3695.84176797    1.15752197E-05   3.75677777E+18   1.22227545E+07   1.86902207E+09   1.19937046E+08   0.098432158     
  95               3.31131121E+02   2.11459340E+00   3732.11398332    1.25869515E-05   4.10390987E+18   1.07220209E+07   1.87050728E+09   1.03559755E+08   0.09927195      
  96               3.98107171E+02   2.33260432E+00   3768.64470496    1.36887804E-05   4.48313400E+18   9.37467782E+06   1.87184873E+09   8.69507115E+07   0.10004363      
  97               4.78630092E+02   2.57314344E+00   3806.20152556    1.48823358E-05   4.89663866E+18   8.19324468E+06   1.87304172E+09   7.00977027E+07   0.1007411       
  98               5.75439937E+02   2.83866257E+00   3844.01001479    1.61837948E-05   5.34878449E+18   7.14268521E+06   1.87408776E+09   5.29885242E+07   0.10145531      
  99               6.91830971E+02   3.13190003E+00   3882.92194478    1.75947086E-05   5.84218183E+18   6.23500587E+06   1.87497403E+09   3.56106005E+07   0.10226311      
  100              8.31763771E+02   3.45589587E+00   3922.20550322    1.91336484E-05   6.38199035E+18   5.43488010E+06   1.87573995E+09   1.79519046E+07   0.10317261      
  101              1.00000000E+03   3.81403802E+00   3962.73626581    2.08023106E-05   6.97133076E+18   5.09212112E+06   1.87603744E+09   0.00000000E+00   0.10417903      
