# ATMO pressure-temperature profile
# Effective temperature = 1900.0K
# log(g) = 4.5cm/s^2
# M/H = 0.0
# Optical depth grid in band 17 (1.20-1.33microns)
# All parameters in cgs units
#
# Model Level      Optical Depth    Pressure         Temperature      Density          Number Density   Rad Flux         Conv Flux        Radial Extension Adiabatic Gradient
#                                   [Ba]             [K]              [g/cm^3]         [/cm^3]          [ergs/s/cm^2/sr] [ergs/s/cm^2/sr] [cm]             [K/Ba]          
  1                5.00000000E-06   1.00000000E-05   640.85385900     4.41957699E-10   1.13023001E+14   7.38906972E+08   0.00000000E+00   2.65788012E+07   0.29791811      
  2                6.05313423E-06   1.09927369E-04   719.92083356     4.32478673E-09   1.10597913E+15   7.38906972E+08   0.00000000E+00   2.42931289E+07   0.29694175      
  3                7.32808679E-06   2.21151129E-04   754.83727478     8.29809416E-09   2.12207956E+15   7.38906972E+08   0.00000000E+00   2.37060086E+07   0.29680786      
  4                8.87157859E-06   3.51883814E-04   774.29983741     1.28717029E-08   3.29166752E+15   7.38906972E+08   0.00000000E+00   2.33059927E+07   0.29640857      
  5                1.07401712E-05   5.06408085E-04   795.90739538     1.80215769E-08   4.60854604E+15   7.38906972E+08   0.00000000E+00   2.29851565E+07   0.2961335       
  6                1.30023396E-05   6.89800539E-04   809.28575783     2.41422020E-08   6.17372771E+15   7.38906972E+08   0.00000000E+00   2.27071233E+07   0.29579053      
  7                1.57409813E-05   9.07686498E-04   827.27751155     3.10769456E-08   7.94713328E+15   7.38906972E+08   0.00000000E+00   2.24555747E+07   0.2955502       
  8                1.90564546E-05   1.16683084E-03   838.34442060     3.94220952E-08   1.00811775E+16   7.38906972E+08   0.00000000E+00   2.22214470E+07   0.29522152      
  9                2.30702555E-05   1.47500202E-03   854.73284547     4.88782060E-08   1.24993682E+16   7.38906972E+08   0.00000000E+00   2.19994411E+07   0.29499322      
  10               2.79294706E-05   1.84155455E-03   864.64229042     6.03256212E-08   1.54267326E+16   7.38906972E+08   0.00000000E+00   2.17859756E+07   0.2946627       
  11               3.38121669E-05   2.27736201E-03   880.23996953     7.32796937E-08   1.87394494E+16   7.38906972E+08   0.00000000E+00   2.15786981E+07   0.29443698      
  12               4.09339169E-05   2.79541758E-03   889.49678946     8.90134552E-08   2.27629291E+16   7.38906972E+08   0.00000000E+00   2.13758567E+07   0.29409843      
  13               4.95556987E-05   3.41089823E-03   904.70674702     1.06785775E-07   2.73078037E+16   7.38906972E+08   0.00000000E+00   2.11762248E+07   0.29386867      
  14               5.99934592E-05   4.14186627E-03   913.62699029     1.28404531E-07   3.28362075E+16   7.38906972E+08   0.00000000E+00   2.09788228E+07   0.29351525      
  15               7.26296922E-05   5.00951665E-03   928.71077576     1.52780440E-07   3.90697992E+16   7.38906972E+08   0.00000000E+00   2.07829289E+07   0.29327645      
  16               8.79274551E-05   6.03958645E-03   937.47047355     1.82474755E-07   4.66632995E+16   7.38906972E+08   0.00000000E+00   2.05878406E+07   0.29290095      
  17               1.06447338E-04   7.26251766E-03   952.67636631     2.15920698E-07   5.52163443E+16   7.38906972E+08   0.00000000E+00   2.03930116E+07   0.2926612       
  18               1.28868005E-04   8.71444302E-03   961.49992580     2.56710500E-07   6.56472018E+16   7.38906972E+08   0.00000000E+00   2.01979933E+07   0.29225991      
  19               1.56011066E-04   1.04378233E-02   976.99655372     3.02600388E-07   7.73824987E+16   7.38906972E+08   0.00000000E+00   2.00024582E+07   0.29200545      
  20               1.88871184E-04   1.24828962E-02   986.04215480     3.58569417E-07   9.16950128E+16   7.38906972E+08   0.00000000E+00   1.98061279E+07   0.29197751      
  21               2.28652526E-04   1.49087717E-02   1002.09509828    4.21391345E-07   1.07760294E+17   7.38906972E+08   0.00000000E+00   1.96087770E+07   0.29172349      
  22               2.76812886E-04   1.77852461E-02   1011.60502058    4.97969056E-07   1.27342902E+17   7.38906972E+08   0.00000000E+00   1.94102056E+07   0.29121513      
  23               3.35117111E-04   2.11938827E-02   1028.35911015    5.83738687E-07   1.49276542E+17   7.38906972E+08   0.00000000E+00   1.92102792E+07   0.29082442      
  24               4.05701771E-04   2.52306979E-02   1038.54036537    6.88112330E-07   1.75967200E+17   7.38906973E+08   0.00000000E+00   1.90088604E+07   0.29022077      
  25               4.91153455E-04   3.00078438E-02   1056.41312105    8.04551199E-07   2.05743841E+17   7.38906973E+08   0.00000000E+00   1.88058295E+07   0.28982124      
  26               5.94603558E-04   3.56570220E-02   1067.64809919    9.45954382E-07   2.41903848E+17   7.38906971E+08   0.00000000E+00   1.86010562E+07   0.28917287      
  27               7.19843029E-04   4.23299433E-02   1086.86430288    1.10312511E-06   2.82096827E+17   7.38906973E+08   0.00000000E+00   1.83944856E+07   0.28873625      
  28               8.71461295E-04   5.02035494E-02   1099.42004924    1.29337239E-06   3.30747530E+17   7.38906971E+08   0.00000000E+00   1.81860367E+07   0.28809316      
  29               1.05501444E-03   5.94803153E-02   1120.45636277    1.50359264E-06   3.84506915E+17   7.38906981E+08   0.00000000E+00   1.79756735E+07   0.28770207      
  30               1.27722880E-03   7.03980628E-02   1134.94894220    1.75685708E-06   4.49272901E+17   7.38906960E+08   0.00000000E+00   1.77632514E+07   0.28707865      
  31               1.54624747E-03   8.32365230E-02   1158.22955815    2.03549639E-06   5.20529235E+17   7.38906991E+08   0.00000000E+00   1.75485625E+07   0.28662545      
  32               1.87192870E-03   9.83205645E-02   1175.10467812    2.36983879E-06   6.06029336E+17   7.38906952E+08   0.00000000E+00   1.73313808E+07   0.2858882       
  33               2.26620714E-03   1.16013495E-01   1201.34019374    2.73522135E-06   6.99468793E+17   7.38907003E+08   0.00000000E+00   1.71116230E+07   0.28532955      
  34               2.74353120E-03   1.36730085E-01   1221.47130547    3.17052011E-06   8.10786774E+17   7.38906937E+08   0.00000000E+00   1.68891605E+07   0.28448781      
  35               3.32139252E-03   1.60914797E-01   1251.43440420    3.64197295E-06   9.31351740E+17   7.38907037E+08   0.00000000E+00   1.66640958E+07   0.28380098      
  36               4.02096694E-03   1.89049984E-01   1275.60452389    4.19767647E-06   1.07346141E+18   7.38906903E+08   0.00000000E+00   1.64365457E+07   0.28271848      
  37               4.86789053E-03   2.21624733E-01   1310.03851761    4.79162617E-06   1.22534956E+18   7.38907094E+08   0.00000000E+00   1.62068592E+07   0.28175872      
  38               5.89319895E-03   2.59157317E-01   1338.95876208    5.48206852E-06   1.40191639E+18   7.38906847E+08   0.00000000E+00   1.59752825E+07   0.28033806      
  39               7.13446485E-03   3.02053793E-01   1378.28107871    6.20736681E-06   1.58734869E+18   7.38907119E+08   0.00000000E+00   1.57427421E+07   0.27923797      
  40               8.63717467E-03   3.50830442E-01   1412.36691262    7.03572300E-06   1.79918398E+18   7.38906844E+08   0.00000000E+00   1.55093404E+07   0.2780332       
  41               1.04563955E-02   4.05819088E-01   1457.09406056    7.88921995E-06   2.01730108E+18   7.38907602E+08   0.00000000E+00   1.52759373E+07   0.27701831      
  42               1.26587931E-02   4.65240076E-01   1496.93286999    8.80748538E-06   2.25113030E+18   7.38906347E+08   0.00000000E+00   1.50504996E+07   0.27537288      
  43               1.53250748E-02   5.28166105E-01   1549.98997614    9.65729311E-06   2.46812685E+18   7.38439279E+08   4.75675778E+05   1.48347339E+07   0.27382057      
  44               1.85529469E-02   5.92174627E-01   1599.15982640    1.04971769E-05   2.68215433E+18   7.36067690E+08   2.87014024E+06   1.46336938E+07   0.27184522      
  45               2.24606956E-02   6.53251427E-01   1642.19437251    1.12842516E-05   2.88125467E+18   7.32364080E+08   6.60733438E+06   1.44562223E+07   0.27013338      
  46               2.71915211E-02   7.07601795E-01   1677.97707104    1.19736899E-05   3.05441992E+18   7.28147238E+08   1.08651656E+07   1.43083540E+07   0.26798998      
  47               3.29187854E-02   7.55842549E-01   1707.67183083    1.25713544E-05   3.20592059E+18   7.24347027E+08   1.45035220E+07   1.41840090E+07   0.2658575       
  48               3.98523653E-02   7.99339960E-01   1733.25931880    1.30982971E-05   3.34036420E+18   7.21021605E+08   1.78846353E+07   1.40768163E+07   0.26337982      
  49               4.82463432E-02   8.48998502E-01   1760.76384785    1.36938781E-05   3.49246169E+18   7.17146698E+08   2.23995991E+07   1.39595634E+07   0.26131801      
  50               5.84083183E-02   8.91189075E-01   1783.24208004    1.42049720E-05   3.61980678E+18   7.13670682E+08   2.55181816E+07   1.38638926E+07   0.25928911      
  51               7.07106781E-02   9.25034117E-01   1800.37072428    1.46038680E-05   3.72153106E+18   7.10800816E+08   2.78800565E+07   1.37895837E+07   0.2576432       
  52               8.56042452E-02   9.64129547E-01   1819.76287656    1.50584967E-05   3.83748270E+18   7.07468486E+08   3.12233026E+07   1.37062153E+07   0.25602325      
  53               1.03634797E-01   1.00904712E+00   1840.89935899    1.55786168E-05   3.97015299E+18   7.03524998E+08   3.51793563E+07   1.36134766E+07   0.2544541       
  54               1.25463068E-01   1.06034466E+00   1864.35806412    1.61639749E-05   4.11949109E+18   6.98821319E+08   3.98970379E+07   1.35112513E+07   0.25309981      
  55               1.51888958E-01   1.11851286E+00   1889.53101641    1.68227341E-05   4.28758552E+18   6.93200237E+08   4.55322544E+07   1.33997028E+07   0.2516527       
  56               1.83880850E-01   1.18370756E+00   1916.73003595    1.75496191E-05   4.47310726E+18   6.86701534E+08   5.20423664E+07   1.32797167E+07   0.25031736      
  57               2.22611093E-01   1.25663799E+00   1945.43176199    1.83546526E-05   4.67864423E+18   6.79585539E+08   5.91706212E+07   1.31512169E+07   0.24875977      
  58               2.69498965E-01   1.33912440E+00   1976.48084292    1.92503982E-05   4.90743045E+18   6.71603323E+08   6.71673016E+07   1.30124486E+07   0.24729678      
  59               3.26262682E-01   1.43210563E+00   2009.36171416    2.02478181E-05   5.16229442E+18   6.62290633E+08   7.64948853E+07   1.28635168E+07   0.24553357      
  60               3.94982361E-01   1.53660840E+00   2044.40088556    2.13499018E-05   5.44406099E+18   6.51311352E+08   8.74887066E+07   1.27045736E+07   0.24373629      
  61               4.78176250E-01   1.65375420E+00   2081.11327375    2.25682148E-05   5.75573883E+18   6.38323868E+08   1.00489982E+08   1.25358088E+07   0.24149921      
  62               5.78893005E-01   1.78478890E+00   2119.70122852    2.39077935E-05   6.09871086E+18   6.23047940E+08   1.15779175E+08   1.23574190E+07   0.23915717      
  63               7.00823412E-01   1.93109633E+00   2159.75584069    2.53811649E-05   6.47627261E+18   6.05195298E+08   1.33645169E+08   1.21695983E+07   0.2363593       
  64               8.48435636E-01   2.09421991E+00   2201.36705151    2.69961851E-05   6.89057812E+18   5.84547712E+08   1.54305496E+08   1.19725318E+07   0.23342033      
  65               1.02713896E+00   2.27586922E+00   2244.21289972    2.87665886E-05   7.34529238E+18   5.60839222E+08   1.78025959E+08   1.17664015E+07   0.22986493      
  66               1.24348200E+00   2.47795471E+00   2288.20862645    3.07045304E-05   7.84374716E+18   5.33897152E+08   2.04979323E+08   1.15513740E+07   0.22613176      
  67               1.50539269E+00   2.70234569E+00   2333.13002511    3.28258086E-05   8.38934011E+18   5.03590096E+08   2.35295963E+08   1.13278554E+07   0.22197609      
  68               1.82246880E+00   2.95138115E+00   2378.79918962    3.51404586E-05   8.98655750E+18   4.70326300E+08   2.68566859E+08   1.10959797E+07   0.21753544      
  69               2.20632965E+00   3.22789166E+00   2425.13057226    3.76710501E-05   9.64072428E+18   4.34565144E+08   3.04332265E+08   1.08556485E+07   0.21287735      
  70               2.67104190E+00   3.53472231E+00   2471.95048466    4.04369510E-05   1.03571764E+19   3.96583751E+08   3.42315663E+08   1.06070421E+07   0.20798632      
  71               3.23363503E+00   3.87508667E+00   2519.11942447    4.34597613E-05   1.11418807E+19   3.56965860E+08   3.81932187E+08   1.03502873E+07   0.20296327      
  72               3.91472538E+00   4.25255886E+00   2566.51608674    4.67631939E-05   1.20014075E+19   3.16825109E+08   4.22065608E+08   1.00855001E+07   0.19793471      
  73               4.73927163E+00   4.67103798E+00   2614.05528876    5.03720742E-05   1.29426876E+19   2.77364801E+08   4.61514410E+08   9.81283159E+06   0.19281836      
  74               5.73748947E+00   5.13476791E+00   2661.56535780    5.43149797E-05   1.39736391E+19   2.39821059E+08   4.99044631E+08   9.53246968E+06   0.18779102      
  75               6.94595877E+00   5.64832328E+00   2709.04032168    5.86186304E-05   1.51018418E+19   2.05260851E+08   5.33591839E+08   9.24465128E+06   0.18293087      
  76               8.40896415E+00   6.21660477E+00   2756.34032579    6.33142107E-05   1.63360201E+19   1.74398507E+08   5.64444880E+08   8.94966338E+06   0.17811577      
  77               1.01801177E+01   6.84487392E+00   2803.39753224    6.84331696E-05   1.76850628E+19   1.47741324E+08   5.91098318E+08   8.64782737E+06   0.17354348      
  78               1.23243238E+01   7.53877842E+00   2850.18169090    7.40078337E-05   1.91581810E+19   1.25388635E+08   6.13453097E+08   8.33948242E+06   0.16938237      
  79               1.49201573E+01   8.30439968E+00   2896.73379855    8.00703324E-05   2.07646921E+19   1.06854478E+08   6.31996294E+08   8.02496213E+06   0.16546634      
  80               1.80627429E+01   9.14822781E+00   2942.94926137    8.66589066E-05   2.25154191E+19   9.14825804E+07   6.47383883E+08   7.70461499E+06   0.16184542      
  81               2.18672415E+01   1.00771955E+01   2988.91404461    9.38073975E-05   2.44203620E+19   7.86470809E+07   6.60242721E+08   7.37878980E+06   0.15857603      
  82               2.64730696E+01   1.10986918E+01   3034.57034158    1.01556195E-04   2.64911262E+19   6.77278244E+07   6.71194804E+08   7.04783086E+06   0.15552925      
  83               3.20490087E+01   1.22201518E+01   3079.93118462    1.09941100E-04   2.87383234E+19   5.83390121E+07   6.80624494E+08   6.71220186E+06   0.15273529      
  84               3.87993903E+01   1.34494544E+01   3124.95726558    1.19001807E-04   3.11735617E+19   5.02479062E+07   6.88760152E+08   6.37233351E+06   0.15025913      
  85               4.69715834E+01   1.47952144E+01   3169.73287193    1.28776352E-04   3.38083860E+19   4.33091206E+07   6.95745401E+08   6.02855295E+06   0.14809522      
  86               5.68650599E+01   1.62668839E+01   3214.25154556    1.39311136E-04   3.66564452E+19   3.73577767E+07   7.01743273E+08   5.68109065E+06   0.14614042      
  87               6.88423680E+01   1.78748797E+01   3258.56878916    1.50654337E-04   3.97321507E+19   3.22459422E+07   7.06902029E+08   5.33008883E+06   0.14439751      
  88               8.33424188E+01   1.96306799E+01   3302.70545306    1.62861130E-04   4.30518023E+19   2.78408828E+07   7.11353065E+08   4.97561553E+06   0.14287631      
  89               1.00896570E+02   2.15469279E+01   3346.74525501    1.75988093E-04   4.66324831E+19   2.40350501E+07   7.15202441E+08   4.61767638E+06   0.14154787      
  90               1.22148096E+02   2.36375723E+01   3390.70828643    1.90101592E-04   5.04938264E+19   2.07360539E+07   7.18540113E+08   4.25622213E+06   0.14037411      
  91               1.47875764E+02   2.59180363E+01   3434.67065425    2.05270584E-04   5.46566280E+19   1.78781203E+07   7.21433221E+08   3.89115346E+06   0.13935486      
  92               1.79022369E+02   2.84053604E+01   3478.66427553    2.21574065E-04   5.91443995E+19   1.54071868E+07   7.23934846E+08   3.52233131E+06   0.13848767      
  93               2.16729286E+02   3.11183335E+01   3522.77393687    2.39093608E-04   6.39819387E+19   1.32850123E+07   7.26081967E+08   3.14958840E+06   0.13775917      
  94               2.62378292E+02   3.40775978E+01   3567.02866861    2.57922420E-04   6.91971508E+19   1.14648638E+07   7.27919640E+08   2.77274361E+06   0.13713737      
  95               3.17642204E+02   3.73059811E+01   3611.49928593    2.78158404E-04   7.48198395E+19   9.89913992E+06   7.29496503E+08   2.39158856E+06   0.13662037      
  96               3.84546179E+02   4.08287320E+01   3656.21977439    2.99912418E-04   8.08834075E+19   8.54808919E+06   7.30852969E+08   2.00589196E+06   0.13620132      
  97               4.65541927E+02   4.46737854E+01   3701.26267652    3.23301155E-04   8.74235998E+19   7.38173222E+06   7.32018914E+08   1.61540304E+06   0.13588288      
  98               5.63597555E+02   4.88720337E+01   3746.66808855    3.48455690E-04   9.44802491E+19   6.37368020E+06   7.33020300E+08   1.21985621E+06   0.13564765      
  99               6.82306330E+02   5.34576844E+01   3792.50165240    3.75515789E-04   1.02096347E+20   5.50305393E+06   7.33876409E+08   8.18970742E+05   0.13548841      
  100              8.26018359E+02   5.84686380E+01   3838.80235863    4.04637841E-04   1.10319698E+20   4.75268719E+06   7.34604546E+08   4.12452241E+05   0.13539796      
  101              1.00000000E+03   6.39468270E+01   3885.63429081    4.35988338E-04   1.19201828E+20   4.40617129E+06   7.34954673E+08   0.00000000E+00   0.13537918      
