# ATMO pressure-temperature profile
# Effective temperature = 1500.0K
# log(g) = 4.5cm/s^2
# M/H = 0.0
# Optical depth grid in band 17 (1.20-1.33microns)
# All parameters in cgs units
#
# Model Level      Optical Depth    Pressure         Temperature      Density          Number Density   Rad Flux         Conv Flux        Radial Extension Adiabatic Gradient
#                                   [Ba]             [K]              [g/cm^3]         [/cm^3]          [ergs/s/cm^2/sr] [ergs/s/cm^2/sr] [cm]             [K/Ba]          
  1                5.00000000E-06   1.00000000E-05   556.14481013     5.09703564E-10   1.30238070E+14   2.87038560E+08   0.00000000E+00   2.30461030E+07   0.29783892      
  2                6.05313423E-06   4.35727176E-05   609.32412795     2.02670626E-09   5.17955098E+14   2.87038560E+08   0.00000000E+00   2.20013939E+07   0.29793534      
  3                7.32808679E-06   8.59927217E-05   631.85233990     3.85707397E-09   9.85761691E+14   2.87038560E+08   0.00000000E+00   2.15216067E+07   0.29786165      
  4                8.87157859E-06   1.38325430E-04   651.63701479     6.01561117E-09   1.53752478E+15   2.87038560E+08   0.00000000E+00   2.11780411E+07   0.29804227      
  5                1.07401712E-05   2.02235618E-04   663.98161108     8.63148895E-09   2.20611137E+15   2.87038560E+08   0.00000000E+00   2.08975704E+07   0.29791864      
  6                1.30023396E-05   2.79732889E-04   678.38809426     1.16850744E-08   2.98669691E+15   2.87038560E+08   0.00000000E+00   2.06535479E+07   0.29774902      
  7                1.57409813E-05   3.73457967E-04   687.75785844     1.53878020E-08   3.93307300E+15   2.87038560E+08   0.00000000E+00   2.04325176E+07   0.29764364      
  8                1.90564546E-05   4.86446740E-04   700.12682059     1.96886134E-08   5.03250740E+15   2.87038560E+08   0.00000000E+00   2.02272404E+07   0.29748071      
  9                2.30702555E-05   6.22480964E-04   708.17403232     2.49085440E-08   6.36666380E+15   2.87038560E+08   0.00000000E+00   2.00329879E+07   0.29738013      
  10               2.79294706E-05   7.85876610E-04   719.52809585     3.09497739E-08   7.91101933E+15   2.87038560E+08   0.00000000E+00   1.98468913E+07   0.29721461      
  11               3.38121669E-05   9.81954025E-04   726.87959542     3.82812482E-08   9.78485775E+15   2.87038560E+08   0.00000000E+00   1.96667530E+07   0.29711535      
  12               4.09339169E-05   1.21679478E-03   737.68048501     4.67408748E-08   1.19474407E+16   2.87038560E+08   0.00000000E+00   1.94911902E+07   0.29694503      
  13               4.95556987E-05   1.49782593E-03   744.62950838     5.70001557E-08   1.45695770E+16   2.87038560E+08   0.00000000E+00   1.93190158E+07   0.29684361      
  14               5.99934592E-05   1.83360653E-03   755.14783540     6.88051247E-08   1.75873338E+16   2.87038560E+08   0.00000000E+00   1.91494620E+07   0.2966639       
  15               7.26296922E-05   2.23459122E-03   761.88087299     8.31122807E-08   2.12440276E+16   2.87038560E+08   0.00000000E+00   1.89817805E+07   0.29655872      
  16               8.79274551E-05   2.71293387E-03   772.26971610     9.95444836E-08   2.54446243E+16   2.87038560E+08   0.00000000E+00   1.88154782E+07   0.29637009      
  17               1.06447338E-04   3.28353166E-03   778.94907809     1.19450192E-07   3.05321917E+16   2.87038560E+08   0.00000000E+00   1.86500047E+07   0.29625921      
  18               1.28868005E-04   3.96384717E-03   789.43335410     1.42281884E-07   3.63686574E+16   2.87038560E+08   0.00000000E+00   1.84849824E+07   0.29605629      
  19               1.56011066E-04   4.77520674E-03   796.23639489     1.69943996E-07   4.34386174E+16   2.87038560E+08   0.00000000E+00   1.83199817E+07   0.29593555      
  20               1.88871184E-04   5.74260577E-03   806.97037095     2.01651343E-07   5.15438974E+16   2.87038561E+08   0.00000000E+00   1.81547274E+07   0.29571503      
  21               2.28652526E-04   6.89698621E-03   814.11554258     2.40065502E-07   6.13619498E+16   2.87038560E+08   0.00000000E+00   1.79888131E+07   0.29558071      
  22               2.76812886E-04   8.27517808E-03   825.36747224     2.84106251E-07   7.26199321E+16   2.87038561E+08   0.00000000E+00   1.78219329E+07   0.2953368       
  23               3.35117111E-04   9.92236556E-03   833.05422096     3.37519091E-07   8.62715883E+16   2.87038560E+08   0.00000000E+00   1.76537222E+07   0.29518617      
  24               4.05701771E-04   1.18922082E-02   844.97620388     3.98813383E-07   1.01939820E+17   2.87038562E+08   0.00000000E+00   1.74839377E+07   0.29485804      
  25               4.91153455E-04   1.42516319E-02   853.46572320     4.73188339E-07   1.20949577E+17   2.87038560E+08   0.00000000E+00   1.73121847E+07   0.29470768      
  26               5.94603558E-04   1.70813491E-02   866.37137466     5.58692936E-07   1.42805165E+17   2.87038561E+08   0.00000000E+00   1.71381481E+07   0.29439919      
  27               7.19843029E-04   2.04810409E-02   875.90126649     6.62604217E-07   1.69364627E+17   2.87038560E+08   0.00000000E+00   1.69614525E+07   0.29419608      
  28               8.71461295E-04   2.45715690E-02   890.01252118     7.82317328E-07   1.99968971E+17   2.87038563E+08   0.00000000E+00   1.67817883E+07   0.29388582      
  29               1.05501444E-03   2.95052959E-02   900.97917908     9.27963956E-07   2.37198020E+17   2.87038559E+08   0.00000000E+00   1.65986757E+07   0.29366374      
  30               1.27722880E-03   3.54690020E-02   916.72329954     1.09633586E-06   2.80244139E+17   2.87038563E+08   0.00000000E+00   1.64117023E+07   0.29324156      
  31               1.54624747E-03   4.26958523E-02   929.44050596     1.30164979E-06   3.32728446E+17   2.87038558E+08   0.00000000E+00   1.62203956E+07   0.29284479      
  32               1.87192870E-03   5.14763053E-02   947.10706146     1.54001118E-06   3.93671643E+17   2.87038566E+08   0.00000000E+00   1.60242813E+07   0.29228829      
  33               2.26620714E-03   6.21818614E-02   962.03441381     1.83139984E-06   4.68165008E+17   2.87038559E+08   0.00000000E+00   1.58226973E+07   0.29189175      
  34               2.74353120E-03   7.52730934E-02   982.13754996     2.17150931E-06   5.55128198E+17   2.87038564E+08   0.00000000E+00   1.56151058E+07   0.29132972      
  35               3.32139252E-03   9.13317176E-02   999.72813995     2.58836892E-06   6.61706725E+17   2.87038560E+08   0.00000000E+00   1.54009080E+07   0.29080389      
  36               4.02096694E-03   1.11072900E-01   1022.75543421    3.07685010E-06   7.86614872E+17   2.87038567E+08   0.00000000E+00   1.51796960E+07   0.29001873      
  37               4.86789053E-03   1.35407636E-01   1043.65966576    3.67573915E-06   9.39745156E+17   2.87038551E+08   0.00000000E+00   1.49508719E+07   0.28935193      
  38               5.89319895E-03   1.65423688E-01   1070.18422097    4.37908564E-06   1.11960543E+18   2.87038571E+08   0.00000000E+00   1.47142845E+07   0.28852365      
  39               7.13446485E-03   2.02457015E-01   1094.90680543    5.23829134E-06   1.33931124E+18   2.87038553E+08   0.00000000E+00   1.44697686E+07   0.28779625      
  40               8.63717467E-03   2.48058811E-01   1125.68472013    6.24247553E-06   1.59611333E+18   2.87038569E+08   0.00000000E+00   1.42175886E+07   0.28678902      
  41               1.04563955E-02   3.04113377E-01   1155.04146103    7.45841895E-06   1.90705751E+18   2.87038531E+08   0.00000000E+00   1.39578059E+07   0.2858251       
  42               1.26587931E-02   3.72718874E-01   1190.65787713    8.86728135E-06   2.26735872E+18   2.87038577E+08   0.00000000E+00   1.36910327E+07   0.28456046      
  43               1.53250748E-02   4.56213970E-01   1225.16686149    1.05477703E-05   2.69711322E+18   2.87038521E+08   0.00000000E+00   1.34180178E+07   0.28330685      
  44               1.85529469E-02   5.56896008E-01   1265.94635328    1.24605284E-05   3.18628517E+18   2.87038526E+08   0.00000000E+00   1.31402992E+07   0.2817367       
  45               2.24606956E-02   6.76968740E-01   1305.03124499    1.46932895E-05   3.75727986E+18   2.87038434E+08   0.00000000E+00   1.28596800E+07   0.28023899      
  46               2.71915211E-02   8.18082444E-01   1349.38469886    1.71722386E-05   4.39123957E+18   2.87038560E+08   0.00000000E+00   1.25787505E+07   0.27865576      
  47               3.29187854E-02   9.81692167E-01   1391.30337422    1.99856163E-05   5.11068751E+18   2.87038381E+08   0.00000000E+00   1.22994718E+07   0.27732976      
  48               3.98523653E-02   1.16955581E+00   1437.98759619    2.30372887E-05   5.89103567E+18   2.87038249E+08   0.00000000E+00   1.20226058E+07   0.27563479      
  49               4.82463432E-02   1.38294365E+00   1482.02220651    2.64322373E-05   6.75889365E+18   2.87038305E+08   0.00000000E+00   1.17491478E+07   0.27396729      
  50               5.84083183E-02   1.62033480E+00   1530.67235935    2.99891364E-05   7.66740423E+18   2.87039709E+08   0.00000000E+00   1.14825087E+07   0.27208431      
  51               7.07106781E-02   1.87463402E+00   1576.46557157    3.36993572E-05   8.61306735E+18   2.87037769E+08   0.00000000E+00   1.12295399E+07   0.27037402      
  52               8.56042452E-02   2.13955896E+00   1626.60077010    3.72811666E-05   9.52728429E+18   2.87037901E+08   0.00000000E+00   1.09931799E+07   0.2684848       
  53               1.03634797E-01   2.39823652E+00   1676.98933283    4.05479315E-05   1.03582777E+19   2.84305988E+08   2.79134301E+06   1.07827815E+07   0.26652734      
  54               1.25463068E-01   2.63438696E+00   1719.34789366    4.34787399E-05   1.10979215E+19   2.78775114E+08   8.33768920E+06   1.06049164E+07   0.26486469      
  55               1.51888958E-01   2.84109023E+00   1753.97529617    4.59916566E-05   1.17324144E+19   2.72571581E+08   1.45102574E+07   1.04587398E+07   0.2634199       
  56               1.83880850E-01   3.02131554E+00   1782.55391784    4.81390088E-05   1.22766323E+19   2.66744778E+08   2.03090706E+07   1.03376109E+07   0.2620251       
  57               2.22611093E-01   3.16810787E+00   1804.77137214    4.98557352E-05   1.27146265E+19   2.61699053E+08   2.53501490E+07   1.02428569E+07   0.2607543       
  58               2.69498965E-01   3.33630880E+00   1829.25579714    5.17989680E-05   1.32104509E+19   2.56048724E+08   3.10045231E+07   1.01381898E+07   0.25956835      
  59               3.26262682E-01   3.52804902E+00   1855.89867910    5.39862690E-05   1.37691201E+19   2.49264758E+08   3.77670615E+07   1.00235300E+07   0.25875959      
  60               3.94982361E-01   3.67615419E+00   1875.75684385    5.57053087E-05   1.41952491E+19   2.42931031E+08   4.40392871E+07   9.93811525E+06   0.25816866      
  61               4.78176250E-01   3.78551387E+00   1889.96012896    5.69305014E-05   1.45076824E+19   2.37637097E+08   4.92964407E+07   9.87670561E+06   0.25748885      
  62               5.78893005E-01   3.91285014E+00   1906.14192964    5.83448322E-05   1.48683858E+19   2.32189958E+08   5.47479384E+07   9.80683758E+06   0.25670762      
  63               7.00823412E-01   4.06053014E+00   1924.29851464    5.99742159E-05   1.52839685E+19   2.26304119E+08   6.06402194E+07   9.72789009E+06   0.25583203      
  64               8.48435636E-01   4.23069505E+00   1944.61604135    6.18329092E-05   1.57580944E+19   2.19750164E+08   6.72040794E+07   9.63952553E+06   0.25482434      
  65               1.02713896E+00   4.42554237E+00   1966.98067646    6.39430099E-05   1.62964215E+19   2.12417008E+08   7.45471192E+07   9.54153406E+06   0.25368417      
  66               1.24348200E+00   4.64711059E+00   1991.49133035    6.63151490E-05   1.69017015E+19   2.04379908E+08   8.25824888E+07   9.43393588E+06   0.25236137      
  67               1.50539269E+00   4.89874315E+00   2018.06667913    6.89816911E-05   1.75822721E+19   1.95928233E+08   9.10322547E+07   9.31628533E+06   0.25087998      
  68               1.82246880E+00   5.18493865E+00   2046.97384714    7.19758788E-05   1.83466665E+19   1.87060353E+08   9.99062386E+07   9.18784456E+06   0.24921236      
  69               2.20632965E+00   5.50921880E+00   2078.01513885    7.53288563E-05   1.92029147E+19   1.77571509E+08   1.09401204E+08   9.04857800E+06   0.24736917      
  70               2.67104190E+00   5.87538810E+00   2111.27534049    7.90620352E-05   2.01566114E+19   1.67403431E+08   1.19575103E+08   8.89853418E+06   0.24529048      
  71               3.23363503E+00   6.28758289E+00   2146.49140192    8.32104006E-05   2.12168258E+19   1.56582605E+08   1.30401386E+08   8.73782868E+06   0.24304024      
  72               3.91472538E+00   6.75032231E+00   2183.73385358    8.77976541E-05   2.23898221E+19   1.45202933E+08   1.41785805E+08   8.56662719E+06   0.2405917       
  73               4.73927163E+00   7.26857801E+00   2222.69930732    9.28642530E-05   2.36861558E+19   1.33436337E+08   1.53556377E+08   8.38512582E+06   0.23791437      
  74               5.73748947E+00   7.84788693E+00   2263.43809560    9.84395490E-05   2.51136568E+19   1.21499827E+08   1.65496222E+08   8.19352250E+06   0.23492027      
  75               6.94595877E+00   8.49438653E+00   2305.59680815    1.04573334E-04   2.66854479E+19   1.09576801E+08   1.77421646E+08   7.99202243E+06   0.23173709      
  76               8.40896415E+00   9.21442867E+00   2349.23783836    1.11307427E-04   2.84097404E+19   9.79234283E+07   1.89076266E+08   7.78096494E+06   0.2283393       
  77               1.01801177E+01   1.00155325E+01   2393.98742575    1.18680371E-04   3.03024692E+19   8.69818949E+07   2.00018027E+08   7.56055036E+06   0.22482008      
  78               1.23243238E+01   1.09064036E+01   2439.99751706    1.26746594E-04   3.23756146E+19   7.69382062E+07   2.10060693E+08   7.33085047E+06   0.22113616      
  79               1.49201573E+01   1.18961840E+01   2486.85647703    1.35578452E-04   3.46483685E+19   6.77344864E+07   2.19261902E+08   7.09208076E+06   0.21737426      
  80               1.80627429E+01   1.29953018E+01   2534.74969510    1.45225405E-04   3.71344615E+19   5.94243345E+07   2.27568230E+08   6.84437733E+06   0.21349302      
  81               2.18672415E+01   1.42151062E+01   2583.24243230    1.55776375E-04   3.98575669E+19   5.20861547E+07   2.34901558E+08   6.58791541E+06   0.20955249      
  82               2.64730696E+01   1.55682269E+01   2632.55419326    1.67288920E-04   4.28339053E+19   4.56917018E+07   2.41290657E+08   6.32284734E+06   0.2056135       
  83               3.20490087E+01   1.70686597E+01   2682.27415677    1.79868244E-04   4.60916329E+19   4.00989893E+07   2.46878259E+08   6.04931331E+06   0.20167323      
  84               3.87993903E+01   1.87317463E+01   2732.63480321    1.93583209E-04   4.96503725E+19   3.51869672E+07   2.51786161E+08   5.76746861E+06   0.19771142      
  85               4.69715834E+01   2.05742272E+01   2783.19881091    2.08557445E-04   5.35433009E+19   3.08449473E+07   2.56125476E+08   5.47749218E+06   0.19387561      
  86               5.68650599E+01   2.26142488E+01   2834.28262376    2.24863231E-04   5.77916176E+19   2.70230760E+07   2.59946426E+08   5.17959289E+06   0.19023521      
  87               6.88423680E+01   2.48713551E+01   2885.47082673    2.42637014E-04   6.24321945E+19   2.36238657E+07   2.63346851E+08   4.87401544E+06   0.18674118      
  88               8.33424188E+01   2.73665719E+01   2937.06801818    2.61958555E-04   6.74888820E+19   2.06174507E+07   2.66356949E+08   4.56103240E+06   0.1833805       
  89               1.00896570E+02   3.01224581E+01   2988.64076631    2.82981539E-04   7.30033067E+19   1.79714301E+07   2.69010409E+08   4.24094144E+06   0.18024427      
  90               1.22148096E+02   3.31628339E+01   3040.55825417    3.05782366E-04   7.89994644E+19   1.56599608E+07   2.71334444E+08   3.91409050E+06   0.17719948      
  91               1.47875764E+02   3.65107257E+01   3092.26295964    3.30520613E-04   8.55204321E+19   1.36190458E+07   2.73392062E+08   3.58106793E+06   0.1743162       
  92               1.79022369E+02   4.01899100E+01   3144.15409079    3.57247463E-04   9.25846633E+19   1.18291443E+07   2.75201445E+08   3.24247679E+06   0.17164093      
  93               2.16729286E+02   4.42259874E+01   3195.71301149    3.86135591E-04   1.00238742E+20   1.02504244E+07   2.76801865E+08   2.89882960E+06   0.16922579      
  94               2.62378292E+02   4.86466301E+01   3247.42876010    4.17235373E-04   1.08502306E+20   8.86625024E+06   2.78209978E+08   2.55054614E+06   0.16693314      
  95               3.17642204E+02   5.34820902E+01   3298.72241218    4.50761918E-04   1.17432536E+20   7.64987624E+06   2.79452149E+08   2.19794692E+06   0.16484873      
  96               3.84546179E+02   5.87655001E+01   3350.19056740    4.86766528E-04   1.27051198E+20   6.59899916E+06   2.80529884E+08   1.84125921E+06   0.16297061      
  97               4.65541927E+02   6.45329439E+01   3401.26540299    5.25502462E-04   1.37425332E+20   5.69426116E+06   2.81461410E+08   1.48064467E+06   0.16129578      
  98               5.63597555E+02   7.08235244E+01   3452.58221264    5.67024277E-04   1.48579655E+20   4.92555656E+06   2.82256655E+08   1.11621798E+06   0.15974771      
  99               6.82306330E+02   7.76805314E+01   3503.52915065    6.11640595E-04   1.60595101E+20   4.26290365E+06   2.82945308E+08   7.48010130E+05   0.15837059      
  100              8.26018359E+02   8.51519774E+01   3554.81470262    6.59414923E-04   1.73501650E+20   3.69525840E+06   2.83537961E+08   3.75974403E+05   0.1571297       
  101              1.00000000E+03   9.32911582E+01   3605.80731445    7.10723439E-04   1.87397507E+20   3.41911270E+06   2.83834749E+08   0.00000000E+00   0.15601437      
