# ATMO pressure-temperature profile
# Effective temperature = 800.0K
# log(g) = 2.5cm/s^2
# M/H = 0.0
# Optical depth grid in band 17 (1.20-1.33microns)
# All parameters in cgs units
#
# Model Level      Optical Depth    Pressure         Temperature      Density          Number Density   Rad Flux         Conv Flux        Radial Extension Adiabatic Gradient
#                                   [Ba]             [K]              [g/cm^3]         [/cm^3]          [ergs/s/cm^2/sr] [ergs/s/cm^2/sr] [cm]             [K/Ba]          
  1                5.00000000E-04   1.00000000E-05   263.29165670     1.07686470E-09   2.75098829E+14   2.32297463E+07   0.00000000E+00   1.31599030E+09   0.30566735      
  2                5.78069831E-04   2.50263413E-05   308.41819361     2.30051800E-09   5.87737246E+14   2.32297461E+07   0.00000000E+00   1.28579547E+09   0.30088991      
  3                6.68329458E-04   4.83187904E-05   333.70578755     4.10498555E-09   1.04876493E+15   2.32297458E+07   0.00000000E+00   1.26182631E+09   0.29994984      
  4                7.72682194E-04   7.74708954E-05   345.37355720     6.35930199E-09   1.62470805E+15   2.32297454E+07   0.00000000E+00   1.24378325E+09   0.29908754      
  5                8.93328530E-04   1.11866622E-04   358.70263481     8.84145868E-09   2.25887290E+15   2.32297449E+07   0.00000000E+00   1.22927757E+09   0.30077351      
  6                1.03281254E-03   1.51946165E-04   365.32143874     1.17915988E-08   3.01259274E+15   2.32297444E+07   0.00000000E+00   1.21686463E+09   0.30046969      
  7                1.19407555E-03   1.98387297E-04   376.00587325     1.49580882E-08   3.82159861E+15   2.32297437E+07   0.00000000E+00   1.20580658E+09   0.30040311      
  8                1.38051810E-03   2.52147791E-04   381.29397068     1.87478849E-08   4.78984070E+15   2.32297430E+07   0.00000000E+00   1.19565464E+09   0.30019732      
  9                1.59607173E-03   3.14260382E-04   391.00294639     2.27858561E-08   5.82150726E+15   2.32297422E+07   0.00000000E+00   1.18615142E+09   0.30015829      
  10               1.84528182E-03   3.86011289E-04   395.72469585     2.76546809E-08   7.06533391E+15   2.32297413E+07   0.00000000E+00   1.17711259E+09   0.30000552      
  11               2.13340350E-03   4.68794531E-04   405.00134552     3.28161092E-08   8.38401237E+15   2.32297405E+07   0.00000000E+00   1.16842269E+09   0.29997795      
  12               2.46651240E-03   5.64249348E-04   409.49282748     3.90648295E-08   9.98046110E+15   2.32297397E+07   0.00000000E+00   1.15999204E+09   0.29985752      
  13               2.85163282E-03   6.74229641E-04   418.72869919     4.56494699E-08   1.16627496E+16   2.32297386E+07   0.00000000E+00   1.15175627E+09   0.2998353       
  14               3.29688580E-03   8.00963611E-04   423.46450577     5.36236575E-08   1.37000329E+16   2.32297373E+07   0.00000000E+00   1.14365605E+09   0.29973141      
  15               3.81166043E-03   9.46951741E-04   433.10172788     6.19867226E-08   1.58366665E+16   2.32297349E+07   0.00000000E+00   1.13564867E+09   0.29970915      
  16               4.40681180E-03   1.11527587E-03   438.27504412     7.21467132E-08   1.84315306E+16   2.32297321E+07   0.00000000E+00   1.12768904E+09   0.29962275      
  17               5.09488990E-03   1.30911606E-03   448.11565263     8.28276171E-08   2.11599130E+16   2.32297285E+07   0.00000000E+00   1.11975949E+09   0.2996038       
  18               5.89040429E-03   1.53201418E-03   453.67674367     9.57421952E-08   2.44591920E+16   2.32297264E+07   0.00000000E+00   1.11184419E+09   0.29952662      
  19               6.81013002E-03   1.78817022E-03   463.27421388     1.09435298E-07   2.79573865E+16   2.32297236E+07   0.00000000E+00   1.10393059E+09   0.29950896      
  20               7.87346142E-03   2.08237228E-03   469.05533195     1.25869635E-07   3.21558605E+16   2.32297209E+07   0.00000000E+00   1.09600363E+09   0.29943896      
  21               9.10282102E-03   2.42000848E-03   478.99580284     1.43242367E-07   3.65940957E+16   2.32297176E+07   0.00000000E+00   1.08805206E+09   0.29942044      
  22               1.05241324E-02   2.80725372E-03   485.25723433     1.64019665E-07   4.19020709E+16   2.32297143E+07   0.00000000E+00   1.08006288E+09   0.29935206      
  23               1.21673669E-02   3.25103605E-03   495.87050977     1.85882901E-07   4.74875041E+16   2.32297101E+07   0.00000000E+00   1.07202572E+09   0.29933112      
  24               1.40671754E-02   3.75920757E-03   502.96690418     2.11905762E-07   5.41355729E+16   2.32297060E+07   0.00000000E+00   1.06392882E+09   0.29925905      
  25               1.62636194E-02   4.34049482E-03   514.54579752     2.39166727E-07   6.10999769E+16   2.32297003E+07   0.00000000E+00   1.05576357E+09   0.29923238      
  26               1.88030155E-02   5.00489621E-03   522.72987501     2.71458354E-07   6.93495414E+16   2.32296948E+07   0.00000000E+00   1.04751785E+09   0.2991535       
  27               2.17389119E-02   5.76359054E-03   535.45184847     3.05181266E-07   7.79647943E+16   2.32296879E+07   0.00000000E+00   1.03918226E+09   0.29911794      
  28               2.51332183E-02   6.62903261E-03   544.91084500     3.44913161E-07   8.81151416E+16   2.32296810E+07   0.00000000E+00   1.03074689E+09   0.29902576      
  29               2.90575105E-02   7.61496239E-03   558.93441763     3.86270661E-07   9.86808199E+16   2.32296723E+07   0.00000000E+00   1.02220518E+09   0.29897842      
  30               3.35945403E-02   8.73645831E-03   569.80815608     4.34701817E-07   1.11053586E+17   2.32296639E+07   0.00000000E+00   1.01355039E+09   0.29886584      
  31               3.88399805E-02   1.00099616E-02   585.33886823     4.84852395E-07   1.23865650E+17   2.32296530E+07   0.00000000E+00   1.00477837E+09   0.29879994      
  32               4.49044419E-02   1.14530743E-02   598.00276081     5.43004305E-07   1.38721805E+17   2.32296432E+07   0.00000000E+00   9.95884440E+08   0.29867216      
  33               5.19158062E-02   1.30846082E-02   615.51656404     6.02705580E-07   1.53973796E+17   2.32296309E+07   0.00000000E+00   9.86865783E+08   0.29859055      
  34               6.00219227E-02   1.49243960E-02   630.39751610     6.71222308E-07   1.71477882E+17   2.32296197E+07   0.00000000E+00   9.77718714E+08   0.29839739      
  35               6.93937253E-02   1.69957976E-02   650.12467849     7.41189297E-07   1.89352366E+17   2.32296046E+07   0.00000000E+00   9.68431902E+08   0.298245        
  36               8.02288381E-02   1.93237169E-02   667.41076920     8.20883505E-07   2.09712007E+17   2.32295905E+07   0.00000000E+00   9.58994279E+08   0.2979908       
  37               9.27557418E-02   2.19343151E-02   689.70571273     9.01664756E-07   2.30348874E+17   2.32295705E+07   0.00000000E+00   9.49398571E+08   0.29778167      
  38               1.07238592E-01   2.48535045E-02   709.98384769     9.92488909E-07   2.53550813E+17   2.32295495E+07   0.00000000E+00   9.39640198E+08   0.29741875      
  39               1.23982789E-01   2.81084537E-02   735.49606502     1.08353993E-06   2.76810424E+17   2.32295200E+07   0.00000000E+00   9.29714520E+08   0.29710283      
  40               1.43341420E-01   3.17269556E-02   759.41365962     1.18450352E-06   3.02604816E+17   2.32297198E+07   1.20747215E+02   9.19614099E+08   0.29660414      
  41               1.65722701E-01   3.57515218E-02   789.88330646     1.28325078E-06   3.27836600E+17   2.31505452E+07   7.88776804E+04   9.09291231E+08   0.29616631      
  42               1.91598587E-01   4.02650841E-02   814.95431735     1.40076219E-06   3.57866615E+17   2.30667157E+07   1.62654016E+05   8.98645193E+08   0.29554311      
  43               2.21514726E-01   4.54388619E-02   847.89297945     1.51923758E-06   3.88161311E+17   2.30083528E+07   2.20920351E+05   8.87429255E+08   0.29491398      
  44               2.56101960E-01   5.15491841E-02   876.55305125     1.66703174E-06   4.25960599E+17   2.30602244E+07   1.68976234E+05   8.75286913E+08   0.29397689      
  45               2.96089634E-01   5.92393424E-02   916.65161748     1.83160498E-06   4.68092582E+17   2.32290936E+07   0.00000000E+00   8.61367998E+08   0.29306386      
  46               3.42320969E-01   6.95517623E-02   955.85744415     2.06186255E-06   5.27036692E+17   2.32288254E+07   0.00000000E+00   8.44585523E+08   0.2918615       
  47               3.95770849E-01   8.38004795E-02   999.13161345     2.37628283E-06   6.07504700E+17   2.32284815E+07   0.00000000E+00   8.24227823E+08   0.29074964      
  48               4.57566375E-01   1.03130444E-01   1040.00278486    2.80920790E-06   7.18254287E+17   2.32281205E+07   0.00000000E+00   8.00568402E+08   0.2892581       
  49               5.29010634E-01   1.28135196E-01   1082.10927391    3.35428280E-06   8.57675805E+17   2.32277721E+07   0.00000000E+00   7.74808808E+08   0.28804889      
  50               6.11610175E-01   1.58931683E-01   1120.06632692    4.01932496E-06   1.02776206E+18   2.32275041E+07   0.00000000E+00   7.48285482E+08   0.2867116       
  51               7.07106781E-01   1.95413510E-01   1158.73324269    4.77689698E-06   1.22150981E+18   2.32272981E+07   0.00000000E+00   7.21956791E+08   0.28566566      
  52               8.17514195E-01   2.37677279E-01   1193.89676079    5.63882702E-06   1.44193849E+18   2.32271812E+07   0.00000000E+00   6.96205330E+08   0.28427672      
  53               9.45160584E-01   2.85885771E-01   1230.50521679    6.58068865E-06   1.68280937E+18   2.32271200E+07   0.00000000E+00   6.71179164E+08   0.28309425      
  54               1.09273764E+00   3.40289679E-01   1264.27714601    7.62368966E-06   1.94954080E+18   2.32271562E+07   0.00000000E+00   6.46890018E+08   0.28161119      
  55               1.26335732E+00   4.01133930E-01   1300.19893925    8.73846835E-06   2.23462900E+18   2.32272795E+07   0.00000000E+00   6.23316753E+08   0.28036437      
  56               1.46061751E+00   4.68715030E-01   1333.81598361    9.95329532E-06   2.54529897E+18   2.32277463E+07   0.00000000E+00   6.00401511E+08   0.27893689      
  57               1.68867783E+00   5.43307227E-01   1369.98024129    1.12328096E-05   2.87248003E+18   2.32281226E+07   0.00000000E+00   5.78093185E+08   0.27795536      
  58               1.95234742E+00   6.25237648E-01   1404.08041349    1.26127445E-05   3.22536582E+18   2.32281120E+07   0.00000000E+00   5.56326287E+08   0.27666222      
  59               2.25718628E+00   7.14522695E-01   1441.20459898    1.40436101E-05   3.59100680E+18   2.32282401E+07   0.00000000E+00   5.35111398E+08   0.27546713      
  60               2.60962258E+00   8.11452475E-01   1476.74664374    1.55647626E-05   3.97999876E+18   2.32287677E+07   0.00000000E+00   5.14379096E+08   0.27389043      
  61               3.01708817E+00   9.13253949E-01   1515.76544526    1.70742088E-05   4.36400657E+18   2.32295847E+07   0.00000000E+00   4.94630102E+08   0.27257071      
  62               3.48817529E+00   1.01883577E+00   1553.57869861    1.85848111E-05   4.75003451E+18   2.32308540E+07   0.00000000E+00   4.75887041E+08   0.27084888      
  63               4.03281780E+00   1.12871382E+00   1596.50361091    2.00378553E-05   5.12082312E+18   2.27966902E+07   4.35784328E+05   4.57881282E+08   0.26933388      
  64               4.66250061E+00   1.23614208E+00   1636.62035588    2.14124773E-05   5.47074260E+18   2.07704341E+07   2.46376700E+06   4.41480412E+08   0.26771915      
  65               5.39050188E+00   1.33492556E+00   1669.86047245    2.26757373E-05   5.79032183E+18   1.81862666E+07   5.04885090E+06   4.27303315E+08   0.266558        
  66               6.23217301E+00   1.41821844E+00   1697.67920414    2.37204160E-05   6.05080754E+18   1.57504704E+07   7.48441329E+06   4.15945538E+08   0.26512035      
  67               7.20526240E+00   1.50230726E+00   1722.98807611    2.47571454E-05   6.31542138E+18   1.39149222E+07   9.32066973E+06   4.04972499E+08   0.26417781      
  68               8.33028963E+00   1.57913213E+00   1746.57476918    2.56786401E-05   6.54873065E+18   1.25559001E+07   1.06823719E+07   3.95336831E+08   0.26288993      
  69               9.63097823E+00   1.64450922E+00   1764.44772457    2.64705515E-05   6.75077068E+18   1.16243572E+07   1.16173410E+07   3.87407106E+08   0.26207702      
  70               1.11347559E+01   1.71683066E+00   1785.26931623    2.73119171E-05   6.96545611E+18   1.09137439E+07   1.23318369E+07   3.78901414E+08   0.26090808      
  71               1.28733329E+01   1.79661204E+00   1805.64852932    2.82569697E-05   7.20687398E+18   1.00129568E+07   1.32334273E+07   3.69819805E+08   0.26038614      
  72               1.48833708E+01   1.85820145E+00   1822.43804108    2.89817034E-05   7.38526125E+18   8.95875984E+06   1.42767186E+07   3.63013142E+08   0.25943818      
  73               1.72072553E+01   1.90310576E+00   1832.82915736    2.95134574E-05   7.52084742E+18   8.33962557E+06   1.48854800E+07   3.58157842E+08   0.25903605      
  74               1.98939903E+01   1.95345202E+00   1846.19230969    3.00744982E-05   7.66393214E+18   7.97450595E+06   1.52502173E+07   3.52813946E+08   0.25808924      
  75               2.30002312E+01   2.00973982E+00   1858.80267757    3.07307021E-05   7.83127343E+18   7.62189951E+06   1.56026782E+07   3.46958919E+08   0.25768555      
  76               2.65914795E+01   2.07246597E+00   1874.54595811    3.14230479E-05   8.00787259E+18   7.30688399E+06   1.59176891E+07   3.40575720E+08   0.25657742      
  77               3.07434641E+01   2.14214102E+00   1889.48401117    3.22220035E-05   8.21165466E+18   6.96753949E+06   1.62570587E+07   3.33651402E+08   0.25604142      
  78               3.55437382E+01   2.21938840E+00   1907.71257188    3.30640195E-05   8.42648031E+18   6.64231477E+06   1.65823445E+07   3.26167470E+08   0.25475393      
  79               4.10935254E+01   2.30457747E+00   1924.99957633    3.40238390E-05   8.67134594E+18   6.22836621E+06   1.69960631E+07   3.18135640E+08   0.25408734      
  80               4.75098546E+01   2.39780122E+00   1945.56564427    3.50246344E-05   8.92674498E+18   5.83504809E+06   1.73883344E+07   3.09595825E+08   0.25258028      
  81               5.49280272E+01   2.49964456E+00   1964.91685054    3.61512031E-05   9.21424851E+18   5.48881529E+06   1.77337966E+07   3.00545073E+08   0.25174621      
  82               6.35044707E+01   2.61180920E+00   1987.89556282    3.73347160E-05   9.51642266E+18   5.22802196E+06   1.79945658E+07   2.90890379E+08   0.24992679      
  83               7.34200373E+01   2.73508048E+00   2009.62521486    3.86719030E-05   9.85781989E+18   4.93085819E+06   1.82917191E+07   2.80631307E+08   0.24822915      
  84               8.48838171E+01   2.87029354E+00   2035.01686025    4.00743349E-05   1.02160766E+19   4.68008736E+06   1.85424733E+07   2.69769846E+08   0.24678851      
  85               9.81375475E+01   3.01832889E+00   2059.10058135    4.16450323E-05   1.06173184E+19   4.38804398E+06   1.88344553E+07   2.58310729E+08   0.24481376      
  86               1.13460711E+02   3.18014223E+00   2086.73836326    4.32920905E-05   1.10383557E+19   4.14115720E+06   1.90812886E+07   2.46259560E+08   0.24315036      
  87               1.31176428E+02   3.35674490E+00   2113.00344579    4.51234101E-05   1.15065193E+19   3.85988093E+06   1.93624785E+07   2.33624052E+08   0.24085406      
  88               1.51658271E+02   3.54924922E+00   2142.66925974    4.70441552E-05   1.19979541E+19   3.62295914E+06   1.95992895E+07   2.20411471E+08   0.23899921      
  89               1.75338142E+02   3.75884183E+00   2170.92296779    4.91667567E-05   1.25410956E+19   3.35702151E+06   1.98650720E+07   2.06630231E+08   0.23620713      
  90               2.02715380E+02   3.98683785E+00   2202.33067784    5.13959826E-05   1.31120889E+19   3.13540389E+06   2.00865501E+07   1.92287621E+08   0.23424943      
  91               2.34367291E+02   4.23461948E+00   2232.38979276    5.38448874E-05   1.37394770E+19   2.88891303E+06   2.03329138E+07   1.77392860E+08   0.23111105      
  92               2.70961321E+02   4.50373016E+00   2265.26591809    5.64222753E-05   1.44005477E+19   2.68018364E+06   2.05415271E+07   1.61953295E+08   0.22881773      
  93               3.13269130E+02   4.79579149E+00   2296.87539210    5.92394281E-05   1.51233742E+19   2.44938896E+06   2.07722150E+07   1.45978145E+08   0.22538335      
  94               3.62182865E+02   5.11235719E+00   2330.91804348    6.22149215E-05   1.58862000E+19   2.24891250E+06   2.09726012E+07   1.29487948E+08   0.22291273      
  95               4.18733975E+02   5.45532383E+00   2363.80900941    6.54440012E-05   1.67160627E+19   2.04088681E+06   2.11805668E+07   1.12490972E+08   0.21904099      
  96               4.84114957E+02   5.82706274E+00   2398.69731280    6.88607787E-05   1.75954381E+19   1.87138651E+06   2.13500162E+07   9.49796238E+07   0.21665818      
  97               5.59704502E+02   6.22975460E+00   2432.78349832    7.25588735E-05   1.85478390E+19   1.69224309E+06   2.15291467E+07   7.69642175E+07   0.21251851      
  98               6.47096573E+02   6.66586291E+00   2468.24672058    7.64874744E-05   1.95611169E+19   1.53912959E+06   2.16822316E+07   5.84520720E+07   0.20977721      
  99               7.48134013E+02   7.13800106E+00   2503.24337111    8.07200238E-05   2.06537717E+19   1.38603574E+06   2.18353133E+07   3.94506478E+07   0.20605195      
  100              8.64947405E+02   7.64909815E+00   2539.22701950    8.52265509E-05   2.18189849E+19   1.25248994E+06   2.19688778E+07   1.99643869E+07   0.20282746      
  101              1.00000000E+03   8.20224203E+00   2574.81161064    9.00732523E-05   2.30734726E+19   1.17663678E+06   2.20446801E+07   0.00000000E+00   0.19931423      
