# ATMO pressure-temperature profile
# Effective temperature = 3000.0K
# log(g) = 2.5cm/s^2
# M/H = 0.0
# Optical depth grid in band 17 (1.20-1.33microns)
# All parameters in cgs units
#
# Model Level      Optical Depth    Pressure         Temperature      Density          Number Density   Rad Flux         Conv Flux        Radial Extension Adiabatic Gradient
#                                   [Ba]             [K]              [g/cm^3]         [/cm^3]          [ergs/s/cm^2/sr] [ergs/s/cm^2/sr] [cm]             [K/Ba]          
  1                1.00000000E-04   1.00000000E-05   1513.00180893    1.87335081E-10   4.78725314E+13   4.59244819E+09   0.00000000E+00   5.85623736E+09   0.27112915      
  2                1.17489755E-04   1.19691625E-05   1884.47448196    1.65419056E-10   4.60043969E+13   4.59244785E+09   0.00000000E+00   5.81986685E+09   0.2779437       
  3                1.38038426E-04   1.39012485E-05   1756.99130397    2.18343430E-10   5.73073116E+13   4.59244767E+09   0.00000000E+00   5.78747108E+09   0.27382332      
  4                1.62181010E-04   1.60390136E-05   1971.00032615    2.01663623E-10   5.89409049E+13   4.59244750E+09   0.00000000E+00   5.75457038E+09   0.28619778      
  5                1.90546072E-04   1.84340685E-05   1835.36583160    2.71800298E-10   7.27485587E+13   4.59244732E+09   0.00000000E+00   5.72182281E+09   0.27762343      
  6                2.23872114E-04   2.11565402E-05   2024.80667401    2.51088523E-10   7.56810109E+13   4.59244713E+09   0.00000000E+00   5.68818702E+09   0.29172961      
  7                2.63026799E-04   2.42536288E-05   1891.77787058    3.41160984E-10   9.28608011E+13   4.59244693E+09   0.00000000E+00   5.65425550E+09   0.28095037      
  8                3.09029543E-04   2.78056842E-05   2068.37600545    3.15838177E-10   9.73710681E+13   4.59244672E+09   0.00000000E+00   5.61935020E+09   0.29594361      
  9                3.63078055E-04   3.18694955E-05   1939.80106838    4.30526340E-10   1.18999143E+14   4.59244650E+09   0.00000000E+00   5.58399272E+09   0.28396478      
  10               4.26579519E-04   3.65502783E-05   2107.45893790    4.00201022E-10   1.25619600E+14   4.59244627E+09   0.00000000E+00   5.54764521E+09   0.29939847      
  11               5.01187234E-04   4.19208149E-05   1984.07114609    5.45608044E-10   1.53037659E+14   4.59244602E+09   0.00000000E+00   5.51077522E+09   0.28681779      
  12               5.88843655E-04   4.81239729E-05   2144.54487691    5.09963554E-10   1.62536976E+14   4.59244576E+09   0.00000000E+00   5.47290428E+09   0.30242817      
  13               6.91830971E-04   5.52549091E-05   2026.82761356    6.93823500E-10   1.97460347E+14   4.59244548E+09   0.00000000E+00   5.43446598E+09   0.28965604      
  14               8.12830516E-04   6.35069538E-05   2181.04757332    6.52675607E-10   2.10902624E+14   4.59244518E+09   0.00000000E+00   5.39501497E+09   0.30529277      
  15               9.54992586E-04   7.30045277E-05   2069.41743472    8.84582735E-10   2.55521549E+14   4.59244486E+09   0.00000000E+00   5.35496835E+09   0.29266302      
  16               1.12201845E-03   8.40112130E-05   2217.92989694    8.37994564E-10   2.74356516E+14   4.59244452E+09   0.00000000E+00   5.31388356E+09   0.30831047      
  17               1.31825674E-03   9.66899277E-05   2112.79869868    1.12968677E-09   3.31473607E+14   4.59244416E+09   0.00000000E+00   5.27217480E+09   0.29633259      
  18               1.54881662E-03   1.11403389E-04   2255.94960050    1.07822228E-09   3.57680159E+14   4.59244379E+09   0.00000000E+00   5.22937592E+09   0.055351416     
  19               1.81970086E-03   1.28364787E-04   2157.74999045    1.44387792E-09   4.30894172E+14   4.59244341E+09   0.00000000E+00   5.18591278E+09   0.056443582     
  20               2.13796209E-03   1.48079716E-04   2295.80429354    1.38896855E-09   4.67182481E+14   4.59244305E+09   0.00000000E+00   5.14126762E+09   0.056169509     
  21               2.51188643E-03   1.70826960E-04   2204.99287319    1.84551951E-09   5.61144953E+14   4.59244270E+09   0.00000000E+00   5.09589492E+09   0.056908962     
  22               2.95120923E-03   1.97323578E-04   2338.18808256    1.79011593E-09   6.11259157E+14   4.59244243E+09   0.00000000E+00   5.04919339E+09   0.057200801     
  23               3.46736850E-03   2.27935296E-04   2255.33434739    2.35732893E-09   7.32025968E+14   4.59244223E+09   0.00000000E+00   5.00166279E+09   0.057439899     
  24               4.07380278E-03   2.63704350E-04   2383.98770797    2.30680577E-09   8.01196643E+14   4.59244227E+09   0.00000000E+00   4.95257180E+09   0.058248094     
  25               4.78630092E-03   3.05118235E-04   2309.96229208    3.00669454E-09   9.56729383E+14   4.59244256E+09   0.00000000E+00   4.90248031E+09   0.058215237     
  26               5.62341325E-03   3.53444078E-04   2434.44756071    2.96847006E-09   1.05158922E+15   4.59244343E+09   0.00000000E+00   4.85075680E+09   0.059307113     
  27               6.60693448E-03   4.09317856E-04   2371.31629782    3.81354071E-09   1.25025052E+15   4.59244505E+09   0.00000000E+00   4.79793885E+09   0.05909181      
  28               7.76247117E-03   4.75825730E-04   2495.79442626    3.79012015E-09   1.38090865E+15   4.59244816E+09   0.00000000E+00   4.74201177E+09   0.06085553      
  29               9.12010839E-03   5.57690989E-04   2503.37082333    4.47359136E-09   1.61359404E+15   4.58039676E+09   1.20357879E+07   4.67913493E+09   0.060829718     
  30               1.07151931E-02   6.53064198E-04   2544.85065507    5.04170275E-09   1.85874329E+15   4.56910735E+09   2.33130863E+07   4.61559753E+09   0.062239014     
  31               1.25892541E-02   7.64021243E-04   2553.63179647    5.93131831E-09   2.16707028E+15   4.55762992E+09   3.47819850E+07   4.55142807E+09   0.062171023     
  32               1.47910839E-02   8.93372672E-04   2595.78516230    6.68039670E-09   2.49281332E+15   4.54534950E+09   4.70574879E+07   4.48641436E+09   0.063589871     
  33               1.73780083E-02   1.04386231E-03   2605.78758321    7.83886569E-09   2.90154991E+15   4.53230435E+09   6.01005754E+07   4.42064705E+09   0.063495507     
  34               2.04173794E-02   1.21912839E-03   2648.58363068    8.82714092E-09   3.33396929E+15   4.51811255E+09   7.42879070E+07   4.35398782E+09   0.065363485     
  35               2.39883292E-02   1.42276942E-03   2660.17273977    1.03276662E-08   3.87391889E+15   4.50287260E+09   8.95277195E+07   4.28653848E+09   0.065232084     
  36               2.81838293E-02   1.65931872E-03   2703.53020140    1.16270613E-08   4.44553901E+15   4.48622690E+09   1.06181767E+08   4.21824626E+09   0.067133786     
  37               3.31131121E-02   1.93318508E-03   2716.67254908    1.35585100E-08   5.15420847E+15   4.46833700E+09   1.24088351E+08   4.14926758E+09   0.06695319      
  38               3.89045145E-02   2.24967734E-03   2760.39569914    1.52522941E-08   5.90302647E+15   4.44883240E+09   1.43621592E+08   4.07964343E+09   0.068901933     
  39               4.57088190E-02   2.61385396E-03   2774.95014749    1.77120595E-08   6.82263242E+15   4.42792975E+09   1.64546785E+08   4.00957506E+09   0.068738845     
  40               5.37031796E-02   3.03153981E-03   2818.79906689    1.98884927E-08   7.78977647E+15   4.40523817E+09   1.87250480E+08   3.93917573E+09   0.071231618     
  41               6.30957344E-02   3.50839520E-03   2834.96929347    2.29663769E-08   8.96367265E+15   4.38071816E+09   2.11774474E+08   3.86861768E+09   0.071072499     
  42               7.41310241E-02   4.05049535E-03   2878.66843338    2.57149954E-08   1.01915991E+16   4.35382841E+09   2.38690805E+08   3.79805459E+09   0.073383028     
  43               8.70963590E-02   4.66363386E-03   2896.02789020    2.95062828E-08   1.16640010E+16   4.32452635E+09   2.68003802E+08   3.72766440E+09   0.073173342     
  44               1.02329299E-01   5.35403169E-03   2939.24692584    3.29135727E-08   1.31938245E+16   4.29213170E+09   3.00435357E+08   3.65758746E+09   0.075678312     
  45               1.20226443E-01   6.12789910E-03   2957.69804424    3.74999055E-08   1.50066451E+16   4.25636901E+09   3.36172318E+08   3.58793029E+09   0.075556052     
  46               1.41253754E-01   6.99202520E-03   3000.30812365    4.16503565E-08   1.68796317E+16   4.21644657E+09   3.76065166E+08   3.51876987E+09   0.078579923     
  47               1.65958691E-01   7.95365423E-03   3020.11738549    4.71028280E-08   1.90751834E+16   4.17148583E+09   4.20939705E+08   3.45011440E+09   0.078475406     
  48               1.94984460E-01   9.02037095E-03   3062.05676131    5.20923776E-08   2.13371790E+16   4.12049477E+09   4.71915640E+08   3.38200153E+09   0.081199972     
  49               2.29086765E-01   1.02003684E-02   3082.93811718    5.85108048E-08   2.39649700E+16   4.06252227E+09   5.30260440E+08   3.31441252E+09   0.080806833     
  50               2.69153480E-01   1.15031084E-02   3123.99116079    6.44632806E-08   2.66705060E+16   3.99684782E+09   5.95495104E+08   3.24732221E+09   0.082635174     
  51               3.16227766E-01   1.29388801E-02   3145.30695051    7.20028258E-08   2.97961048E+16   3.92385885E+09   6.68272583E+08   3.18067920E+09   0.082928447     
  52               3.71535229E-01   1.45203394E-02   3186.11171335    7.90412952E-08   3.30097024E+16   3.84340141E+09   7.48663036E+08   3.11437761E+09   0.08727875      
  53               4.36515832E-01   1.62622017E-02   3209.92119292    8.77552638E-08   3.66953313E+16   3.75352622E+09   8.38428293E+08   3.04823950E+09   0.088185692     
  54               5.12861384E-01   1.81809658E-02   3251.16168618    9.60498245E-08   4.05045883E+16   3.65407458E+09   9.38080476E+08   2.98213983E+09   0.091897962     
  55               6.02559586E-01   2.02952253E-02   3277.24361851    1.06158304E-07   4.48550132E+16   3.54374296E+09   1.04840934E+09   2.91592781E+09   0.092090087     
  56               7.07945784E-01   2.26253777E-02   3318.62421133    1.15991899E-07   4.93814230E+16   3.42410359E+09   1.16825214E+09   2.84951553E+09   0.0949474       
  57               8.31763771E-01   2.51946107E-02   3346.58650223    1.27791552E-07   5.45294901E+16   3.29558731E+09   1.29668747E+09   2.78278197E+09   0.095213056     
  58               9.77237221E-01   2.80281798E-02   3388.35420345    1.39469246E-07   5.99144989E+16   3.16168585E+09   1.43077510E+09   2.71565583E+09   0.098683381     
  59               1.14815362E+00   3.11556285E-02   3418.87471922    1.53236552E-07   6.60053548E+16   3.02271059E+09   1.56968042E+09   2.64800419E+09   0.099522358     
  60               1.34896288E+00   3.46080593E-02   3461.65414301    1.67092888E-07   7.24134786E+16   2.88390299E+09   1.70882234E+09   2.57976897E+09   0.10384219      
  61               1.58489319E+00   3.84225255E-02   3495.61332353    1.83133959E-07   7.96138014E+16   2.74487344E+09   1.84784128E+09   2.51081124E+09   0.1059841       
  62               1.86208714E+00   4.26370939E-02   3540.57402567    1.99502744E-07   8.72247547E+16   2.61094778E+09   1.98221605E+09   2.44107848E+09   0.1118282       
  63               2.18776162E+00   4.72973091E-02   3579.37125709    2.18108049E-07   9.57096055E+16   2.47745945E+09   2.11575537E+09   2.37042806E+09   0.11509892      
  64               2.57039578E+00   5.24471764E-02   3627.56991761    2.37362008E-07   1.04720609E+17   2.34778567E+09   2.24594079E+09   2.29884711E+09   0.12090062      
  65               3.01995172E+00   5.81365709E-02   3671.41883649    2.58948392E-07   1.14694164E+17   2.21485017E+09   2.37889657E+09   2.22627355E+09   0.12383323      
  66               3.54813389E+00   6.44092329E-02   3722.68643750    2.81558774E-07   1.25319170E+17   2.08400308E+09   2.51011317E+09   2.15280504E+09   0.12891324      
  67               4.16869383E+00   7.13117129E-02   3771.03450848    3.06554141E-07   1.36970235E+17   1.95124912E+09   2.64289328E+09   2.07850411E+09   0.13276638      
  68               4.89778819E+00   7.88811409E-02   3825.86935643    3.32766452E-07   1.49337504E+17   1.82534757E+09   2.76931734E+09   2.00355299E+09   0.14025089      
  69               5.75439937E+00   8.71533391E-02   3880.30000738    3.61123091E-07   1.62683897E+17   1.69828117E+09   2.89645816E+09   1.92808630E+09   0.14741322      
  70               6.76082975E+00   9.61486179E-02   3940.83537727    3.90672569E-07   1.76717920E+17   1.57542665E+09   3.01953487E+09   1.85234712E+09   0.1575124       
  71               7.94328235E+00   1.05876277E-01   4002.79300142    4.21968081E-07   1.91584942E+17   1.44701547E+09   3.14774489E+09   1.77657685E+09   0.16681104      
  72               9.33254301E+00   1.16326736E-01   4069.80936869    4.54305037E-07   2.07029063E+17   1.32084215E+09   3.27412645E+09   1.70109156E+09   0.17822812      
  73               1.09647820E+01   1.27476642E-01   4139.20146657    4.87861874E-07   2.23069344E+17   1.19229036E+09   3.40260674E+09   1.62619064E+09   0.18921599      
  74               1.28824955E+01   1.39291771E-01   4212.68850915    5.22131991E-07   2.39492520E+17   1.06903869E+09   3.52594138E+09   1.55215544E+09   0.20125759      
  75               1.51356125E+01   1.51733894E-01   4288.63129127    5.57127287E-07   2.56265259E+17   9.55526217E+08   3.63947455E+09   1.47919917E+09   0.21458221      
  76               1.77827941E+01   1.64762836E-01   4369.00461680    5.92299354E-07   2.73150875E+17   8.59118132E+08   3.73595208E+09   1.40746989E+09   0.23091282      
  77               2.08929613E+01   1.78336397E-01   4453.36665807    6.27486304E-07   2.90053009E+17   7.73350453E+08   3.82144755E+09   1.33705655E+09   0.24729667      
  78               2.45470892E+01   1.92423688E-01   4541.67449912    6.62518610E-07   3.06879846E+17   6.96654833E+08   3.89794181E+09   1.26795961E+09   0.26266614      
  79               2.88403150E+01   2.07012705E-01   4632.96392761    6.97457020E-07   3.23641288E+17   6.30363706E+08   3.96403411E+09   1.20008635E+09   0.27763468      
  80               3.38844156E+01   2.22106634E-01   4727.90467984    7.32146712E-07   3.40266080E+17   5.73639483E+08   4.02069146E+09   1.13328674E+09   0.29208086      
  81               3.98107171E+01   2.37719070E-01   4825.61685298    7.66728719E-07   3.56810006E+17   5.24822158E+08   4.06937143E+09   1.06738775E+09   0.30619262      
  82               4.67735141E+01   2.53862957E-01   4927.00945155    8.01036248E-07   3.73200123E+17   4.82689340E+08   4.11137744E+09   1.00224162E+09   0.32023164      
  83               5.49540874E+01   2.70534045E-01   5031.23592951    8.35150590E-07   3.89469167E+17   4.42997272E+08   4.15086795E+09   9.37782911E+08   0.3325786       
  84               6.45654229E+01   2.87698683E-01   5137.92400676    8.68990969E-07   4.05579539E+17   4.04414011E+08   4.18927095E+09   8.74063949E+08   0.34285922      
  85               7.58577575E+01   3.05280529E-01   5245.57209421    9.02567270E-07   4.21533491E+17   3.66769899E+08   4.22678698E+09   8.11281563E+08   0.35162049      
  86               8.91250938E+01   3.23157842E-01   5353.71269605    9.35603047E-07   4.37205360E+17   3.30111013E+08   4.26333314E+09   7.49759097E+08   0.35901525      
  87               1.04712855E+02   3.41185830E-01   5460.61498167    9.68019982E-07   4.52559066E+17   2.94247043E+08   4.29908750E+09   6.89852806E+08   0.36463151      
  88               1.23026877E+02   3.59233114E-01   5565.66958601    9.99613760E-07   4.67503409E+17   2.60495217E+08   4.33278561E+09   6.31834727E+08   0.36906771      
  89               1.44543977E+02   3.77207933E-01   5667.93205005    1.03037860E-06   4.82038828E+17   2.29710604E+08   4.36353139E+09   5.75825826E+08   0.37285012      
  90               1.69824365E+02   3.95064765E-01   5767.68206344    1.06022219E-06   4.96126957E+17   2.02149476E+08   4.39104603E+09   5.21798596E+08   0.37579763      
  91               1.99526231E+02   4.12801821E-01   5864.38775049    1.08932082E-06   5.09852751E+17   1.77814159E+08   4.41535076E+09   4.69605992E+08   0.37804026      
  92               2.34422882E+02   4.30448016E-01   5958.81310370    1.11768083E-06   5.23222951E+17   1.56668552E+08   4.43647543E+09   4.19033180E+08   0.37977639      
  93               2.75422870E+02   4.48050978E-01   6050.72810010    1.14553180E-06   5.36346723E+17   1.38263571E+08   4.45485141E+09   3.69837671E+08   0.38095013      
  94               3.23593657E+02   4.65668512E-01   6140.97446716    1.17291092E-06   5.49244126E+17   1.22318758E+08   4.47077628E+09   3.21774681E+08   0.38158366      
  95               3.80189396E+02   4.83363293E-01   6229.32688155    1.20005820E-06   5.62028561E+17   1.08464899E+08   4.48461782E+09   2.74610431E+08   0.38183669      
  96               4.46683592E+02   5.01198620E-01   6316.67798624    1.22698552E-06   5.74707637E+17   9.64850376E+07   4.49658985E+09   2.28130937E+08   0.38187253      
  97               5.24807460E+02   5.19236212E-01   6402.79011171    1.25390895E-06   5.87383235E+17   8.60372503E+07   4.50702394E+09   1.82144806E+08   0.38171609      
  98               6.16595002E+02   5.37535612E-01   6488.50264923    1.28081689E-06   6.00051595E+17   7.69234324E+07   4.51612234E+09   1.36482139E+08   0.38131478      
  99               7.24435960E+02   5.56154518E-01   6573.46440071    1.30791947E-06   6.12811623E+17   6.88935152E+07   4.52413516E+09   9.09916058E+07   0.38065507      
  100              8.51138038E+02   5.75149055E-01   6658.45834635    1.33518839E-06   6.25651605E+17   6.18297740E+07   4.53118065E+09   4.55380607E+07   0.37972306      
  101              1.00000000E+03   5.94574267E-01   6743.05348118    1.36282924E-06   6.38668276E+17   5.84006791E+07   4.53463610E+09   0.00000000E+00   0.37852864      
