# ATMO pressure-temperature profile
# Effective temperature = 1300.0K
# log(g) = 4.0cm/s^2
# M/H = 0.0
# Optical depth grid in band 17 (1.20-1.33microns)
# All parameters in cgs units
#
# Model Level      Optical Depth    Pressure         Temperature      Density          Number Density   Rad Flux         Conv Flux        Radial Extension Adiabatic Gradient
#                                   [Ba]             [K]              [g/cm^3]         [/cm^3]          [ergs/s/cm^2/sr] [ergs/s/cm^2/sr] [cm]             [K/Ba]          
  1                1.00000000E-06   1.00000000E-05   430.04408583     6.59280313E-10   1.68427445E+14   1.62040714E+08   0.00000000E+00   6.41683196E+07   0.29748267      
  2                1.23026877E-06   1.23338056E-05   457.73086441     7.63958816E-10   1.95169855E+14   1.62040714E+08   0.00000000E+00   6.38394720E+07   0.29742822      
  3                1.51356125E-06   1.50757414E-05   482.84387626     8.85227534E-10   2.26150624E+14   1.62040713E+08   0.00000000E+00   6.35060494E+07   0.29748363      
  4                1.86208714E-06   1.83563126E-05   489.04905406     1.06418215E-09   2.71868482E+14   1.62040713E+08   0.00000000E+00   6.31680515E+07   0.29751266      
  5                2.29086765E-06   2.23066270E-05   507.13778675     1.24706953E-09   3.18591199E+14   1.62040713E+08   0.00000000E+00   6.28251427E+07   0.29759142      
  6                2.81838293E-06   2.70705756E-05   511.07339115     1.50174765E-09   3.83654291E+14   1.62040713E+08   0.00000000E+00   6.24770273E+07   0.29761658      
  7                3.46736850E-06   3.28318765E-05   526.85323009     1.76680358E-09   4.51369176E+14   1.62040713E+08   0.00000000E+00   6.21233327E+07   0.29769177      
  8                4.26579519E-06   3.98033826E-05   530.13151129     2.12872050E-09   5.43828798E+14   1.62040713E+08   0.00000000E+00   6.17638540E+07   0.29771314      
  9                5.24807460E-06   4.82535652E-05   544.91560566     2.51062227E-09   6.41395636E+14   1.62040713E+08   0.00000000E+00   6.13983292E+07   0.29777829      
  10               6.45654229E-06   5.84955237E-05   548.03307149     3.02619759E-09   7.73110739E+14   1.62040713E+08   0.00000000E+00   6.10267566E+07   0.29779563      
  11               7.94328235E-06   7.09269230E-05   562.24323284     3.57656733E-09   9.13719139E+14   1.62040713E+08   0.00000000E+00   6.06488893E+07   0.29784553      
  12               9.77237221E-06   8.60110450E-05   565.30918519     4.31368311E-09   1.10203153E+15   1.62040713E+08   0.00000000E+00   6.02648614E+07   0.2978576       
  13               1.20226443E-05   1.04340653E-04   579.10979525     5.10822103E-09   1.30502394E+15   1.62040713E+08   0.00000000E+00   5.98743841E+07   0.29788779      
  14               1.47910839E-05   1.26603691E-04   582.04841475     6.16687547E-09   1.57548073E+15   1.62040713E+08   0.00000000E+00   5.94777252E+07   0.29865731      
  15               1.81970086E-05   1.53684289E-04   595.54903273     7.31620794E-09   1.86912260E+15   1.62040713E+08   0.00000000E+00   5.90745584E+07   0.2985626       
  16               2.23872114E-05   1.86601342E-04   598.45952658     8.84006720E-09   2.25842575E+15   1.62040713E+08   0.00000000E+00   5.86652503E+07   0.29853592      
  17               2.75422870E-05   2.26670105E-04   611.86671716     1.05028550E-08   2.68326308E+15   1.62040713E+08   0.00000000E+00   5.82494097E+07   0.29843374      
  18               3.38844156E-05   2.75399900E-04   614.75423490     1.27008983E-08   3.24480116E+15   1.62040712E+08   0.00000000E+00   5.78274956E+07   0.29840508      
  19               4.16869383E-05   3.34749018E-04   628.08398024     1.51101495E-08   3.86035669E+15   1.62040712E+08   0.00000000E+00   5.73990795E+07   0.29829338      
  20               5.12861384E-05   4.06979438E-04   630.87712509     1.82893454E-08   4.67254537E+15   1.62040712E+08   0.00000000E+00   5.69645821E+07   0.29826218      
  21               6.30957344E-05   4.95017603E-04   644.19738045     2.17853428E-08   5.56579912E+15   1.62040711E+08   0.00000000E+00   5.65235271E+07   0.29814057      
  22               7.76247117E-05   6.02224867E-04   646.90754913     2.63926893E-08   6.74283146E+15   1.62040711E+08   0.00000000E+00   5.60764310E+07   0.29810765      
  23               9.54992586E-05   7.32925682E-04   660.34368391     3.14664284E-08   8.03925401E+15   1.62040710E+08   0.00000000E+00   5.56228908E+07   0.29797413      
  24               1.17489755E-04   8.92107215E-04   663.09744391     3.81419265E-08   9.74463412E+15   1.62040709E+08   0.00000000E+00   5.51634088E+07   0.29793707      
  25               1.44543977E-04   1.08616644E-03   676.83055473     4.54957539E-08   1.16236430E+16   1.62040708E+08   0.00000000E+00   5.46975535E+07   0.29778765      
  26               1.77827941E-04   1.32249015E-03   679.71720513     5.51600949E-08   1.40925642E+16   1.62040707E+08   0.00000000E+00   5.42258051E+07   0.29774566      
  27               2.18776162E-04   1.61053658E-03   693.84235856     6.58049715E-08   1.68126288E+16   1.62040706E+08   0.00000000E+00   5.37476993E+07   0.29757972      
  28               2.69153480E-04   1.96124417E-03   696.99369693     7.97735318E-08   2.03811485E+16   1.62040704E+08   0.00000000E+00   5.32636523E+07   0.29753009      
  29               3.31131121E-04   2.38861762E-03   711.59640951     9.51602928E-08   2.43130097E+16   1.62040701E+08   0.00000000E+00   5.27731356E+07   0.29734193      
  30               4.07380278E-04   2.90883975E-03   715.13626854     1.15313852E-07   2.94616341E+16   1.62040698E+08   0.00000000E+00   5.22765189E+07   0.29728183      
  31               5.01187234E-04   3.54276734E-03   730.40941686     1.37502956E-07   3.51319381E+16   1.62040694E+08   0.00000000E+00   5.17730799E+07   0.29706881      
  32               6.16595002E-04   4.31446876E-03   734.60797838     1.66500344E-07   4.25400041E+16   1.62040689E+08   0.00000000E+00   5.12630605E+07   0.29699292      
  33               7.58577575E-04   5.25529895E-03   750.73792142     1.98442944E-07   5.07031466E+16   1.62040683E+08   0.00000000E+00   5.07454652E+07   0.29674615      
  34               9.33254301E-04   6.40125121E-03   755.85277705     2.40083088E-07   6.13413737E+16   1.62040675E+08   0.00000000E+00   5.02204539E+07   0.29664695      
  35               1.14815362E-03   7.80118987E-03   773.24490392     2.85994400E-07   7.30751342E+16   1.62040665E+08   0.00000000E+00   4.96861910E+07   0.29635699      
  36               1.41253754E-03   9.51151316E-03   779.70587554     3.45810886E-07   8.83577496E+16   1.62040653E+08   0.00000000E+00   4.91423392E+07   0.29622621      
  37               1.73780083E-03   1.16104446E-02   798.65169119     4.12085108E-07   1.05297310E+17   1.62040637E+08   0.00000000E+00   4.85863166E+07   0.29581127      
  38               2.13796209E-03   1.41880182E-02   806.88401737     4.98436589E-07   1.27361001E+17   1.62040619E+08   0.00000000E+00   4.80175778E+07   0.29565392      
  39               2.63026799E-03   1.73740894E-02   827.86761750     5.94855288E-07   1.52008193E+17   1.62040593E+08   0.00000000E+00   4.74324459E+07   0.29521022      
  40               3.23593657E-03   2.13185574E-02   838.30018023     7.20823003E-07   1.84197653E+17   1.62040565E+08   0.00000000E+00   4.68300687E+07   0.2949735       
  41               3.98107171E-03   2.62414443E-02   861.67922803     8.63141200E-07   2.20580923E+17   1.62040525E+08   0.00000000E+00   4.62059376E+07   0.29452045      
  42               4.89778819E-03   3.24025851E-02   874.80192377     1.04979695E-06   2.68284616E+17   1.62040480E+08   0.00000000E+00   4.55586941E+07   0.29423109      
  43               6.02559586E-03   4.01788930E-02   900.98103807     1.26381665E-06   3.23004190E+17   1.62040418E+08   0.00000000E+00   4.48835589E+07   0.29356736      
  44               7.41310241E-03   5.00230477E-02   917.16511680     1.54566732E-06   3.95046719E+17   1.62040348E+08   0.00000000E+00   4.41792246E+07   0.29304699      
  45               9.12010839E-03   6.25836405E-02   946.83244767     1.87299917E-06   4.78755228E+17   1.62040251E+08   0.00000000E+00   4.34409889E+07   0.29225561      
  46               1.12201845E-02   7.86918207E-02   966.92856613     2.30607235E-06   5.89469098E+17   1.62040142E+08   0.00000000E+00   4.26659167E+07   0.29169298      
  47               1.38038426E-02   9.94707352E-02   1000.91138561    2.81576602E-06   7.19822699E+17   1.62039994E+08   0.00000000E+00   4.18504641E+07   0.29065979      
  48               1.69824365E-02   1.26375888E-01   1025.94186622    3.48998856E-06   8.92210451E+17   1.62039820E+08   0.00000000E+00   4.09921889E+07   0.28979475      
  49               2.08929613E-02   1.61232134E-01   1065.47231830    4.28703570E-06   1.09606237E+18   1.62039597E+08   0.00000000E+00   4.00910351E+07   0.28859113      
  50               2.57039578E-02   2.06297262E-01   1096.22578522    5.33122954E-06   1.36307355E+18   1.62039372E+08   0.00000000E+00   3.91483863E+07   0.2876278       
  51               3.16227766E-02   2.63955990E-01   1141.79262865    6.54865646E-06   1.67444207E+18   1.62039107E+08   0.00000000E+00   3.81725396E+07   0.28616451      
  52               3.89045145E-02   3.37108887E-01   1178.52931751    8.10264468E-06   2.07183732E+18   1.62038896E+08   0.00000000E+00   3.71682860E+07   0.28486348      
  53               4.78630092E-02   4.28244290E-01   1229.32525198    9.86745761E-06   2.52319385E+18   1.62038621E+08   0.00000000E+00   3.61490498E+07   0.28302373      
  54               5.88843655E-02   5.40027781E-01   1270.22680321    1.20422738E-05   3.07936145E+18   1.62038437E+08   0.00000000E+00   3.51235830E+07   0.2814174       
  55               7.24435960E-02   6.74208243E-01   1324.25465118    1.44207316E-05   3.68763893E+18   1.62038088E+08   0.00000000E+00   3.41053589E+07   0.27938439      
  56               8.91250938E-02   8.32549302E-01   1367.55662322    1.72435392E-05   4.40951154E+18   1.62037826E+08   0.00000000E+00   3.31012350E+07   0.27793543      
  57               1.09647820E-01   1.01613442E+00   1423.84245450    2.02140438E-05   5.16910153E+18   1.62037295E+08   0.00000000E+00   3.21179036E+07   0.27604284      
  58               1.34896288E-01   1.22685961E+00   1469.65800157    2.36453650E-05   6.04650513E+18   1.62037133E+08   0.00000000E+00   3.11540327E+07   0.27426915      
  59               1.65958691E-01   1.45910312E+00   1528.56553418    2.70509753E-05   6.91397432E+18   1.62036581E+08   0.00000000E+00   3.02356468E+07   0.27202725      
  60               2.04173794E-01   1.70682789E+00   1576.77388000    3.06773685E-05   7.84054322E+18   1.62037368E+08   0.00000000E+00   2.93756990E+07   0.27014094      
  61               2.51188643E-01   1.96536866E+00   1637.55361505    3.40187752E-05   8.69309323E+18   1.61689894E+08   3.80437435E+05   2.85753701E+07   0.26785763      
  62               3.09029543E-01   2.21261451E+00   1690.29111321    3.71272214E-05   9.48134799E+18   1.56416850E+08   5.67181047E+06   2.78796269E+07   0.26582549      
  63               3.80189396E-01   2.42484861E+00   1731.61235371    3.97598809E-05   1.01428451E+19   1.49491778E+08   1.25972245E+07   2.73271974E+07   0.26411252      
  64               4.67735141E-01   2.60055281E+00   1763.97699797    4.18713722E-05   1.06782135E+19   1.43078592E+08   1.90067136E+07   2.68965468E+07   0.26258461      
  65               5.75439937E-01   2.74130170E+00   1788.29991873    4.35365804E-05   1.11030506E+19   1.37933426E+08   2.41546599E+07   2.65668920E+07   0.26114688      
  66               7.07945784E-01   2.90431477E+00   1815.61373038    4.54306966E-05   1.15863346E+19   1.32528623E+08   2.95684175E+07   2.62003525E+07   0.25985164      
  67               8.70963590E-01   3.09199170E+00   1845.13120544    4.75896945E-05   1.21377141E+19   1.26072980E+08   3.60125263E+07   2.57967257E+07   0.25892995      
  68               1.07151931E+00   3.23876057E+00   1867.58934716    4.92920295E-05   1.25609734E+19   1.19933195E+08   4.21057621E+07   2.54936561E+07   0.25827649      
  69               1.31825674E+00   3.34838394E+00   1883.49273933    5.05292509E-05   1.28764795E+19   1.14963627E+08   4.70516009E+07   2.52739999E+07   0.25746813      
  70               1.62181010E+00   3.47751384E+00   1902.11002666    5.19630943E-05   1.32421673E+19   1.10007203E+08   5.20206891E+07   2.50219955E+07   0.25657266      
  71               1.99526231E+00   3.62858577E+00   1922.73802481    5.36373243E-05   1.36692006E+19   1.04686148E+08   5.73554837E+07   2.47358395E+07   0.25551641      
  72               2.45470892E+00   3.80412420E+00   1946.24973588    5.55508523E-05   1.41573497E+19   9.88572309E+07   6.31973732E+07   2.44142561E+07   0.2543388       
  73               3.01995172E+00   4.00605522E+00   1971.75558434    5.77404829E-05   1.47159970E+19   9.25617651E+07   6.95023877E+07   2.40577082E+07   0.25295389      
  74               3.71535229E+00   4.23741044E+00   2000.09297939    6.02064055E-05   1.53453284E+19   8.63355051E+07   7.57369646E+07   2.36653180E+07   0.25137519      
  75               4.57088190E+00   4.50361824E+00   2030.65484737    6.30213785E-05   1.60639113E+19   8.03088742E+07   8.17712115E+07   2.32331466E+07   0.24957288      
  76               5.62341325E+00   4.80856118E+00   2064.22717718    6.61884209E-05   1.68726576E+19   7.42608711E+07   8.78227791E+07   2.27609918E+07   0.24756863      
  77               6.91830971E+00   5.15646199E+00   2099.87272779    6.97647988E-05   1.77862621E+19   6.81698509E+07   9.39123703E+07   2.22490185E+07   0.24528574      
  78               8.51138038E+00   5.55194933E+00   2138.32202375    7.37548890E-05   1.88060776E+19   6.21279988E+07   9.99475296E+07   2.16976775E+07   0.24278053      
  79               1.04712855E+01   6.00012053E+00   2178.57406240    7.82229160E-05   1.99486488E+19   5.61907834E+07   1.05873073E+08   2.11076353E+07   0.24000962      
  80               1.28824955E+01   6.50662995E+00   2221.33868482    8.31759996E-05   2.12161789E+19   5.04764559E+07   1.11571782E+08   2.04796876E+07   0.23700667      
  81               1.58489319E+01   7.07776271E+00   2265.56599228    8.86886427E-05   2.26279453E+19   4.50203273E+07   1.17011457E+08   1.98147109E+07   0.23358511      
  82               1.94984460E+01   7.72061663E+00   2311.91384790    9.47755025E-05   2.41883465E+19   3.99093606E+07   1.22105745E+08   1.91135251E+07   0.22998432      
  83               2.39883292E+01   8.44268626E+00   2359.35013466    1.01529298E-04   2.59187525E+19   3.51334803E+07   1.26864138E+08   1.83774005E+07   0.22605563      
  84               2.95120923E+01   9.25287167E+00   2408.50477656    1.08954445E-04   2.78262618E+19   3.08856388E+07   1.31096549E+08   1.76070822E+07   0.22207904      
  85               3.63078055E+01   1.01614834E+01   2458.48061643    1.17162399E-04   2.99375436E+19   2.70515582E+07   1.34917916E+08   1.68028783E+07   0.21787594      
  86               4.46683592E+01   1.11796447E+01   2509.85421737    1.26188968E-04   3.22630443E+19   2.35927651E+07   1.38365050E+08   1.59655094E+07   0.21360278      
  87               5.49540874E+01   1.23199066E+01   2561.75017246    1.36150752E-04   3.48334493E+19   2.04887129E+07   1.41458598E+08   1.50955690E+07   0.20927757      
  88               6.76082975E+01   1.35961266E+01   2614.78715776    1.47092725E-04   3.76621142E+19   1.77602340E+07   1.44177554E+08   1.41937360E+07   0.20482592      
  89               8.31763771E+01   1.50237365E+01   2668.01671911    1.59156638E-04   4.07863883E+19   1.53629370E+07   1.46566526E+08   1.32606789E+07   0.20048706      
  90               1.02329299E+02   1.66199077E+01   2722.21983636    1.72390684E-04   4.42212744E+19   1.32950777E+07   1.48627868E+08   1.22970329E+07   0.19613033      
  91               1.25892541E+02   1.84035336E+01   2776.34710346    1.86968208E-04   4.80123869E+19   1.14833397E+07   1.50435057E+08   1.13035268E+07   0.19184186      
  92               1.54881662E+02   2.03952680E+01   2831.25863383    2.02940833E-04   5.21765925E+19   9.92486933E+06   1.51991088E+08   1.02810088E+07   0.1878557       
  93               1.90546072E+02   2.26174334E+01   2885.99846216    2.20498022E-04   5.67640094E+19   8.55453495E+06   1.53361142E+08   9.23050501E+06   0.18405899      
  94               2.34422882E+02   2.50941775E+01   2941.40008910    2.39695824E-04   6.17937717E+19   7.36546181E+06   1.54552223E+08   8.15315364E+06   0.18041719      
  95               2.88403150E+02   2.78515563E+01   2996.45700156    2.60752949E-04   6.73235885E+19   6.32390942E+06   1.55599192E+08   7.05019205E+06   0.17705661      
  96               3.54813389E+02   3.09172353E+01   3052.11833515    2.83713307E-04   7.33711157E+19   5.42513679E+06   1.56507305E+08   5.92304274E+06   0.17377306      
  97               4.36515832E+02   3.43179418E+01   3107.17208260    3.08815224E-04   7.99984858E+19   4.64414837E+06   1.57300246E+08   4.77412486E+06   0.17074247      
  98               5.37031796E+02   3.80819057E+01   3162.69637809    3.36059423E-04   8.72141619E+19   3.97681943E+06   1.57981562E+08   3.60570909E+06   0.16797251      
  99               6.60693448E+02   4.22398030E+01   3217.49085739    3.65720125E-04   9.50890267E+19   3.39508961E+06   1.58579020E+08   2.41966640E+06   0.16545012      
  100              8.12830516E+02   4.68252924E+01   3272.72354011    3.97793699E-04   1.03632749E+20   2.89634857E+06   1.59095198E+08   1.21742528E+06   0.16308539      
  101              1.00000000E+03   5.18755715E+01   3327.14613287    4.32619332E-04   1.12931958E+20   2.64759434E+06   1.59356420E+08   0.00000000E+00   0.16101334      
