# ATMO pressure-temperature profile
# Effective temperature = 2100.0K
# log(g) = 3.5cm/s^2
# M/H = 0.0
# Optical depth grid in band 17 (1.20-1.33microns)
# All parameters in cgs units
#
# Model Level      Optical Depth    Pressure         Temperature      Density          Number Density   Rad Flux         Conv Flux        Radial Extension Adiabatic Gradient
#                                   [Ba]             [K]              [g/cm^3]         [/cm^3]          [ergs/s/cm^2/sr] [ergs/s/cm^2/sr] [cm]             [K/Ba]          
  1                3.00000000E-06   1.00000000E-05   645.69160751     4.38641038E-10   1.12176193E+14   1.10266952E+09   0.00000000E+00   2.78403248E+08   0.29773192      
  2                3.65048058E-06   1.66939717E-05   717.30788959     6.59150305E-10   1.68569852E+14   1.10266952E+09   0.00000000E+00   2.74466378E+08   0.29728369      
  3                4.44200282E-06   2.44199198E-05   749.96509514     9.22244530E-10   2.35846275E+14   1.10266952E+09   0.00000000E+00   2.71332816E+08   0.2958834       
  4                5.40514834E-06   3.34155426E-05   776.12254250     1.21944149E-09   3.11848787E+14   1.10266952E+09   0.00000000E+00   2.68650389E+08   0.29601821      
  5                6.57712968E-06   4.40021420E-05   795.97230676     1.56573600E-09   4.00407035E+14   1.10266952E+09   0.00000000E+00   2.66227593E+08   0.29460522      
  6                8.00322805E-06   5.65243246E-05   815.98938198     1.96197511E-09   5.01737676E+14   1.10266952E+09   0.00000000E+00   2.63968292E+08   0.29488951      
  7                9.73854285E-06   7.13712441E-05   832.49842796     2.42818869E-09   6.20962945E+14   1.10266952E+09   0.00000000E+00   2.61817253E+08   0.29348058      
  8                1.18501205E-05   8.89972624E-05   850.36996980     2.96422582E-09   7.58044276E+14   1.10266952E+09   0.00000000E+00   2.59739674E+08   0.2938156       
  9                1.44195449E-05   1.09934268E-04   865.47847938     3.59765364E-09   9.20031412E+14   1.10266952E+09   0.00000000E+00   2.57712229E+08   0.29407134      
  10               1.75460896E-05   1.34809982E-04   882.34965704     4.32736811E-09   1.10664205E+15   1.10266952E+09   0.00000000E+00   2.55718555E+08   0.29434339      
  11               2.13505531E-05   1.64361626E-04   896.80977964     5.19089917E-09   1.32747372E+15   1.10266952E+09   0.00000000E+00   2.53746821E+08   0.29328527      
  12               2.59799264E-05   1.99459321E-04   913.22391929     6.18613711E-09   1.58198695E+15   1.10266952E+09   0.00000000E+00   2.51788213E+08   0.29358088      
  13               3.16130723E-05   2.41128457E-04   927.39453959     7.36421409E-09   1.88325779E+15   1.10266952E+09   0.00000000E+00   2.49835935E+08   0.29246497      
  14               3.84676354E-05   2.90629160E-04   943.57781132     8.72376438E-09   2.23093700E+15   1.10266951E+09   0.00000000E+00   2.47882962E+08   0.29278166      
  15               4.68084520E-05   3.49466720E-04   957.65474610     1.03356861E-08   2.64315540E+15   1.10266951E+09   0.00000000E+00   2.45923518E+08   0.29160451      
  16               5.69577817E-05   4.19422540E-04   973.88682475     1.21979181E-08   3.11938597E+15   1.10266951E+09   0.00000000E+00   2.43953313E+08   0.29193929      
  17               6.93077586E-05   5.02596529E-04   988.12211517     1.44062615E-08   3.68412795E+15   1.10266951E+09   0.00000000E+00   2.41969188E+08   0.29069515      
  18               8.43355422E-05   6.01465732E-04   1004.63001897    1.69569270E-08   4.33641240E+15   1.10266950E+09   0.00000000E+00   2.39968811E+08   0.29104311      
  19               1.02621753E-04   7.18940945E-04   1019.21675944    1.99787844E-08   5.10919527E+15   1.10266950E+09   0.00000000E+00   2.37950500E+08   0.28972744      
  20               1.24872905E-04   8.58442694E-04   1036.18200872    2.34648423E-08   6.00068875E+15   1.10266949E+09   0.00000000E+00   2.35913053E+08   0.29008234      
  21               1.51948705E-04   1.02397571E-03   1051.27468564    2.75877200E-08   7.05503687E+15   1.10266948E+09   0.00000000E+00   2.33855657E+08   0.28869215      
  22               1.84895266E-04   1.22022761E-03   1068.82867439    3.23351652E-08   8.26910660E+15   1.10266947E+09   0.00000000E+00   2.31777786E+08   0.28905008      
  23               2.24985526E-04   1.45266230E-03   1084.55418967    3.79363653E-08   9.70150809E+15   1.10266946E+09   0.00000000E+00   2.29679158E+08   0.2875842       
  24               2.73768430E-04   1.72764464E-03   1102.83949862    4.43694836E-08   1.13466574E+16   1.10266944E+09   0.00000000E+00   2.27559651E+08   0.2879378       
  25               3.33128779E-04   2.05256202E-03   1119.32352021    5.19377219E-08   1.32820925E+16   1.10266942E+09   0.00000000E+00   2.25419279E+08   0.28639132      
  26               4.05360046E-04   2.43615474E-03   1138.39559780    6.06113374E-08   1.55002072E+16   1.10266939E+09   0.00000000E+00   2.23257297E+08   0.28673859      
  27               4.93252992E-04   2.88906032E-03   1155.62859773    7.08077019E-08   1.81077366E+16   1.10266936E+09   0.00000000E+00   2.21071094E+08   0.28511732      
  28               6.00203489E-04   3.42371744E-03   1175.61550723    8.24849743E-08   2.10939761E+16   1.10266930E+09   0.00000000E+00   2.18858776E+08   0.28545241      
  29               7.30343727E-04   4.05459050E-03   1193.86582006    9.61908631E-08   2.45989924E+16   1.10266923E+09   0.00000000E+00   2.16619087E+08   0.28373959      
  30               8.88701864E-04   4.79837590E-03   1214.99967674    1.11856467E-07   2.86051312E+16   1.10266913E+09   0.00000000E+00   2.14351571E+08   0.28405474      
  31               1.08139630E-03   5.67442380E-03   1234.51415259    1.30187285E-07   3.32928930E+16   1.10266899E+09   0.00000000E+00   2.12055882E+08   0.28224717      
  32               1.31587206E-03   6.70429459E-03   1257.11652466    1.51051274E-07   3.86281041E+16   1.10266880E+09   0.00000000E+00   2.09733483E+08   0.28253008      
  33               1.60118847E-03   7.91277561E-03   1278.25076841    1.75331461E-07   4.48372148E+16   1.10266857E+09   0.00000000E+00   2.07385214E+08   0.28059338      
  34               1.94836913E-03   9.32429997E-03   1302.61413149    2.02752211E-07   5.18473174E+16   1.10266825E+09   0.00000000E+00   2.05017779E+08   0.28083116      
  35               2.37082789E-03   1.09673090E-02   1325.65755470    2.34334627E-07   5.99231408E+16   1.10266783E+09   0.00000000E+00   2.02634146E+08   0.28117855      
  36               2.88488706E-03   1.28562693E-02   1352.17472678    2.69351384E-07   6.88664961E+16   1.10266740E+09   0.00000000E+00   2.00256459E+08   0.28113158      
  37               3.51040806E-03   1.50194277E-02   1377.62711544    3.08855067E-07   7.89673458E+16   1.10266705E+09   0.00000000E+00   1.97884804E+08   0.27798523      
  38               4.27155881E-03   1.74539714E-02   1406.64405886    3.51644871E-07   8.98743748E+16   1.10266607E+09   0.00000000E+00   1.95548635E+08   0.27799608      
  39               5.19774750E-03   2.01686897E-02   1434.84999204    3.98364226E-07   1.01811544E+17   1.10266512E+09   0.00000000E+00   1.93254951E+08   0.27470121      
  40               6.32475876E-03   2.32033658E-02   1466.70954715    4.48447904E-07   1.14586303E+17   1.10266446E+09   0.00000000E+00   1.90984432E+08   0.27466075      
  41               7.69613634E-03   2.64483282E-02   1497.73278686    5.00727165E-07   1.27905650E+17   1.10266428E+09   0.00000000E+00   1.88818917E+08   0.27122944      
  42               9.36486541E-03   2.96777506E-02   1531.62502521    5.49980166E-07   1.40347398E+17   1.10266432E+09   0.00000000E+00   1.86872723E+08   0.27112713      
  43               1.13954198E-02   3.27805963E-02   1562.90285047    5.95648436E-07   1.51918515E+17   1.10266505E+09   0.00000000E+00   1.85158371E+08   0.26818992      
  44               1.38662528E-02   3.57456676E-02   1595.44396034    6.36843968E-07   1.62281008E+17   1.10266577E+09   0.00000000E+00   1.83635782E+08   0.26586694      
  45               1.68728289E-02   3.86044761E-02   1620.58922438    6.77083451E-07   1.72540303E+17   1.10266704E+09   0.00000000E+00   1.82259055E+08   0.26395644      
  46               2.05313114E-02   4.18664333E-02   1652.89915231    7.19903955E-07   1.83461714E+17   1.10266757E+09   0.00000000E+00   1.80781579E+08   0.26180351      
  47               2.49830512E-02   4.55450903E-02   1689.53407411    7.66119079E-07   1.95254230E+17   1.10197504E+09   6.33017950E+05   1.79215170E+08   0.25898471      
  48               3.04000477E-02   4.96548441E-02   1727.58195765    8.16769904E-07   2.08184697E+17   1.10028741E+09   2.28470783E+06   1.77572239E+08   0.2556932       
  49               3.69915946E-02   5.41841370E-02   1766.28153525    8.71626211E-07   2.22196939E+17   1.09762435E+09   4.92508661E+06   1.75874709E+08   0.25186951      
  50               4.50123658E-02   5.90724175E-02   1804.86419843    9.29787583E-07   2.37064243E+17   1.09431439E+09   8.22281661E+06   1.74157585E+08   0.24764151      
  51               5.47722558E-02   6.44108955E-02   1843.59880931    9.92295398E-07   2.53057235E+17   1.09036860E+09   1.21583435E+07   1.72400034E+08   0.24306228      
  52               6.66483519E-02   7.04141632E-02   1883.64278765    1.06141747E-06   2.70761752E+17   1.08499125E+09   1.75299350E+07   1.70550221E+08   0.23785929      
  53               8.10995048E-02   7.71579754E-02   1924.58484181    1.13792134E-06   2.90381940E+17   1.07766974E+09   2.48515686E+07   1.68609734E+08   0.23195782      
  54               9.86840557E-02   8.47283669E-02   1966.35221873    1.22247491E-06   3.12099708E+17   1.06796204E+09   3.45660992E+07   1.66579960E+08   0.2255868       
  55               1.20081410E-01   9.32229971E-02   2008.58967184    1.31602161E-06   3.36169010E+17   1.05542580E+09   4.71156927E+07   1.64462089E+08   0.21870961      
  56               1.46118284E-01   1.02753371E-01   2051.20627931    1.41946535E-06   3.62837846E+17   1.03963744E+09   6.29173546E+07   1.62257013E+08   0.21130145      
  57               1.77800653E-01   1.13450157E-01   2093.83289369    1.53409603E-06   3.92454147E+17   1.02027638E+09   8.22855741E+07   1.59964705E+08   0.203728        
  58               2.16352610E-01   1.25462891E-01   2136.53531482    1.66105507E-06   4.25334935E+17   9.97081721E+08   1.05483487E+08   1.57584945E+08   0.19638265      
  59               2.63263667E-01   1.38959570E-01   2179.09607337    1.80183703E-06   4.61889323E+17   9.69795894E+08   1.32774539E+08   1.55117841E+08   0.18899532      
  60               3.20346302E-01   1.54129766E-01   2221.46504799    1.95797470E-06   5.02542591E+17   9.38266036E+08   1.64316519E+08   1.52563722E+08   0.18188397      
  61               3.89805984E-01   1.71185762E-01   2263.55915936    2.13119419E-06   5.47774273E+17   9.02371195E+08   2.00232029E+08   1.49923297E+08   0.1749884       
  62               4.74326391E-01   1.90365007E-01   2305.30288948    2.32339575E-06   5.98115373E+17   8.62014556E+08   2.40613962E+08   1.47197642E+08   0.16817951      
  63               5.77173093E-01   2.11872406E-01   2346.43871891    2.53645378E-06   6.54019990E+17   8.17284101E+08   2.85374089E+08   1.44395839E+08   0.16180973      
  64               7.02319722E-01   2.35998371E-01   2387.10519996    2.77197361E-06   7.16082873E+17   7.68862927E+08   3.33828356E+08   1.41518509E+08   0.1562583       
  65               8.54601502E-01   2.63128742E-01   2427.47816790    3.03310947E-06   7.85124981E+17   7.17317794E+08   3.85406990E+08   1.38559608E+08   0.15105867      
  66               1.03990206E+00   2.93616727E-01   2467.43381308    3.32256852E-06   8.61908415E+17   6.62944177E+08   4.39816673E+08   1.35522494E+08   0.14631789      
  67               1.26538076E+00   3.27822397E-01   2507.06890116    3.64262533E-06   9.47105135E+17   6.06050011E+08   4.96748484E+08   1.32413160E+08   0.14203595      
  68               1.53974930E+00   3.66166400E-01   2546.28610094    3.99635904E-06   1.04159079E+18   5.47451419E+08   5.55371179E+08   1.29235033E+08   0.13823671      
  69               1.87360830E+00   4.09125509E-01   2585.27346511    4.38670846E-06   1.14624092E+18   4.88164701E+08   6.14659532E+08   1.25990389E+08   0.13469924      
  70               2.27985690E+00   4.57219203E-01   2623.83280528    4.81759461E-06   1.26215922E+18   4.29407362E+08   6.73399632E+08   1.22681998E+08   0.131562        
  71               2.77419111E+00   5.11008104E-01   2662.24242103    5.29206232E-06   1.39029201E+18   3.72402950E+08   7.30369276E+08   1.19313175E+08   0.12878314      
  72               3.37571026E+00   5.71094144E-01   2700.27867427    5.81449229E-06   1.53188075E+18   3.18388346E+08   7.84332028E+08   1.15887723E+08   0.1263283       
  73               4.10765492E+00   6.38123046E-01   2738.21467644    6.38811425E-06   1.68796243E+18   2.68548332E+08   8.34109903E+08   1.12409699E+08   0.12401082      
  74               4.99830483E+00   7.12792111E-01   2775.71825071    7.01818010E-06   1.86000171E+18   2.24105607E+08   8.78485976E+08   1.08883114E+08   0.12197903      
  75               6.08207157E+00   7.95851337E-01   2813.17450616    7.70785763E-06   2.04909039E+18   1.85873782E+08   9.16653917E+08   1.05311859E+08   0.12013733      
  76               7.40082804E+00   8.88112585E-01   2850.19831189    8.46332248E-06   2.25693362E+18   1.54202878E+08   9.48263999E+08   1.01699478E+08   0.11859451      
  77               9.00552635E+00   9.90455074E-01   2887.27027991    9.28765762E-06   2.48469554E+18   1.28698312E+08   9.73718713E+08   9.80490482E+07   0.11724222      
  78               1.09581663E+01   1.10383023E+00   2923.94207407    1.01882232E-05   2.73438309E+18   1.08363164E+08   9.94018696E+08   9.43632924E+07   0.11605615      
  79               1.33341911E+01   1.22927253E+00   2960.70561368    1.11683433E-05   3.00731409E+18   9.21028771E+07   1.01025653E+09   9.06444195E+07   0.11502578      
  80               1.62254019E+01   1.36790922E+00   2997.10830706    1.22366476E-05   3.30583124E+18   7.88070652E+07   1.02353708E+09   8.68941455E+07   0.11410881      
  81               1.97435049E+01   1.52097015E+00   3033.63988166    1.33968976E-05   3.63147037E+18   6.77756785E+07   1.03455802E+09   8.31137141E+07   0.11332291      
  82               2.40244270E+01   1.68974651E+00   3069.84779210    1.46587882E-05   3.98685604E+18   5.83949087E+07   1.04394071E+09   7.93050705E+07   0.11261838      
  83               2.92335681E+01   1.87566265E+00   3106.20568925    1.60263798E-05   4.37371378E+18   5.04449977E+07   1.05190198E+09   7.54692332E+07   0.11202427      
  84               3.55721908E+01   2.08030069E+00   3142.28817628    1.75112839E-05   4.79519135E+18   4.36094960E+07   1.05875604E+09   7.16062839E+07   0.11150597      
  85               4.32851972E+01   2.30541899E+00   3178.57437876    1.91185775E-05   5.25343456E+18   3.77847409E+07   1.06459909E+09   6.77155336E+07   0.11112537      
  86               5.26705906E+01   2.55295789E+00   3214.68033988    2.08618630E-05   5.75216978E+18   3.27441546E+07   1.06965504E+09   6.37958767E+07   0.11083327      
  87               6.40909893E+01   2.82506752E+00   3251.07152294    2.27473475E-05   6.29402043E+18   2.84184427E+07   1.07399789E+09   5.98457504E+07   0.11064101      
  88               7.79876373E+01   3.12412248E+00   3287.36839893    2.47912226E-05   6.88343976E+18   2.46442560E+07   1.07778994E+09   5.58633468E+07   0.11048012      
  89               9.48974517E+01   3.45276145E+00   3324.00655597    2.70013646E-05   7.52368392E+18   2.13884265E+07   1.08106397E+09   5.18464940E+07   0.11037949      
  90               1.15473768E+02   3.81391046E+00   3360.62164728    2.93970606E-05   8.22009263E+18   1.85476116E+07   1.08391791E+09   4.77928092E+07   0.11029211      
  91               1.40511583E+02   4.21082696E+00   3397.63121620    3.19882428E-05   8.97670589E+18   1.60992401E+07   1.08637368E+09   4.36996328E+07   0.11027297      
  92               1.70978268E+02   4.64710863E+00   3434.70109721    3.47974919E-05   9.79985648E+18   1.39586462E+07   1.08852470E+09   3.95643427E+07   0.11028551      
  93               2.08050949E+02   5.12674661E+00   3472.23315033    3.78369229E-05   1.06944589E+19   1.21068682E+07   1.09038878E+09   3.53842110E+07   0.11037329      
  94               2.53161982E+02   5.65414923E+00   3509.91522466    4.11328887E-05   1.16680016E+19   1.04847912E+07   1.09202415E+09   3.11565726E+07   0.11050045      
  95               3.08054300E+02   6.23420630E+00   3548.13298384    4.47001008E-05   1.27264454E+19   9.07934678E+06   1.09344226E+09   2.68786780E+07   0.11070483      
  96               3.74848746E+02   6.87232117E+00   3586.59328972    4.85692971E-05   1.38786478E+19   7.84944081E+06   1.09467164E+09   2.25478419E+07   0.11094687      
  97               4.56126023E+02   7.57449464E+00   3625.66269295    5.27584274E-05   1.51318527E+19   6.78743163E+06   1.09573271E+09   1.81612643E+07   0.11124495      
  98               5.55026396E+02   8.34738102E+00   3665.05543972    5.73038307E-05   1.64966412E+19   5.86342344E+06   1.09665527E+09   1.37161183E+07   0.11158415      
  99               6.75371026E+02   9.19836982E+00   3705.13614807    6.22270642E-05   1.79817740E+19   5.06468757E+06   1.09745197E+09   9.20950082E+06   0.11195648      
  100              8.21809604E+02   1.01356666E+01   3745.60771441    6.75716778E-05   1.95999908E+19   4.36810613E+06   1.09814584E+09   4.63847804E+06   0.11236185      
  101              1.00000000E+03   1.11684024E+01   3786.84370694    7.33634379E-05   2.13618819E+19   4.05412585E+06   1.09845486E+09   0.00000000E+00   0.11280686      
