# ATMO pressure-temperature profile
# Effective temperature = 1700.0K
# log(g) = 5.0cm/s^2
# M/H = 0.0
# Optical depth grid in band 17 (1.20-1.33microns)
# All parameters in cgs units
#
# Model Level      Optical Depth    Pressure         Temperature      Density          Number Density   Rad Flux         Conv Flux        Radial Extension Adiabatic Gradient
#                                   [Ba]             [K]              [g/cm^3]         [/cm^3]          [ergs/s/cm^2/sr] [ergs/s/cm^2/sr] [cm]             [K/Ba]          
  1                1.00000000E-07   1.00000000E-05   597.70444471     4.73977407E-10   1.21182346E+14   4.73555643E+08   0.00000000E+00   8.05881343E+06   0.29800255      
  2                1.25892541E-07   1.47461238E-05   606.15974860     6.89205840E-10   1.76204348E+14   4.73555643E+08   0.00000000E+00   7.97577348E+06   0.2979949       
  3                1.58489319E-07   2.10338272E-05   626.30285365     9.51365582E-10   2.43253865E+14   4.73555643E+08   0.00000000E+00   7.89812029E+06   0.29795721      
  4                1.99526231E-07   2.89169937E-05   627.06628212     1.30644397E-09   3.34014662E+14   4.73555643E+08   0.00000000E+00   7.82740840E+06   0.29793451      
  5                2.51188643E-07   3.86780942E-05   644.86062517     1.69907750E-09   4.34435240E+14   4.73555643E+08   0.00000000E+00   7.76189086E+06   0.29785385      
  6                3.16227766E-07   5.08431293E-05   644.89359997     2.23353633E-09   5.71044621E+14   4.73555643E+08   0.00000000E+00   7.69944270E+06   0.29782808      
  7                3.98107171E-07   6.59495339E-05   662.14597350     2.82144699E-09   7.21412773E+14   4.73555643E+08   0.00000000E+00   7.63926464E+06   0.2977063       
  8                5.01187234E-07   8.48300180E-05   662.21528261     3.62907477E-09   9.27846641E+14   4.73555643E+08   0.00000000E+00   7.58025989E+06   0.29767471      
  9                6.30957344E-07   1.08334290E-04   679.30676850     4.51765420E-09   1.15511664E+15   4.73555643E+08   0.00000000E+00   7.52221008E+06   0.29773024      
  10               7.94328235E-07   1.37733619E-04   679.58297490     5.74168693E-09   1.46799071E+15   4.73555643E+08   0.00000000E+00   7.46448457E+06   0.29770528      
  11               1.00000000E-06   1.74336474E-04   696.61366663     7.08938052E-09   1.81268402E+15   4.73555643E+08   0.00000000E+00   7.40711280E+06   0.29751953      
  12               1.25892541E-06   2.20053320E-04   697.08920301     8.94290855E-09   2.28646949E+15   4.73555643E+08   0.00000000E+00   7.34969605E+06   0.29748969      
  13               1.58489319E-06   2.76903542E-04   714.16709652     1.09834844E-08   2.80837122E+15   4.73555643E+08   0.00000000E+00   7.29233343E+06   0.29728566      
  14               1.99526231E-06   3.47774807E-04   714.86251114     1.37820172E-08   3.52372036E+15   4.73555643E+08   0.00000000E+00   7.23472991E+06   0.2972499       
  15               2.51188643E-06   4.35810595E-04   732.15288131     1.68619274E-08   4.31143505E+15   4.73555643E+08   0.00000000E+00   7.17697953E+06   0.29702722      
  16               3.16227766E-06   5.45395024E-04   733.09688128     2.10758683E-08   5.38859618E+15   4.73555643E+08   0.00000000E+00   7.11884860E+06   0.29698456      
  17               3.98107171E-06   6.81371108E-04   750.70420029     2.57114242E-08   6.57416664E+15   4.73555643E+08   0.00000000E+00   7.06043529E+06   0.29673834      
  18               5.01187234E-06   8.50351051E-04   751.87836170     3.20394763E-08   8.19174654E+15   4.73555643E+08   0.00000000E+00   7.00155990E+06   0.29668782      
  19               6.30957344E-06   1.05972008E-03   769.81769378     3.89955712E-08   9.97077959E+15   4.73555643E+08   0.00000000E+00   6.94232650E+06   0.29641705      
  20               7.94328235E-06   1.31955131E-03   771.20624202     4.84719476E-08   1.23931466E+16   4.73555643E+08   0.00000000E+00   6.88256208E+06   0.29635906      
  21               1.00000000E-05   1.64109471E-03   789.49494368     5.88841142E-08   1.50560182E+16   4.73555643E+08   0.00000000E+00   6.82237554E+06   0.29606184      
  22               1.25892541E-05   2.03957559E-03   791.12432441     7.30349877E-08   1.86732928E+16   4.73555643E+08   0.00000000E+00   6.76161146E+06   0.29599443      
  23               1.58489319E-05   2.53194096E-03   809.77044962     8.85745399E-08   2.26473551E+16   4.73555643E+08   0.00000000E+00   6.70039456E+06   0.29566799      
  24               1.99526231E-05   3.14081650E-03   811.57561490     1.09635823E-07   2.80310531E+16   4.73555643E+08   0.00000000E+00   6.63860691E+06   0.29559222      
  25               2.51188643E-05   3.89143480E-03   830.55810939     1.32728079E-07   3.39363847E+16   4.73555642E+08   0.00000000E+00   6.57638190E+06   0.2952378       
  26               3.16227766E-05   4.81705613E-03   832.44976522     1.63933716E-07   4.19130737E+16   4.73555643E+08   0.00000000E+00   6.51363077E+06   0.2951546       
  27               3.98107171E-05   5.95450938E-03   851.68265517     1.98062369E-07   5.06400377E+16   4.73555643E+08   0.00000000E+00   6.45050571E+06   0.29477153      
  28               5.01187234E-05   7.35255617E-03   853.63753221     2.44017294E-07   6.23865097E+16   4.73555643E+08   0.00000000E+00   6.38691200E+06   0.29468108      
  29               6.30957344E-05   9.06625769E-03   873.24730646     2.94122401E-07   7.51997928E+16   4.73555642E+08   0.00000000E+00   6.32294389E+06   0.29426828      
  30               7.94328235E-05   1.11676573E-02   875.32420979     3.61453589E-07   9.24100014E+16   4.73555643E+08   0.00000000E+00   6.25849401E+06   0.29416481      
  31               1.00000000E-04   1.37384271E-02   895.43752641     4.34653307E-07   1.11129040E+17   4.73555643E+08   0.00000000E+00   6.19363535E+06   0.29380167      
  32               1.25892541E-04   1.68874614E-02   897.88478338     5.32852220E-07   1.36229009E+17   4.73555642E+08   0.00000000E+00   6.12820096E+06   0.29367404      
  33               1.58489319E-04   2.07392915E-02   918.81133866     6.39458412E-07   1.63490834E+17   4.73555642E+08   0.00000000E+00   6.06221369E+06   0.29322755      
  34               1.99526231E-04   2.54596274E-02   921.89443451     7.82413738E-07   2.00030716E+17   4.73555647E+08   0.00000000E+00   5.99547898E+06   0.29310953      
  35               2.51188643E-04   3.12457625E-02   944.11677891     9.37588016E-07   2.39712814E+17   4.73555641E+08   0.00000000E+00   5.92792250E+06   0.29257905      
  36               3.16227766E-04   3.83647896E-02   948.39917462     1.14605965E-06   2.92999914E+17   4.73555637E+08   0.00000000E+00   5.85924513E+06   0.29232964      
  37               3.98107171E-04   4.71259655E-02   972.24305654     1.37319268E-06   3.51084172E+17   4.73555645E+08   0.00000000E+00   5.78940647E+06   0.29162343      
  38               5.01187234E-04   5.79490182E-02   978.09286331     1.67852775E-06   4.29132920E+17   4.73555648E+08   0.00000000E+00   5.71811759E+06   0.29138045      
  39               6.30957344E-04   7.13340326E-02   1004.20582064    2.01240945E-06   5.14517180E+17   4.73555641E+08   0.00000000E+00   5.64528939E+06   0.29071037      
  40               7.94328235E-04   8.79648519E-02   1012.38000904    2.46161942E-06   6.29348867E+17   4.73555640E+08   0.00000000E+00   5.57056777E+06   0.29038637      
  41               1.00000000E-03   1.08642490E-01   1041.36501969    2.95550343E-06   7.55653268E+17   4.73555640E+08   0.00000000E+00   5.49390613E+06   0.28948969      
  42               1.25892541E-03   1.34484114E-01   1052.72439390    3.61909393E-06   9.25299099E+17   4.73555648E+08   0.00000000E+00   5.41489200E+06   0.289035        
  43               1.58489319E-03   1.66788416E-01   1085.49158136    4.35273839E-06   1.11292337E+18   4.73555624E+08   0.00000000E+00   5.33349981E+06   0.28810188      
  44               1.99526231E-03   2.07338205E-01   1100.97236442    5.33495259E-06   1.36404518E+18   4.73555646E+08   0.00000000E+00   5.24935212E+06   0.28757878      
  45               2.51188643E-03   2.58136419E-01   1138.41264245    6.42329649E-06   1.64238666E+18   4.73555638E+08   0.00000000E+00   5.16257450E+06   0.28643117      
  46               3.16227766E-03   3.22008876E-01   1159.11051925    7.86958883E-06   2.01218930E+18   4.73555625E+08   0.00000000E+00   5.07273680E+06   0.28565981      
  47               3.98107171E-03   4.01993577E-01   1202.25750824    9.47139168E-06   2.42185119E+18   4.73555609E+08   0.00000000E+00   4.98009068E+06   0.28420538      
  48               5.01187234E-03   5.02157531E-01   1229.23552580    1.15716438E-05   2.95890292E+18   4.73555638E+08   0.00000000E+00   4.88441377E+06   0.28312396      
  49               6.30957344E-03   6.26460887E-01   1279.11244134    1.38727320E-05   3.54740748E+18   4.73555599E+08   0.00000000E+00   4.78630518E+06   0.28129235      
  50               7.94328235E-03   7.79697191E-01   1312.98626450    1.68205256E-05   4.30121970E+18   4.73555552E+08   0.00000000E+00   4.68599129E+06   0.27993297      
  51               1.00000000E-02   9.65435521E-01   1369.26507178    1.99710685E-05   5.10694973E+18   4.73555562E+08   0.00000000E+00   4.58465074E+06   0.278097        
  52               1.25892541E-02   1.18814976E+00   1408.77267343    2.38888783E-05   6.10880281E+18   4.73555346E+08   0.00000000E+00   4.48268599E+06   0.27671848      
  53               1.58489319E-02   1.45109266E+00   1469.49206389    2.79707982E-05   7.15243202E+18   4.73555594E+08   0.00000000E+00   4.38096394E+06   0.27448972      
  54               1.99526231E-02   1.75626561E+00   1512.75112190    3.28868815E-05   8.40908134E+18   4.73555634E+08   0.00000000E+00   4.28034361E+06   0.27277609      
  55               2.51188643E-02   2.09740089E+00   1576.10134821    3.77126005E-05   9.63880394E+18   4.73555439E+08   0.00000000E+00   4.18347104E+06   0.27045391      
  56               3.16227766E-02   2.45903108E+00   1620.38523452    4.30103290E-05   1.09918699E+19   4.73554082E+08   0.00000000E+00   4.09367860E+06   0.26876817      
  57               3.98107171E-02   2.82596515E+00   1681.81312785    4.76408115E-05   1.21706817E+19   4.73544402E+08   6.67866872E+04   4.01261458E+06   0.26640218      
  58               5.01187234E-02   3.15949891E+00   1732.27695427    5.17626888E-05   1.32107271E+19   4.69200195E+08   4.42215516E+06   3.94544444E+06   0.26439227      
  59               6.30957344E-02   3.44835021E+00   1772.69359946    5.52330792E-05   1.40897578E+19   4.63704222E+08   9.88168580E+06   3.89142227E+06   0.2626945       
  60               7.94328235E-02   3.71023234E+00   1806.96509872    5.83155300E-05   1.48722673E+19   4.57988220E+08   1.55639442E+07   3.84527664E+06   0.2611065       
  61               1.00000000E-01   3.93483652E+00   1834.84750695    6.09047065E-05   1.55329004E+19   4.52444921E+08   2.10989295E+07   3.80758887E+06   0.25970056      
  62               1.25892541E-01   4.19868768E+00   1865.94956509    6.39013104E-05   1.62981950E+19   4.45412172E+08   2.81086081E+07   3.76529485E+06   0.25836275      
  63               1.58489319E-01   4.40471181E+00   1889.11502110    6.62732231E-05   1.68882612E+19   4.38708834E+08   3.47484108E+07   3.73363203E+06   0.25743545      
  64               1.99526231E-01   4.55843868E+00   1905.86366605    6.79822193E-05   1.73240778E+19   4.32960022E+08   4.04624869E+07   3.71072951E+06   0.25666266      
  65               2.51188643E-01   4.74326305E+00   1925.36645800    7.00204220E-05   1.78438946E+19   4.26539625E+08   4.68870280E+07   3.68394095E+06   0.25579769      
  66               3.16227766E-01   4.96382121E+00   1947.85818906    7.24280437E-05   1.84579997E+19   4.19069756E+08   5.43628729E+07   3.65296978E+06   0.25472139      
  67               3.98107171E-01   5.22481124E+00   1973.38220841    7.52472988E-05   1.91772017E+19   4.10259145E+08   6.31793997E+07   3.61761685E+06   0.25349268      
  68               5.01187234E-01   5.53083167E+00   2002.01068303    7.85117487E-05   2.00101291E+19   4.00013921E+08   7.34286940E+07   3.57780264E+06   0.25198905      
  69               6.30957344E-01   5.88848048E+00   2033.75815944    8.22785983E-05   2.09715134E+19   3.88459794E+08   8.49886967E+07   3.53330402E+06   0.25031045      
  70               7.94328235E-01   6.30629738E+00   2068.86413327    8.66143558E-05   2.20784365E+19   3.75380380E+08   9.80772244E+07   3.48381050E+06   0.24831906      
  71               1.00000000E+00   6.79173627E+00   2107.13156594    9.15780065E-05   2.33461354E+19   3.60357085E+08   1.13110173E+08   3.42930440E+06   0.24610152      
  72               1.25892541E+00   7.35299247E+00   2148.55645671    9.72213150E-05   2.47880972E+19   3.43138308E+08   1.30338881E+08   3.36982232E+06   0.24354644      
  73               1.58489319E+00   7.99921773E+00   2192.81649304    1.03613487E-04   2.64223273E+19   3.23616746E+08   1.49869679E+08   3.30543553E+06   0.24078877      
  74               1.99526231E+00   8.74062904E+00   2239.89491039    1.10813851E-04   2.82644725E+19   3.01712169E+08   1.71781802E+08   3.23624347E+06   0.23761093      
  75               2.51188643E+00   9.58871785E+00   2289.32967277    1.18909322E-04   3.03373779E+19   2.77457968E+08   1.96041419E+08   3.16236140E+06   0.2341309       
  76               3.16227766E+00   1.05558941E+01   2341.09121284    1.27980213E-04   3.26589734E+19   2.51167677E+08   2.22334064E+08   3.08395663E+06   0.2302961       
  77               3.98107171E+00   1.16567967E+01   2394.66613021    1.38111156E-04   3.52581961E+19   2.23789924E+08   2.49710912E+08   3.00114962E+06   0.22627815      
  78               5.01187234E+00   1.29084321E+01   2450.15442513    1.49405554E-04   3.81597813E+19   1.96282614E+08   2.77213662E+08   2.91401618E+06   0.22199395      
  79               6.30957344E+00   1.43294941E+01   2506.97722935    1.62002013E-04   4.14005689E+19   1.69574529E+08   3.03913196E+08   2.82267325E+06   0.21759444      
  80               7.94328235E+00   1.59415793E+01   2565.31651348    1.76010343E-04   4.50107476E+19   1.44822344E+08   3.28654416E+08   2.72720367E+06   0.21296606      
  81               1.00000000E+01   1.77691643E+01   2624.53456368    1.91612581E-04   4.90388804E+19   1.22998195E+08   3.50465933E+08   2.62768526E+06   0.20830624      
  82               1.25892541E+01   1.98399179E+01   2684.94183851    2.08940454E-04   5.35218145E+19   1.04374172E+08   3.69077071E+08   2.52419178E+06   0.20369273      
  83               1.58489319E+01   2.21848379E+01   2745.92700606    2.28213271E-04   5.85184899E+19   8.85643446E+07   3.84875899E+08   2.41680404E+06   0.19892521      
  84               1.99526231E+01   2.48385891E+01   2807.69631838    2.49602675E-04   6.40770679E+19   7.52492014E+07   3.98183025E+08   2.30561186E+06   0.19443531      
  85               2.51188643E+01   2.78393799E+01   2869.87836365    2.73345325E-04   7.02622263E+19   6.39110601E+07   4.09517410E+08   2.19072644E+06   0.1901735       
  86               3.16227766E+01   3.12290922E+01   2932.66121890    2.99637708E-04   7.71299950E+19   5.42767622E+07   4.19153110E+08   2.07228083E+06   0.1860631       
  87               3.98107171E+01   3.50531709E+01   2995.60515014    3.28753683E-04   8.47556349E+19   4.61082494E+07   4.27331177E+08   1.95043693E+06   0.18221592      
  88               5.01187234E+01   3.93603887E+01   3058.97959809    3.60895022E-04   9.31984389E+19   3.90961355E+07   4.34363898E+08   1.82538741E+06   0.17849758      
  89               6.30957344E+01   4.41983105E+01   3122.17482788    3.96340861E-04   1.02535509E+20   3.30068956E+07   4.40482727E+08   1.69746549E+06   0.17503702      
  90               7.94328235E+01   4.96174613E+01   3185.53658697    4.35253287E-04   1.12817840E+20   2.77757183E+07   4.45749547E+08   1.56698759E+06   0.17191556      
  91               1.00000000E+02   5.56730918E+01   3248.56427118    4.77939749E-04   1.24130846E+20   2.32723154E+07   4.50293949E+08   1.43421364E+06   0.16903018      
  92               1.25892541E+02   6.24263867E+01   3311.63100430    5.24601136E-04   1.36537548E+20   1.94884195E+07   4.54122671E+08   1.29934044E+06   0.16642132      
  93               1.58489319E+02   6.99442124E+01   3374.31873392    5.75598400E-04   1.50138309E+20   1.63441502E+07   4.57313134E+08   1.16252700E+06   0.16414909      
  94               1.99526231E+02   7.83007034E+01   3437.12155310    6.31152808E-04   1.65004813E+20   1.37322443E+07   4.59971852E+08   1.02388084E+06   0.16209161      
  95               2.51188643E+02   8.75795487E+01   3499.57647726    6.91727812E-04   1.81264624E+20   1.15381538E+07   4.62212791E+08   8.83447659E+05   0.16027243      
  96               3.16227766E+02   9.78755779E+01   3562.27610041    7.57602981E-04   1.99008947E+20   9.70026454E+06   4.64096201E+08   7.41217401E+05   0.15867276      
  97               3.98107171E+02   1.09296366E+02   3624.77538268    8.29364638E-04   2.18398908E+20   8.13908142E+06   4.65700595E+08   5.97134342E+05   0.1572337       
  98               5.01187234E+02   1.21964640E+02   3687.68234667    9.07387619E-04   2.39555571E+20   6.82588256E+06   4.67053545E+08   4.51098733E+05   0.15594941      
  99               6.30957344E+02   1.36019151E+02   3750.55968247    9.92409580E-04   2.62681701E+20   5.72837641E+06   4.68185571E+08   3.02988822E+05   0.15486939      
  100              7.94328235E+02   1.51615576E+02   3814.08881442    1.08487621E-03   2.87924657E+20   4.82047274E+06   4.69121492E+08   1.52674654E+05   0.15393643      
  101              1.00000000E+03   1.68931127E+02   3877.78329905    1.18571186E-03   3.15538229E+20   4.39502239E+06   4.69577814E+08   0.00000000E+00   0.15314272      
