# ATMO pressure-temperature profile
# Effective temperature = 700.0K
# log(g) = 4.0cm/s^2
# M/H = 0.0
# Optical depth grid in band 17 (1.20-1.33microns)
# All parameters in cgs units
#
# Model Level      Optical Depth    Pressure         Temperature      Density          Number Density   Rad Flux         Conv Flux        Radial Extension Adiabatic Gradient
#                                   [Ba]             [K]              [g/cm^3]         [/cm^3]          [ergs/s/cm^2/sr] [ergs/s/cm^2/sr] [cm]             [K/Ba]          
  1                5.00000000E-05   1.00000000E-05   165.31794571     1.70829023E-09   4.38132873E+14   1.36211774E+07   0.00000000E+00   4.03708895E+07   0.3173875       
  2                5.91534807E-05   5.94388573E-05   199.74666063     8.43709296E-09   2.15534484E+15   1.36211774E+07   0.00000000E+00   3.90679692E+07   0.31395338      
  3                6.99826855E-05   1.12434980E-04   211.02980853     1.50944067E-08   3.85907733E+15   1.36211774E+07   0.00000000E+00   3.85985424E+07   0.31398854      
  4                8.27943887E-05   1.75087694E-04   222.58078161     2.23033382E-08   5.69762418E+15   1.36211774E+07   0.00000000E+00   3.82570411E+07   0.31201926      
  5                9.79515255E-05   2.47434415E-04   226.27260719     3.10048784E-08   7.92052487E+15   1.36211774E+07   0.00000000E+00   3.79819232E+07   0.31129448      
  6                1.15883473E-04   3.32277841E-04   235.93498113     3.99310706E-08   1.02008153E+16   1.36211774E+07   0.00000000E+00   3.77407952E+07   0.3098521       
  7                1.37098216E-04   4.31821056E-04   238.79202188     5.12726675E-08   1.30981464E+16   1.36211774E+07   0.00000000E+00   3.75207999E+07   0.30936469      
  8                1.62196734E-04   5.48688950E-04   247.66285710     6.28155614E-08   1.60469011E+16   1.36211774E+07   0.00000000E+00   3.73148704E+07   0.30830106      
  9                1.91890027E-04   6.85901191E-04   250.34248039     7.76835236E-08   1.98450796E+16   1.36211774E+07   0.00000000E+00   3.71184463E+07   0.30753725      
  10               2.27019260E-04   8.47034182E-04   259.04371572     9.27106841E-08   2.36839271E+16   1.36211774E+07   0.00000000E+00   3.69285768E+07   0.30690167      
  11               2.68579588E-04   1.03624641E-03   261.72928047     1.12256795E-07   2.86771884E+16   1.36211774E+07   0.00000000E+00   3.67431050E+07   0.30608249      
  12               3.17748350E-04   1.25847794E-03   270.19261435     1.32060837E-07   3.37363407E+16   1.36211773E+07   0.00000000E+00   3.65605842E+07   0.30573051      
  13               3.75918418E-04   1.51948310E-03   272.75103000     1.57954275E-07   4.03510941E+16   1.36211773E+07   0.00000000E+00   3.63798683E+07   0.30492354      
  14               4.44737657E-04   1.82607947E-03   281.07129669     1.84206557E-07   4.70575179E+16   1.36211773E+07   0.00000000E+00   3.62001266E+07   0.30474356      
  15               5.26155608E-04   2.18623622E-03   283.46232855     2.18677270E-07   5.58634271E+16   1.36211773E+07   0.00000000E+00   3.60206792E+07   0.30399316      
  16               6.22478712E-04   2.60935184E-03   291.68446962     2.53642044E-07   6.47955494E+16   1.36211773E+07   0.00000000E+00   3.58410212E+07   0.30391191      
  17               7.36435649E-04   3.10637997E-03   294.08649157     2.99489367E-07   7.65077342E+16   1.36211772E+07   0.00000000E+00   3.56606864E+07   0.30323167      
  18               8.71254639E-04   3.69018337E-03   302.62163135     3.45740205E-07   8.83230014E+16   1.36211771E+07   0.00000000E+00   3.54792598E+07   0.30318191      
  19               1.03075489E-03   4.37576330E-03   305.26484447     4.06423615E-07   1.03825222E+17   1.36211769E+07   0.00000000E+00   3.52963682E+07   0.30256868      
  20               1.21945479E-03   5.18066036E-03   314.25522504     4.67417013E-07   1.19406633E+17   1.36211767E+07   0.00000000E+00   3.51116972E+07   0.3025342       
  21               1.44269991E-03   6.12529604E-03   317.27859459     5.47379101E-07   1.39833797E+17   1.36211763E+07   0.00000000E+00   3.49249441E+07   0.30198433      
  22               1.70681442E-03   7.23369672E-03   326.83575592     6.27527310E-07   1.60308509E+17   1.36211758E+07   0.00000000E+00   3.47358245E+07   0.30196019      
  23               2.01928028E-03   8.53387938E-03   330.25282560     7.32658933E-07   1.87165499E+17   1.36211751E+07   0.00000000E+00   3.45440738E+07   0.30147589      
  24               2.38894914E-03   1.00586503E-02   340.31442269     8.38033236E-07   2.14084485E+17   1.36211741E+07   0.00000000E+00   3.43494826E+07   0.30146361      
  25               2.82629313E-03   1.18460175E-02   344.23852419     9.75696583E-07   2.49252050E+17   1.36211728E+07   0.00000000E+00   3.41518194E+07   0.30104525      
  26               3.34370152E-03   1.39408443E-02   354.99091347     1.11345764E-06   2.84444591E+17   1.36211714E+07   0.00000000E+00   3.39508389E+07   0.30107925      
  27               3.95583167E-03   1.63954556E-02   359.57438115     1.29281580E-06   3.30263507E+17   1.36211700E+07   0.00000000E+00   3.37462521E+07   0.30067859      
  28               4.68002425E-03   1.92713300E-02   371.11471789     1.47233087E-06   3.76122532E+17   1.36211690E+07   0.00000000E+00   3.35378036E+07   0.30065179      
  29               5.53679448E-03   2.26396298E-02   376.55542676     1.70467780E-06   4.35478031E+17   1.36211685E+07   0.00000000E+00   3.33251920E+07   0.30033918      
  30               6.55041330E-03   2.65845791E-02   389.22697663     1.93654956E-06   4.94712284E+17   1.36211684E+07   0.00000000E+00   3.31080689E+07   0.30037974      
  31               7.74959494E-03   3.12050612E-02   395.90531333     2.23478547E-06   5.70899350E+17   1.36211683E+07   0.00000000E+00   3.28859654E+07   0.30014885      
  32               9.16831029E-03   3.66213228E-02   410.01690398     2.53241270E-06   6.46931212E+17   1.36211677E+07   0.00000000E+00   3.26582907E+07   0.30015213      
  33               1.08467493E-02   4.29768908E-02   418.28218166     2.91318342E-06   7.44203089E+17   1.36211662E+07   0.00000000E+00   3.24242973E+07   0.29988783      
  34               1.28324595E-02   5.04568605E-02   434.30393951     3.29403561E-06   8.41496464E+17   1.36211634E+07   0.00000000E+00   3.21828332E+07   0.29986397      
  35               1.51816929E-02   5.92954087E-02   444.88248400     3.77905484E-06   9.65387340E+17   1.36211582E+07   0.00000000E+00   3.19323217E+07   0.299675        
  36               1.79609996E-02   6.98147775E-02   463.28175169     4.27281143E-06   1.09151072E+18   1.36211477E+07   0.00000000E+00   3.16705371E+07   0.2996744       
  37               2.12491128E-02   8.24354280E-02   476.37761872     4.90656735E-06   1.25339624E+18   1.36211305E+07   0.00000000E+00   3.13948993E+07   0.29954075      
  38               2.51391797E-02   9.77345526E-02   497.72519086     5.56770497E-06   1.42227752E+18   1.36211054E+07   0.00000000E+00   3.11021856E+07   0.29952264      
  39               2.97413996E-02   1.16447767E-01   514.22621380     6.42091166E-06   1.64022261E+18   1.36210717E+07   0.00000000E+00   3.07892065E+07   0.2993001       
  40               3.51861462E-02   1.39539925E-01   539.33817074     7.33587745E-06   1.87397230E+18   1.36210304E+07   0.00000000E+00   3.04527399E+07   0.29925664      
  41               4.16276604E-02   1.68158063E-01   559.94321875     8.51498254E-06   2.17520176E+18   1.36209821E+07   0.00000000E+00   3.00906428E+07   0.29902831      
  42               4.92484201E-02   2.03616412E-01   589.47495689     9.79383248E-06   2.50191908E+18   1.36209260E+07   0.00000000E+00   2.97023566E+07   0.298946        
  43               5.82643093E-02   2.47226684E-01   614.45244249     1.14079703E-05   2.91429096E+18   1.36208626E+07   0.00000000E+00   2.92897754E+07   0.29855313      
  44               6.89307339E-02   3.00272022E-01   647.90473893     1.31401838E-05   3.35683157E+18   1.36208176E+07   0.00000000E+00   2.88565205E+07   0.29844511      
  45               8.15498567E-02   3.63984668E-01   676.51945924     1.52544988E-05   3.89698413E+18   1.36208241E+07   0.00000000E+00   2.84065059E+07   0.29792946      
  46               9.64791575E-02   4.39458306E-01   713.40256217     1.74653198E-05   4.46178719E+18   1.36209095E+07   0.00000000E+00   2.79441154E+07   0.29768618      
  47               1.14141560E-01   5.27576698E-01   745.49080152     2.00648707E-05   5.12588851E+18   1.36210925E+07   0.00000000E+00   2.74733975E+07   0.29684017      
  48               1.35037411E-01   6.29124062E-01   785.69095049     2.27026921E-05   5.79976484E+18   1.36213734E+07   0.00000000E+00   2.69976106E+07   0.29648188      
  49               1.59758657E-01   7.45131301E-01   821.40414402     2.57198778E-05   6.57055050E+18   1.36217018E+07   0.00000000E+00   2.65175318E+07   0.29535168      
  50               1.89005613E-01   8.76557032E-01   866.27743510     2.86890863E-05   7.32907246E+18   1.35018182E+07   1.20171034E+05   2.60337065E+07   0.29485881      
  51               2.23606798E-01   1.02466339E+00   902.29893205     3.21978312E-05   8.22539222E+18   1.33547829E+07   2.67369096E+05   2.55463987E+07   0.29333854      
  52               2.64542408E-01   1.19094059E+00   947.77165357     3.56272592E-05   9.10148421E+18   1.32039353E+07   4.18160371E+05   2.50554562E+07   0.29276868      
  53               3.12972084E-01   1.37773228E+00   984.00251964     3.96974535E-05   1.01413194E+19   1.31241619E+07   4.97528706E+05   2.45587627E+07   0.2909516       
  54               3.70267763E-01   1.58868167E+00   1030.66107714    4.37026148E-05   1.11646946E+19   1.31392752E+07   4.81813840E+05   2.40522970E+07   0.29036135      
  55               4.38052539E-01   1.82877296E+00   1068.34032816    4.85313698E-05   1.23986959E+19   1.32931382E+07   3.27153233E+05   2.35309581E+07   0.28807991      
  56               5.18246648E-01   2.10510800E+00   1117.71309450    5.33938778E-05   1.36417436E+19   1.35586363E+07   6.06487084E+04   2.29880946E+07   0.2875078       
  57               6.13121862E-01   2.42646485E+00   1158.83006275    5.93570001E-05   1.51663157E+19   1.36182376E+07   0.00000000E+00   2.24172499E+07   0.28488539      
  58               7.25365844E-01   2.80602847E+00   1205.50335863    6.59790371E-05   1.68596862E+19   1.36172272E+07   0.00000000E+00   2.18107109E+07   0.28448126      
  59               8.58158289E-01   3.25900870E+00   1243.31703969    7.42936295E-05   1.89858250E+19   1.36163611E+07   0.00000000E+00   2.11637010E+07   0.28192211      
  60               1.01526100E+00   3.80174532E+00   1287.35378222    8.36948891E-05   2.13900080E+19   1.36156367E+07   0.00000000E+00   2.04754086E+07   0.28166766      
  61               1.20112443E+00   4.45081615E+00   1322.77857033    9.53538060E-05   2.43712803E+19   1.36150920E+07   0.00000000E+00   1.97488353E+07   0.27913833      
  62               1.42101382E+00   5.22201560E+00   1365.30287244    1.08384926E-04   2.77035230E+19   1.36146786E+07   0.00000000E+00   1.89902259E+07   0.27899327      
  63               1.68115827E+00   6.12892364E+00   1399.76346068    1.24070633E-04   3.17143195E+19   1.36143772E+07   0.00000000E+00   1.82081528E+07   0.27639339      
  64               1.98892727E+00   7.18479352E+00   1442.49293075    1.41131542E-04   3.60766695E+19   1.36141957E+07   0.00000000E+00   1.74102182E+07   0.27628583      
  65               2.35303941E+00   8.40339666E+00   1477.93107061    1.61105978E-04   4.11838102E+19   1.36140458E+07   0.00000000E+00   1.66020590E+07   0.27350913      
  66               2.78380943E+00   9.79884085E+00   1522.74297508    1.82328377E-04   4.66094458E+19   1.36139550E+07   0.00000000E+00   1.57878548E+07   0.27342311      
  67               3.29344035E+00   1.13751875E+01   1561.21455517    2.06458779E-04   5.27742186E+19   1.36138647E+07   0.00000000E+00   1.49753693E+07   0.27057464      
  68               3.89636920E+00   1.31222900E+01   1609.96259783    2.30976087E-04   5.90363750E+19   1.36138167E+07   0.00000000E+00   1.41753017E+07   0.27043861      
  69               4.60967600E+00   1.50060650E+01   1653.16510381    2.57259623E-04   6.57470747E+19   1.36137484E+07   0.00000000E+00   1.34024995E+07   0.26744011      
  70               5.45356761E+00   1.69754948E+01   1706.35199121    2.82010516E-04   7.20575774E+19   1.36136903E+07   0.00000000E+00   1.26713037E+07   0.26722698      
  71               6.45195012E+00   1.89527564E+01   1754.02554331    3.06431667E-04   7.82640481E+19   1.27629558E+07   8.48868826E+05   1.19986648E+07   0.26398999      
  72               7.63310614E+00   2.08624615E+01   1801.80246161    3.28484728E-04   8.38656682E+19   1.12830376E+07   2.32774716E+06   1.13967213E+07   0.26394998      
  73               9.03049593E+00   2.26453182E+01   1838.40397667    3.49582871E-04   8.92202256E+19   9.85576629E+06   3.75465362E+06   1.08705870E+07   0.26065224      
  74               1.06837053E+01   2.43765715E+01   1876.41645534    3.68805328E-04   9.40955813E+19   8.64989150E+06   4.96097216E+06   1.03884187E+07   0.2613693       
  75               1.26395671E+01   2.59652552E+01   1905.32958329    3.86994363E-04   9.87070845E+19   7.40448757E+06   6.20759818E+06   9.96788670E+06   0.25815044      
  76               1.49534878E+01   2.73271749E+01   1932.58816143    4.01572982E-04   1.02419172E+20   6.45290859E+06   7.16152092E+06   9.62240717E+06   0.25932752      
  77               1.76910170E+01   2.85972186E+01   1953.63813574    4.15727019E-04   1.06024324E+20   5.73566792E+06   7.88162447E+06   9.31156741E+06   0.25591661      
  78               2.09297047E+01   2.98499359E+01   1976.75783391    4.28882011E-04   1.09374423E+20   5.28144147E+06   8.33915056E+06   9.01489014E+06   0.25750797      
  79               2.47612977E+01   3.11116854E+01   1996.49827464    4.42611888E-04   1.12870497E+20   4.81826904E+06   8.80564253E+06   8.72529122E+06   0.25383268      
  80               2.92943389E+01   3.24443000E+01   2019.02191502    4.56409152E-04   1.16392023E+20   4.51794227E+06   9.10825586E+06   8.42879716E+06   0.25586543      
  81               3.46572422E+01   3.37993725E+01   2039.27769439    4.70815690E-04   1.20048879E+20   4.02365447E+06   9.60088609E+06   8.13647002E+06   0.25227653      
  82               4.10019301E+01   3.50215595E+01   2058.33451192    4.83392254E-04   1.23238205E+20   3.61238974E+06   1.00080083E+07   7.88027446E+06   0.25366282      
  83               4.85081376E+01   3.61824238E+01   2074.82787921    4.95515589E-04   1.26311072E+20   3.25382529E+06   1.03630136E+07   7.64307583E+06   0.25072532      
  84               5.73885036E+01   3.73240845E+01   2091.45970334    5.07157316E-04   1.29260402E+20   3.02171449E+06   1.05923398E+07   7.41533219E+06   0.25172619      
  85               6.78945948E+01   3.84741649E+01   2107.15297348    5.18967220E-04   1.32251004E+20   2.80251785E+06   1.08094484E+07   7.19115258E+06   0.249122        
  86               8.03240320E+01   3.96980978E+01   2123.83701117    5.31257233E-04   1.35386185E+20   2.68915297E+06   1.09219973E+07   6.95805631E+06   0.24955499      
  87               9.50289215E+01   4.10913698E+01   2142.04587139    5.45212925E-04   1.38946526E+20   2.57538360E+06   1.10357183E+07   6.69917508E+06   0.24750798      
  88               1.12425830E+02   4.26740867E+01   2162.17904857    5.60922424E-04   1.42954694E+20   2.47866890E+06   1.11324082E+07   6.41297555E+06   0.24729973      
  89               1.33007583E+02   4.44663328E+01   2184.27064666    5.78546823E-04   1.47452012E+20   2.36162678E+06   1.12494482E+07   6.09836216E+06   0.24546427      
  90               1.57357229E+02   4.64893332E+01   2208.10807509    5.98311245E-04   1.52496133E+20   2.24828815E+06   1.13628723E+07   5.75451661E+06   0.244623        
  91               1.86164557E+02   4.87656506E+01   2234.14669645    6.20259802E-04   1.58098655E+20   2.12731727E+06   1.14837515E+07   5.38085135E+06   0.24298989      
  92               2.20245630E+02   5.13194570E+01   2261.78678209    6.44725236E-04   1.64344900E+20   1.99405441E+06   1.16170176E+07   4.97700681E+06   0.24047343      
  93               2.60565913E+02   5.41766915E+01   2291.40069407    6.71789056E-04   1.71252642E+20   1.87036377E+06   1.17407084E+07   4.54285139E+06   0.23917255      
  94               3.08267614E+02   5.73652351E+01   2322.84240806    7.01653191E-04   1.78877152E+20   1.73546082E+06   1.18756344E+07   4.07842394E+06   0.2363584       
  95               3.64702046E+02   6.09156291E+01   2355.78481025    7.34602958E-04   1.87291883E+20   1.60899853E+06   1.20021014E+07   3.58389433E+06   0.23431959      
  96               4.31467909E+02   6.48608424E+01   2390.65548539    7.70698249E-04   1.96513065E+20   1.48673016E+06   1.21243899E+07   3.05956346E+06   0.23189401      
  97               5.10456573E+02   6.92368814E+01   2426.78358667    8.10358477E-04   2.06648515E+20   1.37078864E+06   1.22403546E+07   2.50582589E+06   0.2298164       
  98               6.03905660E+02   7.40830111E+01   2464.82321585    8.53567716E-04   2.17700131E+20   1.25846363E+06   1.23527228E+07   1.92313462E+06   0.22713671      
  99               7.14462436E+02   7.94416930E+01   2503.76576825    9.00917255E-04   2.29816197E+20   1.15117648E+06   1.24600257E+07   1.31205510E+06   0.22453293      
  100              8.45258798E+02   8.53910741E+01   2544.70923144    9.52642454E-04   2.43052533E+20   1.05070519E+06   1.25604951E+07   6.69869972E+05   0.22191418      
  101              1.00000000E+03   9.19590788E+01   2586.39926752    1.00915749E-03   2.57528254E+20   9.94595556E+05   1.26165495E+07   0.00000000E+00   0.2192944       
