# ATMO pressure-temperature profile
# Effective temperature = 2300.0K
# log(g) = 5.0cm/s^2
# M/H = 0.0
# Optical depth grid in band 17 (1.20-1.33microns)
# All parameters in cgs units
#
# Model Level      Optical Depth    Pressure         Temperature      Density          Number Density   Rad Flux         Conv Flux        Radial Extension Adiabatic Gradient
#                                   [Ba]             [K]              [g/cm^3]         [/cm^3]          [ergs/s/cm^2/sr] [ergs/s/cm^2/sr] [cm]             [K/Ba]          
  1                1.00000000E-08   1.00000000E-05   677.89152042     4.17798728E-10   1.06847813E+14   1.58589859E+09   0.00000000E+00   9.80061302E+06   0.29758895      
  2                1.28824955E-08   1.09530443E-05   686.56758754     4.51833949E-10   1.15551979E+14   1.58589859E+09   0.00000000E+00   9.77867789E+06   0.29737925      
  3                1.65958691E-08   1.21690853E-05   694.16617237     4.96504063E-10   1.26975616E+14   1.58589859E+09   0.00000000E+00   9.75300365E+06   0.29736516      
  4                2.13796209E-08   1.37209053E-05   701.23711180     5.54173810E-10   1.41724102E+14   1.58589859E+09   0.00000000E+00   9.72341965E+06   0.29714347      
  5                2.75422870E-08   1.57007943E-05   708.42056921     6.27712183E-10   1.60530035E+14   1.58589859E+09   0.00000000E+00   9.68985070E+06   0.29713039      
  6                3.54813389E-08   1.82259319E-05   715.56239110     7.21393376E-10   1.84487980E+14   1.58589859E+09   0.00000000E+00   9.65232587E+06   0.29687802      
  7                4.57088190E-08   2.14446390E-05   723.16868749     8.39871282E-10   2.14785503E+14   1.58589859E+09   0.00000000E+00   9.61097457E+06   0.29685067      
  8                5.88843655E-08   2.55445256E-05   731.03221817     9.89679493E-10   2.53097097E+14   1.58589859E+09   0.00000000E+00   9.56600505E+06   0.29655373      
  9                7.58577575E-08   3.07615554E-05   739.58218730     1.17805381E-09   3.01264312E+14   1.58589859E+09   0.00000000E+00   9.51768870E+06   0.29649759      
  10               9.77237221E-08   3.73937933E-05   748.50459844     1.41497344E-09   3.61851927E+14   1.58589859E+09   0.00000000E+00   9.46631943E+06   0.29614365      
  11               1.25892541E-07   4.58189164E-05   758.11560675     1.71179823E-09   4.37759134E+14   1.58589859E+09   0.00000000E+00   9.41218472E+06   0.29604931      
  12               1.62181010E-07   5.65153880E-05   768.04625821     2.08411891E-09   5.32972959E+14   1.58589859E+09   0.00000000E+00   9.35555387E+06   0.29563509      
  13               2.08929613E-07   7.00905293E-05   778.58135329     2.54975505E-09   6.52050423E+14   1.58589859E+09   0.00000000E+00   9.29666491E+06   0.295501        
  14               2.69153480E-07   8.73125673E-05   789.35706622     3.13289863E-09   8.01178150E+14   1.58589859E+09   0.00000000E+00   9.23573056E+06   0.29502986      
  15               3.46736850E-07   1.09153060E-04   800.63342292     3.86140411E-09   9.87479392E+14   1.58589859E+09   0.00000000E+00   9.17293678E+06   0.29579122      
  16               4.46683592E-07   1.36839464E-04   812.06469465     4.77269587E-09   1.22052470E+15   1.58589859E+09   0.00000000E+00   9.10844386E+06   0.29544874      
  17               5.75439937E-07   1.71919687E-04   823.99560726     5.90940447E-09   1.51121604E+15   1.58589859E+09   0.00000000E+00   9.04238841E+06   0.29531307      
  18               7.41310241E-07   2.16341349E-04   836.14048298     7.32830036E-09   1.87407135E+15   1.58589859E+09   0.00000000E+00   8.97488568E+06   0.29493375      
  19               9.54992586E-07   2.72549013E-04   848.89400341     9.09356348E-09   2.32550345E+15   1.58589859E+09   0.00000000E+00   8.90603205E+06   0.29476669      
  20               1.23026877E-06   3.43602574E-04   861.98334960     1.12901695E-08   2.88724322E+15   1.58589859E+09   0.00000000E+00   8.83590774E+06   0.29433942      
  21               1.58489319E-06   4.33323917E-04   875.78113204     1.40139313E-08   3.58379299E+15   1.58589859E+09   0.00000000E+00   8.76457884E+06   0.29413503      
  22               2.04173794E-06   5.46477480E-04   889.95001234     1.73920006E-08   4.44766938E+15   1.58589859E+09   0.00000000E+00   8.69209962E+06   0.29365138      
  23               2.63026799E-06   6.88991306E-04   904.83319291     2.15669175E-08   5.51532434E+15   1.58589859E+09   0.00000000E+00   8.61851481E+06   0.2934047       
  24               3.38844156E-06   8.68227337E-04   920.06793865     2.67273804E-08   6.83501384E+15   1.58589859E+09   0.00000000E+00   8.54386081E+06   0.29286203      
  25               4.36515832E-06   1.09342428E-03   935.95840523     3.30883400E-08   8.46170745E+15   1.58589859E+09   0.00000000E+00   8.46813449E+06   0.2925722       
  26               5.62341325E-06   1.37633878E-03   952.12556442     4.09424582E-08   1.04702478E+16   1.58589859E+09   0.00000000E+00   8.39126911E+06   0.29197141      
  27               7.24435960E-06   1.73166859E-03   968.92633443     5.06193763E-08   1.29449345E+16   1.58589858E+09   0.00000000E+00   8.31321671E+06   0.29163765      
  28               9.33254301E-06   2.17774920E-03   985.95326711     6.25596465E-08   1.59984303E+16   1.58589858E+09   0.00000000E+00   8.23394690E+06   0.29098084      
  29               1.20226443E-05   2.73741140E-03   1003.55968490    7.72573131E-08   1.97570776E+16   1.58589858E+09   0.00000000E+00   8.15344446E+06   0.29060445      
  30               1.54881662E-05   3.43902305E-03   1021.35801585    9.53673694E-08   2.43883784E+16   1.58589858E+09   0.00000000E+00   8.07170588E+06   0.28989449      
  31               1.99526231E-05   4.31776786E-03   1039.72750300    1.17620348E-07   3.00791526E+16   1.58589858E+09   0.00000000E+00   7.98873577E+06   0.28947737      
  32               2.57039578E-05   5.41718634E-03   1058.24664992    1.44987165E-07   3.70776937E+16   1.58589858E+09   0.00000000E+00   7.90454644E+06   0.28871641      
  33               3.31131121E-05   6.79110769E-03   1077.28580418    1.78546913E-07   4.56599593E+16   1.58589859E+09   0.00000000E+00   7.81915371E+06   0.288261        
  34               4.26579519E-05   8.50595415E-03   1096.47534838    2.19718595E-07   5.61888321E+16   1.58589860E+09   0.00000000E+00   7.73257409E+06   0.28745241      
  35               5.49540874E-05   1.06435788E-02   1116.12345480    2.70095950E-07   6.90718813E+16   1.58589861E+09   0.00000000E+00   7.64482573E+06   0.28612242      
  36               7.07945784E-05   1.33052515E-02   1135.93129747    3.31752062E-07   8.48392584E+16   1.58589863E+09   0.00000000E+00   7.55590790E+06   0.28510095      
  37               9.12010839E-05   1.66199094E-02   1156.32817238    4.07089710E-07   1.04105431E+17   1.58589865E+09   0.00000000E+00   7.46571199E+06   0.28452063      
  38               1.17489755E-04   2.07472441E-02   1177.07609992    4.99227438E-07   1.27667900E+17   1.58589867E+09   0.00000000E+00   7.37415839E+06   0.28367377      
  39               1.51356125E-04   2.58831982E-02   1198.69709578    6.11576824E-07   1.56399127E+17   1.58589870E+09   0.00000000E+00   7.28120903E+06   0.28339428      
  40               1.94984460E-04   3.22666777E-02   1221.14065753    7.48395550E-07   1.91387866E+17   1.58589873E+09   0.00000000E+00   7.18685371E+06   0.28281657      
  41               2.51188643E-04   4.01878388E-02   1244.72430464    9.14458695E-07   2.33855356E+17   1.58589877E+09   0.00000000E+00   7.09110317E+06   0.28242107      
  42               3.23593657E-04   4.99948077E-02   1269.36142510    1.11553458E-06   2.85276138E+17   1.58589881E+09   0.00000000E+00   6.99400492E+06   0.28153868      
  43               4.16869383E-04   6.21043993E-02   1295.58207038    1.35769122E-06   3.47202845E+17   1.58589886E+09   0.00000000E+00   6.89560663E+06   0.28075367      
  44               5.37031796E-04   7.69953893E-02   1323.36012275    1.64791789E-06   4.21417450E+17   1.58589891E+09   0.00000000E+00   6.79605323E+06   0.2794248       
  45               6.91830971E-04   9.52263886E-02   1353.07132868    1.99336503E-06   5.09756136E+17   1.58589897E+09   0.00000000E+00   6.69546444E+06   0.27846265      
  46               8.91250938E-04   1.17307311E-01   1384.72614306    2.39964676E-06   6.13602369E+17   1.58589901E+09   0.00000000E+00   6.59450297E+06   0.27734047      
  47               1.14815362E-03   1.43959918E-01   1418.70628074    2.87429021E-06   7.34979012E+17   1.58589906E+09   0.00000000E+00   6.49301811E+06   0.27632394      
  48               1.47910839E-03   1.75080337E-01   1455.11757875    3.40969270E-06   8.71495454E+17   1.58589904E+09   0.00000000E+00   6.39360227E+06   0.27463782      
  49               1.90546072E-03   2.11003844E-01   1494.21970626    4.00192009E-06   1.02282597E+18   1.58589893E+09   0.00000000E+00   6.29635236E+06   0.27314967      
  50               2.45470892E-03   2.52855274E-01   1535.74748190    4.66633703E-06   1.19255397E+18   1.58589857E+09   0.00000000E+00   6.19950436E+06   0.27116451      
  51               3.16227766E-03   2.98943245E-01   1579.17730925    5.36707255E-06   1.37114596E+18   1.58589809E+09   0.00000000E+00   6.10740735E+06   0.2694205       
  52               4.07380278E-03   3.44969482E-01   1622.37736873    6.03256934E-06   1.54012027E+18   1.58589782E+09   0.00000000E+00   6.02651522E+06   0.26733361      
  53               5.24807460E-03   3.88550550E-01   1663.77788456    6.63239359E-06   1.69152344E+18   1.58589860E+09   0.00000000E+00   5.95761162E+06   0.26554865      
  54               6.76082975E-03   4.29127041E-01   1702.95242296    7.15601764E-06   1.82519473E+18   1.58590112E+09   0.00000000E+00   5.89871313E+06   0.26346588      
  55               8.70963590E-03   4.65731723E-01   1733.68287879    7.63578358E-06   1.94577223E+18   1.58590520E+09   0.00000000E+00   5.84918662E+06   0.26195628      
  56               1.12201845E-02   4.95552414E-01   1761.27487578    7.99716395E-06   2.03792546E+18   1.58590862E+09   0.00000000E+00   5.81102532E+06   0.2604909       
  57               1.44543977E-02   5.31353984E-01   1787.29615782    8.44979044E-06   2.15334323E+18   1.58591244E+09   0.00000000E+00   5.76747298E+06   0.25894483      
  58               1.86208714E-02   5.73891892E-01   1822.85506065    8.94769011E-06   2.28036197E+18   1.58591630E+09   0.00000000E+00   5.71855163E+06   0.25687524      
  59               2.39883292E-02   6.23537416E-01   1862.01541599    9.51650173E-06   2.42552126E+18   1.58528091E+09   1.00849833E+06   5.66475103E+06   0.2543291       
  60               3.09029543E-02   6.80509537E-01   1903.59315652    1.01580913E-05   2.58932116E+18   1.58435985E+09   1.56176129E+06   5.60680560E+06   0.25135047      
  61               3.98107171E-02   7.45895524E-01   1947.79392147    1.08798799E-05   2.77370861E+18   1.58329095E+09   2.64145698E+06   5.54460873E+06   0.24796267      
  62               5.12861384E-02   8.22020922E-01   1994.89578374    1.17048968E-05   2.98461625E+18   1.58103933E+09   4.89035561E+06   5.47715028E+06   0.2439904       
  63               6.60693448E-02   9.10327159E-01   2044.81725512    1.26425861E-05   3.22454794E+18   1.57680823E+09   9.12643281E+06   5.40455756E+06   0.23934973      
  64               8.51138038E-02   1.01249150E+00   2096.93839300    1.37073199E-05   3.49728926E+18   1.56975645E+09   1.61828112E+07   5.32694901E+06   0.23421695      
  65               1.09647820E-01   1.13045976E+00   2151.23337454    1.49116375E-05   3.80621592E+18   1.55885655E+09   2.70863305E+07   5.24443420E+06   0.22857186      
  66               1.41253754E-01   1.26648859E+00   2207.03516485    1.62746164E-05   4.15640511E+18   1.54291956E+09   4.30254417E+07   5.15711297E+06   0.22256418      
  67               1.81970086E-01   1.42318975E+00   2264.38813635    1.78127595E-05   4.55237233E+18   1.52051843E+09   6.54254499E+07   5.06507658E+06   0.21599598      
  68               2.34422882E-01   1.60358706E+00   2322.48693173    1.95520774E-05   5.00109499E+18   1.49010225E+09   9.58353869E+07   4.96840970E+06   0.20904303      
  69               3.01995172E-01   1.81089513E+00   2381.39027603    2.15139731E-05   5.50793193E+18   1.45003157E+09   1.35892457E+08   4.86732562E+06   0.2021297       
  70               3.89045145E-01   2.04908654E+00   2440.51824592    2.37257606E-05   6.08140717E+18   1.39913476E+09   1.86767097E+08   4.76189470E+06   0.19527269      
  71               5.01187234E-01   2.32294399E+00   2500.10285384    2.62193123E-05   6.72987042E+18   1.33648873E+09   2.49380264E+08   4.65209089E+06   0.18870264      
  72               6.45654229E-01   2.63758199E+00   2559.66286371    2.90320884E-05   7.46361177E+18   1.26088840E+09   3.24934681E+08   4.53804599E+06   0.18235934      
  73               8.31763771E-01   2.99879025E+00   2619.35177321    3.21983023E-05   8.29235912E+18   1.17225257E+09   4.13513368E+08   4.41990042E+06   0.17635755      
  74               1.07151931E+00   3.41305279E+00   2678.76839394    3.57627947E-05   9.22855445E+18   1.07140679E+09   5.14296121E+08   4.29781623E+06   0.17073408      
  75               1.38038426E+00   3.88758850E+00   2738.12427723    3.97656139E-05   1.02837846E+19   9.60215836E+08   6.25431394E+08   4.17197705E+06   0.1654344       
  76               1.77827941E+00   4.43037882E+00   2796.98658588    4.42603325E-05   1.14729822E+19   8.41914267E+08   7.43705660E+08   4.04259098E+06   0.16061014      
  77               2.29086765E+00   5.05007612E+00   2855.70315912    4.92895389E-05   1.28088666E+19   7.20855093E+08   8.64783798E+08   3.90990906E+06   0.15643195      
  78               2.95120923E+00   5.75599779E+00   2913.96963176    5.49093311E-05   1.43074236E+19   6.02245076E+08   9.83468941E+08   3.77421126E+06   0.15268093      
  79               3.80189396E+00   6.55827341E+00   2972.02271737    6.11676476E-05   1.59831816E+19   4.92060389E+08   1.09377911E+09   3.63577294E+06   0.14935711      
  80               4.89778819E+00   7.46799033E+00   3029.59990912    6.81277901E-05   1.78543608E+19   3.95676420E+08   1.19033056E+09   3.49484419E+06   0.14642659      
  81               6.30957344E+00   8.49692771E+00   3086.95913819    7.58407963E-05   1.99368656E+19   3.16087693E+08   1.27009793E+09   3.35169414E+06   0.14374767      
  82               8.12830516E+00   9.65774469E+00   3143.74210212    8.43783638E-05   2.22512621E+19   2.53175678E+08   1.33315853E+09   3.20657912E+06   0.14145349      
  83               1.04712855E+01   1.09647150E+01   3200.39115821    9.37951657E-05   2.48153341E+19   2.04332335E+08   1.38210629E+09   3.05966102E+06   0.13950839      
  84               1.34896288E+01   1.24340088E+01   3256.59264196    1.04181622E-04   2.76549943E+19   1.65975820E+08   1.42053964E+09   2.91102035E+06   0.13783138      
  85               1.73780083E+01   1.40840719E+01   3312.80891207    1.15609109E-04   3.07934032E+19   1.35416130E+08   1.45116766E+09   2.76066339E+06   0.13636583      
  86               2.23872114E+01   1.59360027E+01   3368.72439079    1.28195282E-04   3.42641335E+19   1.10829572E+08   1.47582122E+09   2.60853624E+06   0.13515822      
  87               2.88403150E+01   1.80138639E+01   3424.89657594    1.42028740E-04   3.80965156E+19   9.09987746E+07   1.49572048E+09   2.45454135E+06   0.13411131      
  88               3.71535229E+01   2.03451595E+01   3480.94571536    1.57262733E-04   4.23340373E+19   7.47894027E+07   1.51200472E+09   2.29854667E+06   0.13325438      
  89               4.78630092E+01   2.29613039E+01   3537.49334373    1.74007778E-04   4.70139516E+19   6.15243329E+07   1.52535055E+09   2.14039349E+06   0.13255927      
  90               6.16595002E+01   2.58981584E+01   3594.13678685    1.92458177E-04   5.21915412E+19   5.05601368E+07   1.53639547E+09   1.97990533E+06   0.13205269      
  91               7.94328235E+01   2.91966346E+01   3651.54991073    2.12749981E-04   5.79137108E+19   4.15640411E+07   1.54547577E+09   1.81689179E+06   0.13165826      
  92               1.02329299E+02   3.29034312E+01   3709.25593709    2.35131575E-04   6.42510499E+19   3.41657329E+07   1.55296100E+09   1.65115402E+06   0.13139895      
  93               1.31825674E+02   3.70718036E+01   3767.97338849    2.59770709E-04   7.12626106E+19   2.81409618E+07   1.55907147E+09   1.48248736E+06   0.13124785      
  94               1.69824365E+02   4.17626792E+01   3827.18934954    2.86980313E-04   7.90376906E+19   2.31680581E+07   1.56412166E+09   1.31067837E+06   0.13123221      
  95               2.18776162E+02   4.70458400E+01   3887.67515932    3.16968263E-04   8.76510447E+19   1.90924333E+07   1.56826647E+09   1.13550284E+06   0.1312949       
  96               2.81838293E+02   5.30013690E+01   3948.85461398    3.50134257E-04   9.72169032E+19   1.57173946E+07   1.57169733E+09   9.56727109E+05   0.13145462      
  97               3.63078055E+02   5.97213729E+01   4011.54743626    3.86740557E-04   1.07831014E+20   1.29611347E+07   1.57448855E+09   7.74103790E+05   0.13168362      
  98               4.67735141E+02   6.73116066E+01   4075.13724494    4.27295123E-04   1.19639215E+20   1.06984243E+07   1.57676260E+09   5.87382039E+05   0.13201325      
  99               6.02559586E+02   7.58935452E+01   4140.50213097    4.72124781E-04   1.32763187E+20   8.86110627E+06   1.57858320E+09   3.96305705E+05   0.13244481      
  100              7.76247117E+02   8.56072168E+01   4207.01273742    5.21868368E-04   1.47388090E+20   7.34272438E+06   1.58004706E+09   2.00607037E+05   0.13302379      
  101              1.00000000E+03   9.66143916E+01   4275.63216206    5.76932980E-04   1.63669339E+20   6.68078411E+06   1.58071386E+09   0.00000000E+00   0.13374497      
