# ATMO pressure-temperature profile
# Effective temperature = 300.0K
# log(g) = 5.0cm/s^2
# M/H = 0.0
# Optical depth grid in band 17 (1.20-1.33microns)
# All parameters in cgs units
#
# Model Level      Optical Depth    Pressure         Temperature      Density          Number Density   Rad Flux         Conv Flux        Radial Extension Adiabatic Gradient
#                                   [Ba]             [K]              [g/cm^3]         [/cm^3]          [ergs/s/cm^2/sr] [ergs/s/cm^2/sr] [cm]             [K/Ba]          
  1                5.00000000E-07   1.00000000E-05   42.27268274      6.66726339E-09   1.71342867E+15   4.59353155E+05   0.00000000E+00   2.58467902E+06   0.34582131      
  2                6.19412983E-07   7.01487062E-05   45.88101324      4.30917456E-08   1.10742036E+16   4.59353155E+05   0.00000000E+00   2.54919315E+06   0.34582131      
  3                7.67344888E-07   1.44587530E-04   45.38312876      8.97932784E-08   2.30760911E+16   4.59353155E+05   0.00000000E+00   2.53722628E+06   0.31481965      
  4                9.50606773E-07   2.36709067E-04   48.74927068      1.36852959E-07   3.51700196E+16   4.59353155E+05   0.00000000E+00   2.52891607E+06   0.31483821      
  5                1.17763635E-06   3.50694090E-04   48.79373561      2.02568448E-07   5.20583283E+16   4.59353155E+05   0.00000000E+00   2.52207010E+06   0.31485358      
  6                1.45888650E-06   4.91691383E-04   52.37837875      2.64574490E-07   6.79933416E+16   4.59353155E+05   0.00000000E+00   2.51597963E+06   0.31486726      
  7                1.80730647E-06   6.66045843E-04   54.62926788      3.43626117E-07   8.83089216E+16   4.59353142E+05   0.00000000E+00   2.51019713E+06   0.31487996      
  8                2.23893819E-06   8.81544382E-04   55.93007121      4.44228310E-07   1.14162810E+17   4.59353126E+05   0.00000000E+00   2.50468146E+06   0.31489207      
  9                2.77365477E-06   1.14780052E-03   57.70700075      5.60589985E-07   1.44066748E+17   4.59353115E+05   0.00000000E+00   2.49934597E+06   0.31490384      
  10               3.43607555E-06   1.47652140E-03   59.72570384      6.96764302E-07   1.79062362E+17   4.59353102E+05   0.00000000E+00   2.49408627E+06   0.31491542      
  11               4.25669961E-06   1.88215907E-03   61.23369995      8.66309837E-07   2.22634089E+17   4.59353093E+05   0.00000000E+00   2.48886520E+06   0.31492694      
  12               5.27331001E-06   2.38235247E-03   63.77872919      1.05277988E-06   2.70555268E+17   4.59353082E+05   0.00000000E+00   2.48362760E+06   0.31493845      
  13               6.53271338E-06   2.99832587E-03   65.03053819      1.29947793E-06   3.33954518E+17   4.59353082E+05   0.00000000E+00   2.47836126E+06   0.31495004      
  14               8.09289496E-06   3.75619172E-03   68.00546004      1.55672317E-06   4.00064308E+17   4.59353082E+05   0.00000000E+00   2.47303280E+06   0.31496177      
  15               1.00256884E-05   4.68755306E-03   69.06830382      1.91282319E-06   4.91578914E+17   4.59353097E+05   0.00000000E+00   2.46763552E+06   0.31497372      
  16               1.24200832E-05   5.82948999E-03   72.41487334      2.26887311E-06   5.83080645E+17   4.59353111E+05   0.00000000E+00   2.46215401E+06   0.31498599      
  17               1.53863215E-05   7.22235363E-03   73.40841026      2.77293923E-06   7.12621252E+17   4.59353139E+05   0.00000000E+00   2.45660094E+06   0.31499867      
  18               1.90609746E-05   8.91295740E-03   77.19304135      3.25425140E-06   8.36314291E+17   4.59353147E+05   0.00000000E+00   2.45097305E+06   0.31501188      
  19               2.36132303E-05   1.09571591E-02   78.17244494      3.95049661E-06   1.01524325E+18   4.59353155E+05   0.00000000E+00   2.44527177E+06   0.31502574      
  20               2.92526829E-05   1.34214174E-02   82.37804053      4.59192037E-06   1.18008357E+18   4.59353127E+05   0.00000000E+00   2.43948597E+06   0.31504041      
  21               3.62389832E-05   1.63910651E-02   83.37586535      5.54082258E-06   1.42394318E+18   4.59353083E+05   0.00000000E+00   2.43359861E+06   0.31505606      
  22               4.48937934E-05   1.99735887E-02   87.97129254      6.39915387E-06   1.64452686E+18   4.59352982E+05   0.00000000E+00   2.42758215E+06   0.31507289      
  23               5.56155970E-05   2.43069078E-02   89.11486580      7.68753274E-06   1.97562901E+18   4.59352872E+05   0.00000000E+00   2.42140390E+06   0.31509112      
  24               6.88980457E-05   2.95561701E-02   94.27899221      8.83569363E-06   2.27069637E+18   4.59352668E+05   0.00000000E+00   2.41503470E+06   0.31511101      
  25               8.53526881E-05   3.59266422E-02   95.77944349      1.05718679E-05   2.71687814E+18   4.59352394E+05   0.00000000E+00   2.40844334E+06   0.31513273      
  26               1.05737126E-04   4.36730621E-02   101.99491978     1.20682035E-05   3.10142257E+18   4.59351781E+05   0.00000000E+00   2.40158524E+06   0.31856635      
  27               1.30989898E-04   5.31187688E-02   104.59350475     1.43136560E-05   3.67848614E+18   4.59350423E+05   0.00000000E+00   2.39439840E+06   0.32052803      
  28               1.62273687E-04   6.46150129E-02   112.66071260     1.61647639E-05   4.15419407E+18   4.59346444E+05   0.00000000E+00   2.38684058E+06   0.32302479      
  29               2.01028857E-04   7.81417352E-02   117.36257660     1.87653826E-05   4.82257793E+18   4.59333941E+05   8.57703024E+01   2.37907400E+06   0.32403257      
  30               2.49039768E-04   9.14143319E-02   126.06601511     2.04400845E-05   5.25221026E+18   4.59303426E+05   8.84733642E+02   2.37229676E+06   0.32526725      
  31               3.08516931E-04   1.01775415E-01   127.89611071     2.24289413E-05   5.76383295E+18   4.59263782E+05   7.43219509E+02   2.36745772E+06   0.32560997      
  32               3.82198786E-04   1.09225538E-01   133.58907693     2.30617411E-05   5.92214561E+18   4.59223638E+05   3.92836423E+02   2.36418147E+06   0.32611081      
  33               4.73477780E-04   1.13863547E-01   132.66384891     2.42086720E-05   6.21667202E+18   4.59195210E+05   3.31923258E+01   2.36221856E+06   0.32610028      
  34               5.86556569E-04   1.19584077E-01   137.59502318     2.45137347E-05   6.29501067E+18   4.59177531E+05   2.78987853E+01   2.35987030E+06   0.32564249      
  35               7.26641509E-04   1.26634593E-01   137.33674313     2.60078507E-05   6.67869258E+18   4.59168401E+05   1.21792003E+02   2.35707799E+06   0.32543262      
  36               9.00182369E-04   1.35317474E-01   143.24257798     2.66452994E-05   6.84238636E+18   4.59166209E+05   3.31605280E+01   2.35377961E+06   0.3251719       
  37               1.11516929E-03   1.46002017E-01   143.84159302     2.86294643E-05   7.35191049E+18   4.59171785E+05   7.00671303E+01   2.34991114E+06   0.32503744      
  38               1.38150068E-03   1.59139269E-01   150.99494290     2.97271866E-05   7.63380033E+18   4.59178895E+05   0.00000000E+00   2.34540794E+06   0.32484261      
  39               1.71143891E-03   1.75280825E-01   152.44345564     3.24313087E-05   8.32820608E+18   4.59183743E+05   0.00000000E+00   2.34020934E+06   0.32467953      
  40               2.12017497E-03   1.95103246E-01   159.53513417     3.44942747E-05   8.85796567E+18   4.59191680E+05   0.00000000E+00   2.33428281E+06   0.32414746      
  41               2.62652780E-03   2.19431504E-01   161.29875827     3.83713261E-05   9.85357429E+18   4.59202967E+05   0.00000000E+00   2.32759576E+06   0.32367816      
  42               3.25381085E-03   2.49269842E-01   168.06631364     4.18338667E-05   1.07427360E+19   4.59240937E+05   0.00000000E+00   2.32014832E+06   0.32281408      
  43               4.03090537E-03   2.85844814E-01   171.10620400     4.71198006E-05   1.21001402E+19   4.59274872E+05   0.00000000E+00   2.31191038E+06   0.32172874      
  44               4.99359024E-03   3.30665633E-01   177.72641575     5.24778986E-05   1.34760594E+19   4.59327086E+05   0.00000000E+00   2.30289696E+06   0.32051155      
  45               6.18618926E-03   3.85591226E-01   181.18355557     6.00271015E-05   1.54146690E+19   4.59404240E+05   0.00000000E+00   2.29311079E+06   0.31901756      
  46               7.66361189E-03   4.52917535E-01   188.13859421     6.79020613E-05   1.74368118E+19   4.59538227E+05   0.00000000E+00   2.28256521E+06   0.31773958      
  47               9.49388141E-03   5.35410646E-01   192.92506072     7.82774606E-05   2.01013024E+19   4.59764710E+05   0.00000000E+00   2.27125013E+06   0.31591536      
  48               1.17612668E-02   6.36261323E-01   202.91274052     8.84484948E-05   2.27118258E+19   4.59854533E+05   0.00000000E+00   2.25912960E+06   0.31377659      
  49               1.45701627E-02   7.59230723E-01   209.54725872     1.02198427E-04   2.62432507E+19   4.59515494E+05   0.00000000E+00   2.24619569E+06   0.31148593      
  50               1.80498959E-02   9.08785270E-01   221.61531988     1.15681072E-04   2.97021126E+19   4.58562453E+05   1.12759593E+03   2.23244065E+06   0.30956124      
  51               2.23606798E-02   1.08868284E+00   234.28090207     1.31103928E-04   3.36581570E+19   4.52155500E+05   7.17474925E+03   2.21783102E+06   0.30785794      
  52               2.77009907E-02   1.29647152E+00   247.23095978     1.48683304E-04   3.79827117E+19   4.38714061E+05   2.06282233E+04   2.20293312E+06   0.30636822      
  53               3.43167066E-02   1.52782959E+00   259.91198274     1.66667412E-04   4.25769408E+19   4.26278423E+05   3.30853819E+04   2.18823614E+06   0.30497509      
  54               4.25124273E-02   1.80966456E+00   273.69955707     1.87467533E-04   4.78905501E+19   4.16954664E+05   4.24201584E+04   2.17229180E+06   0.30381402      
  55               5.26654988E-02   2.15241570E+00   288.43605405     2.11581983E-04   5.40508398E+19   4.06677165E+05   5.27065405E+04   2.15508197E+06   0.30284368      
  56               6.52433875E-02   2.56828919E+00   304.31290716     2.39290594E-04   6.11292954E+19   3.95535911E+05   6.38549349E+04   2.13659954E+06   0.30207792      
  57               8.08252026E-02   3.07160965E+00   321.14604450     2.71184912E-04   6.92770339E+19   3.84001746E+05   7.53934014E+04   2.11684127E+06   0.30142648      
  58               1.00128360E-01   3.67869770E+00   339.12373175     3.07565767E-04   7.85709053E+19   3.73368097E+05   8.60270350E+04   2.09582043E+06   0.3009457       
  59               1.24041612E-01   4.40975924E+00   358.06832352     3.49181362E-04   8.92020460E+19   3.65984868E+05   9.34062942E+04   2.07351250E+06   0.30060992      
  60               1.53665970E-01   5.28903687E+00   378.23284585     3.96478324E-04   1.01284548E+20   3.63360221E+05   9.60251305E+04   2.04988102E+06   0.30035902      
  61               1.90365394E-01   6.34261141E+00   399.37296503     4.50289033E-04   1.15031102E+20   3.65595887E+05   9.37837512E+04   2.02494600E+06   0.30011866      
  62               2.35829593E-01   7.59718304E+00   421.65844563     5.10853810E-04   1.30502138E+20   3.72455444E+05   8.69178795E+04   1.99878808E+06   0.29991281      
  63               2.92151824E-01   9.08496507E+00   444.81731842     5.79090478E-04   1.47933800E+20   3.82549331E+05   7.68160272E+04   1.97143427E+06   0.29975182      
  64               3.61925265E-01   1.08415091E+01   469.08731271     6.55301117E-04   1.67402482E+20   3.91854663E+05   6.75022293E+04   1.94291980E+06   0.29960187      
  65               4.48362417E-01   1.29022690E+01   494.11033407     7.40369077E-04   1.89133298E+20   3.94307358E+05   6.50417220E+04   1.91333402E+06   0.29943573      
  66               5.55443005E-01   1.53037305E+01   520.09361939     8.34313302E-04   2.13128546E+20   3.86037958E+05   7.33057657E+04   1.88277866E+06   0.29924504      
  67               6.88097217E-01   1.81029024E+01   546.81141606     9.38690867E-04   2.39792987E+20   3.71073783E+05   8.82680868E+04   1.85114833E+06   0.29904258      
  68               8.52432700E-01   2.13668264E+01   574.67937296     1.05426881E-03   2.69302418E+20   3.54576261E+05   1.04765022E+05   1.81833790E+06   0.29882556      
  69               1.05601576E+00   2.51553639E+01   603.30166472     1.18231450E-03   3.02010415E+20   3.35503498E+05   1.23838917E+05   1.78440434E+06   0.29857064      
  70               1.30821975E+00   2.95188778E+01   632.89690218     1.32252469E-03   3.37825722E+20   3.15818766E+05   1.43526693E+05   1.74950896E+06   0.298236        
  71               1.62065660E+00   3.45276202E+01   663.05989178     1.47655887E-03   3.77172245E+20   2.98190894E+05   1.61159177E+05   1.71366620E+06   0.297812        
  72               2.00771148E+00   4.02910113E+01   694.33632190     1.64541370E-03   4.20304581E+20   2.82068263E+05   1.77289852E+05   1.67669060E+06   0.29731604      
  73               2.48720511E+00   4.69086491E+01   726.30908441     1.83133669E-03   4.67796847E+20   2.65248814E+05   1.94122799E+05   1.63856810E+06   0.29677204      
  74               3.08121427E+00   5.44738211E+01   759.34828842     2.03415221E-03   5.19604210E+20   2.46848419E+05   2.12544878E+05   1.59937199E+06   0.29615812      
  75               3.81708825E+00   6.30893497E+01   792.93571339     2.25608025E-03   5.76293753E+20   2.28519940E+05   2.30904107E+05   1.55915468E+06   0.2954591       
  76               4.72870805E+00   7.29650037E+01   827.83295946     2.49924147E-03   6.38407139E+20   2.13608905E+05   2.45857817E+05   1.51756510E+06   0.29465102      
  77               5.85804632E+00   8.43296570E+01   863.71643934     2.76850546E-03   7.07188171E+20   2.03596943E+05   2.55932490E+05   1.47436054E+06   0.29373396      
  78               7.25709989E+00   9.73579701E+01   901.02105621     3.06390935E-03   7.82640665E+20   1.98993549E+05   2.60635221E+05   1.42962750E+06   0.29268638      
  79               8.99028379E+00   1.12154746E+02   938.89430155     3.38719146E-03   8.65220486E+20   1.99207513E+05   2.60568674E+05   1.38369613E+06   0.29153672      
  80               1.11373970E+01   1.28788854E+02   977.59425634     3.73559760E-03   9.54213323E+20   2.03287949E+05   2.56699961E+05   1.33693338E+06   0.29027712      
  81               1.37972966E+01   1.47522760E+02   1016.65056146    4.11459797E-03   1.05102528E+21   2.09274949E+05   2.51038743E+05   1.28914913E+06   0.28894706      
  82               1.70924493E+01   1.68659949E+02   1056.82745805    4.52530663E-03   1.15593580E+21   2.13470146E+05   2.47088346E+05   1.24016451E+06   0.28752409      
  83               2.11745701E+01   1.92442667E+02   1097.39801334    4.97254267E-03   1.27017347E+21   2.14109173E+05   2.46177139E+05   1.19002865E+06   0.28604593      
  84               2.62316072E+01   2.19070126E+02   1138.91332986    5.45428220E-03   1.39321558E+21   2.12167749E+05   2.47437887E+05   1.13889908E+06   0.28448979      
  85               3.24963962E+01   2.48712023E+02   1180.47022087    5.97442372E-03   1.52604586E+21   2.11441151E+05   2.47616923E+05   1.08697247E+06   0.28290299      
  86               4.02573794E+01   2.81734270E+02   1222.92459510    6.53271155E-03   1.66865225E+21   2.14692695E+05   2.44110001E+05   1.03411432E+06   0.28125098      
  87               4.98718870E+01   3.18816539E+02   1265.86179227    7.14179345E-03   1.82423335E+21   2.20205004E+05   2.38587562E+05   9.79824796E+05   0.27956533      
  88               6.17825886E+01   3.60464738E+02   1310.14582417    7.80180589E-03   1.99282420E+21   2.24891430E+05   2.34071757E+05   9.24029818E+05   0.27781768      
  89               7.65378750E+01   4.07070119E+02   1354.78580485    8.52020202E-03   2.17632838E+21   2.28054226E+05   2.31122007E+05   8.66866999E+05   0.27607223      
  90               9.48171070E+01   4.58960336E+02   1400.49974406    9.29271795E-03   2.37365699E+21   2.29614785E+05   2.29663088E+05   8.08550793E+05   0.27424884      
  91               1.17461894E+02   5.16638012E+02   1446.30569071    1.01292266E-02   2.58733165E+21   2.27952580E+05   2.31254625E+05   7.49101276E+05   0.27235903      
  92               1.45514845E+02   5.79220121E+02   1492.14130441    1.10073590E-02   2.81163879E+21   2.23831318E+05   2.35207363E+05   6.89833233E+05   0.27038978      
  93               1.80267568E+02   6.48593928E+02   1538.05180645    1.19577884E-02   3.05441296E+21   2.20724128E+05   2.38139739E+05   6.29364809E+05   0.26838095      
  94               2.23320145E+02   7.26847171E+02   1585.88676234    1.29962937E-02   3.31968419E+21   2.18580293E+05   2.40132725E+05   5.66592616E+05   0.26625657      
  95               2.76654794E+02   8.16358241E+02   1635.20460804    1.41565388E-02   3.61605076E+21   2.14765364E+05   2.43950378E+05   5.00601020E+05   0.26405543      
  96               3.42727143E+02   9.20017285E+02   1687.71461585    1.54574456E-02   3.94841520E+21   2.09071343E+05   2.49743026E+05   4.30526492E+05   0.26173215      
  97               4.24579284E+02   1.04153389E+03   1742.85571840    1.69542967E-02   4.32850385E+21   2.04946120E+05   2.53919378E+05   3.55451373E+05   0.25935335      
  98               5.25979842E+02   1.18529901E+03   1802.33768865    1.86577825E-02   4.76340595E+21   2.02029567E+05   2.56902401E+05   2.74619223E+05   0.25689244      
  99               6.51597486E+02   1.35447221E+03   1864.54133840    2.06094733E-02   5.26167382E+21   1.97730725E+05   2.61303022E+05   1.88347485E+05   0.2544295       
  100              8.07215886E+02   1.55301262E+03   1930.60186653    2.28224603E-02   5.82650472E+21   1.91797526E+05   2.67363442E+05   9.68021457E+04   0.25187976      
  101              1.00000000E+03   1.78582705E+03   1999.01035554    2.53449724E-02   6.47068400E+21   1.87329230E+05   2.72243936E+05   0.00000000E+00   0.2492783       
