# ATMO pressure-temperature profile
# Effective temperature = 450.0K
# log(g) = 5.0cm/s^2
# M/H = 0.0
# Optical depth grid in band 17 (1.20-1.33microns)
# All parameters in cgs units
#
# Model Level      Optical Depth    Pressure         Temperature      Density          Number Density   Rad Flux         Conv Flux        Radial Extension Adiabatic Gradient
#                                   [Ba]             [K]              [g/cm^3]         [/cm^3]          [ergs/s/cm^2/sr] [ergs/s/cm^2/sr] [cm]             [K/Ba]          
  1                5.00000000E-07   1.00000000E-05   62.98527326      4.47476335E-09   1.14997082E+15   2.32490246E+06   0.00000000E+00   3.34566670E+06   0.3458213       
  2                6.19412983E-07   6.83658485E-05   70.91374709      2.71717659E-08   6.98288056E+15   2.32490246E+06   0.00000000E+00   3.29273512E+06   0.3458213       
  3                7.67344888E-07   1.40598320E-04   65.43630619      6.05578497E-08   1.55627806E+16   2.32490246E+06   0.00000000E+00   3.27492822E+06   0.31479395      
  4                9.50606773E-07   2.29988618E-04   75.12828095      8.62803668E-08   2.21732183E+16   2.32490246E+06   0.00000000E+00   3.26256165E+06   0.3148112       
  5                1.17763635E-06   3.39921054E-04   71.27754023      1.34410888E-07   3.45422959E+16   2.32490246E+06   0.00000000E+00   3.25235337E+06   0.31482652      
  6                1.45888650E-06   4.73987176E-04   81.40545184      1.64105143E-07   4.21734316E+16   2.32490246E+06   0.00000000E+00   3.24332643E+06   0.3148401       
  7                1.80730647E-06   6.34278879E-04   81.13548787      2.20332463E-07   5.66233080E+16   2.32490243E+06   0.00000000E+00   3.23489675E+06   0.3148525       
  8                2.23893819E-06   8.30449367E-04   84.35080352      2.77480855E-07   7.13098912E+16   2.32490244E+06   0.00000000E+00   3.22696301E+06   0.31486426      
  9                2.77365477E-06   1.06768336E-03   87.60512114      3.43496306E-07   8.82752222E+16   2.32490247E+06   0.00000000E+00   3.21927880E+06   0.31487543      
  10               3.43607555E-06   1.35566040E-03   90.77720605      4.20904131E-07   1.08168283E+17   2.32490251E+06   0.00000000E+00   3.21170515E+06   0.31488599      
  11               4.25669961E-06   1.70538837E-03   94.56241285      5.08292665E-07   1.30626290E+17   2.32490258E+06   0.00000000E+00   3.20414411E+06   0.31634074      
  12               5.27331001E-06   2.13027766E-03   98.48280289      6.09655572E-07   1.56675703E+17   2.32490265E+06   0.00000000E+00   3.19651143E+06   0.31876925      
  13               6.53271338E-06   2.64084925E-03   103.21813603     7.21098018E-07   1.85316222E+17   2.32490269E+06   0.00000000E+00   3.18881096E+06   0.32018165      
  14               8.09289496E-06   3.18646475E-03   108.41273785     8.28447107E-07   2.12889698E+17   2.32490246E+06   0.00000000E+00   3.18175159E+06   0.3214779       
  15               1.00256884E-05   3.65884160E-03   113.53678940     9.08363808E-07   2.33417191E+17   2.32490179E+06   6.08096290E-01   3.17630612E+06   0.32200797      
  16               1.24200832E-05   4.03118317E-03   116.94047949     9.71924320E-07   2.49685603E+17   2.32490090E+06   1.33056931E+00   3.17234317E+06   0.32263585      
  17               1.53863215E-05   4.31014163E-03   119.69926647     1.01541946E-06   2.60810993E+17   2.32490013E+06   2.83239103E+00   3.16953505E+06   0.32373983      
  18               1.90609746E-05   4.57248836E-03   121.80915919     1.05879407E-06   2.71893298E+17   2.32489974E+06   2.56356584E+00   3.16700481E+06   0.32448108      
  19               2.36132303E-05   4.85247249E-03   124.39216763     1.10029435E-06   2.82550373E+17   2.32489975E+06   2.71546144E+00   3.16441079E+06   0.32506302      
  20               2.92526829E-05   5.19781156E-03   126.99175782     1.15447314E-06   2.96463230E+17   2.32490017E+06   2.15527740E+00   3.16134672E+06   0.32549199      
  21               3.62389832E-05   5.62348420E-03   130.50835910     1.21536293E-06   3.12099440E+17   2.32490094E+06   1.49285183E+00   3.15775311E+06   0.32579339      
  22               4.48937934E-05   6.14789895E-03   134.13060830     1.29281881E-06   3.31989743E+17   2.32490191E+06   4.68260859E-01   3.15356948E+06   0.3259578       
  23               5.56155970E-05   6.79361427E-03   138.80271755     1.38051698E-06   3.54510216E+17   2.32490256E+06   0.00000000E+00   3.14873610E+06   0.32599833      
  24               6.88980457E-05   7.58850293E-03   142.63830720     1.50057869E-06   3.85341488E+17   2.32490263E+06   0.00000000E+00   3.14321334E+06   0.32588498      
  25               8.53526881E-05   8.56697020E-03   146.68990663     1.64727410E-06   4.23012171E+17   2.32490264E+06   0.00000000E+00   3.13698985E+06   0.32569363      
  26               1.05737126E-04   9.77086868E-03   150.55630312     1.83051427E-06   4.70067336E+17   2.32490261E+06   0.00000000E+00   3.13005686E+06   0.32531932      
  27               1.30989898E-04   1.12512568E-02   154.68762752     2.05156062E-06   5.26830969E+17   2.32490252E+06   0.00000000E+00   3.12241768E+06   0.32491624      
  28               1.62273687E-04   1.30705495E-02   158.51576123     2.32573629E-06   5.97237727E+17   2.32490241E+06   0.00000000E+00   3.11408892E+06   0.32428069      
  29               2.01028857E-04   1.53053745E-02   162.59006635     2.65515016E-06   6.81829509E+17   2.32490224E+06   0.00000000E+00   3.10509563E+06   0.32392304      
  30               2.49039768E-04   1.80491250E-02   166.39119241     3.05960705E-06   7.85690781E+17   2.32490211E+06   0.00000000E+00   3.09546915E+06   0.32323593      
  31               3.08516931E-04   2.14152168E-02   170.62503153     3.54013494E-06   9.09087256E+17   2.32490200E+06   0.00000000E+00   3.08524133E+06   0.32255078      
  32               3.82198786E-04   2.55411767E-02   174.63446217     4.12528177E-06   1.05934346E+18   2.32490201E+06   0.00000000E+00   3.07444468E+06   0.32162848      
  33               4.73477780E-04   3.05939768E-02   179.14277923     4.81704095E-06   1.23697939E+18   2.32490220E+06   0.00000000E+00   3.06310984E+06   0.32083817      
  34               5.86556569E-04   3.67761887E-02   183.39427584     5.65630773E-06   1.45246870E+18   2.32490317E+06   0.00000000E+00   3.05126611E+06   0.31973354      
  35               7.26641509E-04   4.43330350E-02   188.03943031     6.65018350E-06   1.70767168E+18   2.32490519E+06   0.00000000E+00   3.03894476E+06   0.31887351      
  36               9.00182369E-04   5.35593182E-02   192.39846043     7.85265547E-06   2.01631921E+18   2.32490870E+06   0.00000000E+00   3.02617725E+06   0.31771615      
  37               1.11516929E-03   6.48043937E-02   197.42827388     9.25949092E-06   2.37750229E+18   2.32491523E+06   0.00000000E+00   3.01298970E+06   0.31675454      
  38               1.38150068E-03   7.84748248E-02   202.55586734     1.09315728E-05   2.80615313E+18   2.32492878E+06   0.00000000E+00   2.99940138E+06   0.31562518      
  39               1.71143891E-03   9.50251087E-02   208.44683545     1.28624757E-05   3.30193795E+18   2.32495571E+06   0.00000000E+00   2.98544359E+06   0.31483005      
  40               2.12017497E-03   1.14797310E-01   214.52270555     1.51243843E-05   3.87600462E+18   2.32493992E+06   0.00000000E+00   2.97126171E+06   0.31336283      
  41               2.62652780E-03   1.37636568E-01   223.16552546     1.74570041E-05   4.46717093E+18   2.32486123E+06   0.00000000E+00   2.95720047E+06   0.31176158      
  42               3.25381085E-03   1.64118615E-01   235.80704119     1.97334504E-05   5.04111858E+18   2.32490865E+06   0.00000000E+00   2.94292699E+06   0.30987852      
  43               4.03090537E-03   1.95225354E-01   247.44142672     2.23699885E-05   5.71465013E+18   2.32490061E+06   0.00000000E+00   2.92812159E+06   0.30834337      
  44               4.99359024E-03   2.33025071E-01   259.81699123     2.54294551E-05   6.49622322E+18   2.32489555E+06   0.00000000E+00   2.91227313E+06   0.30679995      
  45               6.18618926E-03   2.78989904E-01   270.24783149     2.92703708E-05   7.47742575E+18   2.32489045E+06   0.00000000E+00   2.89542533E+06   0.30568938      
  46               7.66361189E-03   3.34903794E-01   282.36650201     3.36286047E-05   8.59078270E+18   2.32489277E+06   0.00000000E+00   2.87760355E+06   0.3046371       
  47               9.49388141E-03   4.02920483E-01   293.32083560     3.89473924E-05   9.94952326E+18   2.32489378E+06   0.00000000E+00   2.85880944E+06   0.30379115      
  48               1.17612668E-02   4.85663788E-01   306.54268896     4.49207206E-05   1.14754731E+19   2.32489762E+06   0.00000000E+00   2.83902743E+06   0.30293141      
  49               1.45701627E-02   5.86270869E-01   319.36156838     5.20496265E-05   1.32966275E+19   2.32489633E+06   0.00000000E+00   2.81822106E+06   0.30227981      
  50               1.80498959E-02   7.08496948E-01   335.11740851     5.99436137E-05   1.53132310E+19   2.32489941E+06   0.00000000E+00   2.79633923E+06   0.30168638      
  51               2.23606798E-02   8.56810077E-01   351.50440265     6.91124375E-05   1.76554843E+19   2.32489754E+06   0.00000000E+00   2.77329669E+06   0.30117789      
  52               2.77009907E-02   1.03659119E+00   372.95231685     7.88056047E-05   2.01316812E+19   2.31910258E+06   5.79785068E+03   2.74893610E+06   0.30068545      
  53               3.43167066E-02   1.25428351E+00   394.18275416     9.02197271E-05   2.30475057E+19   2.30188287E+06   2.30171931E+04   2.72311861E+06   0.30039603      
  54               4.25124273E-02   1.51746248E+00   418.18852851     1.02884337E-04   2.62828034E+19   2.27627117E+06   4.86291013E+04   2.69580206E+06   0.30015507      
  55               5.26654988E-02   1.83484744E+00   441.86000208     1.17738547E-04   3.00774566E+19   2.24736779E+06   7.75326335E+04   2.66696491E+06   0.29995997      
  56               6.52433875E-02   2.21712086E+00   468.56209602     1.34161515E-04   3.42726790E+19   2.22112082E+06   1.03780003E+05   2.63654897E+06   0.29975634      
  57               8.08252026E-02   2.67680163E+00   494.82292552     1.53385121E-04   3.91825065E+19   2.20807964E+06   1.16821372E+05   2.60450437E+06   0.2995863       
  58               1.00128360E-01   3.22820106E+00   524.38615376     1.74557019E-04   4.45897667E+19   2.21203118E+06   1.12870126E+05   2.57080589E+06   0.29940753      
  59               1.24041612E-01   3.88831835E+00   553.34705743     1.99251156E-04   5.08967498E+19   2.23492455E+06   8.99767646E+04   2.53540976E+06   0.29922242      
  60               1.53665970E-01   4.67865982E+00   585.96853395     2.26403736E-04   5.78326394E+19   2.26641957E+06   5.84819369E+04   2.49819864E+06   0.29898767      
  61               1.90365394E-01   5.62370434E+00   617.89353227     2.58074322E-04   6.59226520E+19   2.29310434E+06   3.17969116E+04   2.45910210E+06   0.29874619      
  62               2.35829593E-01   6.75117596E+00   653.81073968     2.92794273E-04   7.47916677E+19   2.29800721E+06   2.68944354E+04   2.41808620E+06   0.29838725      
  63               2.92151824E-01   8.09591329E+00   688.86082771     3.33248545E-04   8.51256025E+19   2.27743933E+06   4.74617983E+04   2.37503625E+06   0.29795166      
  64               3.61925265E-01   9.70490641E+00   728.47194480     3.77755319E-04   9.64949000E+19   2.22651013E+06   9.83917832E+04   2.32968748E+06   0.2973511       
  65               4.48362417E-01   1.16326081E+01   767.25188287     4.29901254E-04   1.09815836E+20   2.15862919E+06   1.66272150E+05   2.28185188E+06   0.29669819      
  66               5.55443005E-01   1.39414421E+01   811.12611913     4.87356655E-04   1.24493063E+20   2.08476128E+06   2.40140643E+05   2.23141059E+06   0.2958178       
  67               6.88097217E-01   1.67052753E+01   853.95241376     5.54684484E-04   1.41692155E+20   2.03345281E+06   2.91448969E+05   2.17825280E+06   0.29486571      
  68               8.52432700E-01   2.00118017E+01   902.35213209     6.28832085E-04   1.60633448E+20   2.02070212E+06   3.04199510E+05   2.12226634E+06   0.29363477      
  69               1.05601576E+00   2.39306684E+01   949.00933759     7.15001162E-04   1.82646007E+20   2.05358858E+06   2.71312986E+05   2.06382221E+06   0.29236456      
  70               1.30821975E+00   2.85113874E+01   1000.74158170    8.07824800E-04   2.06358444E+20   2.12428766E+06   2.00613942E+05   2.00354926E+06   0.29077203      
  71               1.62065660E+00   3.38022796E+01   1049.26156171    9.13452606E-04   2.33339394E+20   2.23264547E+06   9.22554579E+04   1.94195666E+06   0.28922373      
  72               2.00771148E+00   3.98893447E+01   1102.81315426    1.02560948E-03   2.61987641E+20   2.32491994E+06   0.00000000E+00   1.87906763E+06   0.28738987      
  73               2.48720511E+00   4.68443523E+01   1150.50643320    1.15451042E-03   2.94913074E+20   2.32490521E+06   0.00000000E+00   1.81515179E+06   0.2856988       
  74               3.08121427E+00   5.47441601E+01   1197.49418098    1.29626161E-03   3.31123669E+20   2.32475698E+06   0.00000000E+00   1.75057573E+06   0.28399564      
  75               3.81708825E+00   6.36536416E+01   1241.30188414    1.45402832E-03   3.71425469E+20   2.32446745E+06   0.00000000E+00   1.68567944E+06   0.28237772      
  76               4.72870805E+00   7.37157412E+01   1286.47680339    1.62474099E-03   4.15034421E+20   2.32477027E+06   0.00000000E+00   1.62021426E+06   0.28069383      
  77               5.85804632E+00   8.50805952E+01   1330.32918748    1.81340977E-03   4.63230599E+20   2.32446793E+06   0.00000000E+00   1.55400418E+06   0.27906218      
  78               7.25709989E+00   9.78558710E+01   1376.60458020    2.01558328E-03   5.14877029E+20   2.32483833E+06   0.00000000E+00   1.48718174E+06   0.27736018      
  79               8.99028379E+00   1.12143493E+02   1422.49812208    2.23533990E-03   5.71015921E+20   2.32462213E+06   0.00000000E+00   1.41987039E+06   0.2756769       
  80               1.11373970E+01   1.28069078E+02   1471.45749174    2.46783130E-03   6.30408998E+20   2.32498513E+06   0.00000000E+00   1.35206465E+06   0.27386321      
  81               1.37972966E+01   1.45833905E+02   1520.92772585    2.71872983E-03   6.94505623E+20   2.32506485E+06   0.00000000E+00   1.28348092E+06   0.27210797      
  82               1.70924493E+01   1.65594037E+02   1574.23666369    2.98255001E-03   7.61904449E+20   2.30872826E+06   1.61828760E+04   1.21408818E+06   0.27027357      
  83               2.11745701E+01   1.87388506E+02   1627.56059374    3.26448354E-03   8.33933886E+20   2.19460037E+06   1.30310413E+05   1.14424134E+06   0.26848024      
  84               2.62316072E+01   2.11189491E+02   1680.46299646    3.56385298E-03   9.10267817E+20   2.06145092E+06   2.63459434E+05   1.07445867E+06   0.26667281      
  85               3.24963962E+01   2.36987031E+02   1732.73800920    3.87915759E-03   9.90643781E+20   1.92170994E+06   4.03200065E+05   1.00507298E+06   0.26494734      
  86               4.02573794E+01   2.64877055E+02   1784.40064843    4.21083320E-03   1.07517166E+21   1.78587926E+06   5.39030344E+05   9.36062320E+05   0.26321625      
  87               4.98718870E+01   2.95180704E+02   1835.83693516    4.56113787E-03   1.16460781E+21   1.65528911E+06   6.69620080E+05   8.66914802E+05   0.26156376      
  88               6.17825886E+01   3.28144275E+02   1887.22278738    4.93261906E-03   1.25941105E+21   1.51812000E+06   8.07554519E+05   7.97418510E+05   0.25988575      
  89               7.65378750E+01   3.63750318E+02   1938.24984291    5.32465265E-03   1.35931298E+21   1.36536025E+06   9.59549179E+05   7.27940870E+05   0.25826853      
  90               9.48171070E+01   4.01607928E+02   1988.30498943    5.73268387E-03   1.46300265E+21   1.21637666E+06   1.10853346E+06   6.59417558E+05   0.25666112      
  91               1.17461894E+02   4.42396170E+02   2038.11182927    6.16397409E-03   1.57220506E+21   1.08157838E+06   1.24333268E+06   5.90799410E+05   0.25510739      
  92               1.45514845E+02   4.85815590E+02   2087.24066954    6.61271757E-03   1.68587262E+21   9.49067806E+05   1.38061387E+06   5.22788969E+05   0.25351127      
  93               1.80267568E+02   5.31007896E+02   2134.66058185    7.06917247E-03   1.80176434E+21   8.31785108E+05   1.49606979E+06   4.56689571E+05   0.25196619      
  94               2.23320145E+02   5.78926879E+02   2181.52569901    7.54148451E-03   1.92215861E+21   7.28470603E+05   1.59644774E+06   3.91060319E+05   0.25047515      
  95               2.76654794E+02   6.28480473E+02   2226.69799104    8.02135008E-03   2.04435499E+21   6.24319236E+05   1.70060474E+06   3.27347168E+05   0.24894167      
  96               3.42727143E+02   6.77646757E+02   2268.73037077    8.48907389E-03   2.16344729E+21   5.34870722E+05   1.79657162E+06   2.67764558E+05   0.24748789      
  97               4.24579284E+02   7.28309670E+02   2309.43934221    8.96370683E-03   2.28420646E+21   4.73814546E+05   1.85327211E+06   2.09684483E+05   0.24621752      
  98               5.25979842E+02   7.83712369E+02   2351.43159350    9.47312743E-03   2.41407185E+21   4.21491678E+05   1.90343967E+06   1.49560743E+05   0.24486039      
  99               6.51597486E+02   8.40934863E+02   2392.19834929    9.99436031E-03   2.54619119E+21   3.56130271E+05   1.96878368E+06   9.07487083E+04   0.24351924      
  100              8.07215886E+02   8.91826574E+02   2426.60761938    1.04514781E-02   2.66199167E+21   2.88921944E+05   2.03596326E+06   4.09521657E+04   0.24232418      
  101              1.00000000E+03   9.35421649E+02   2454.72862151    1.08396343E-02   2.76013148E+21   2.58396867E+05   2.06905903E+06   0.00000000E+00   0.24142065      
