# ATMO pressure-temperature profile
# Effective temperature = 1700.0K
# log(g) = 4.5cm/s^2
# M/H = 0.0
# Optical depth grid in band 17 (1.20-1.33microns)
# All parameters in cgs units
#
# Model Level      Optical Depth    Pressure         Temperature      Density          Number Density   Rad Flux         Conv Flux        Radial Extension Adiabatic Gradient
#                                   [Ba]             [K]              [g/cm^3]         [/cm^3]          [ergs/s/cm^2/sr] [ergs/s/cm^2/sr] [cm]             [K/Ba]          
  1                5.00000000E-06   1.00000000E-05   615.17251455     4.60450310E-10   1.17741324E+14   4.73555569E+08   0.00000000E+00   2.49041730E+07   0.29800254      
  2                6.05313423E-06   8.96319824E-05   682.74569937     3.71868605E-09   9.50889098E+14   4.73555569E+08   0.00000000E+00   2.29797368E+07   0.29746287      
  3                7.32808679E-06   1.80151113E-04   713.18008912     7.15505712E-09   1.82963129E+15   4.73555569E+08   0.00000000E+00   2.24248038E+07   0.29726341      
  4                8.87157859E-06   2.88293306E-04   730.46930132     1.11791902E-08   2.85863317E+15   4.73555569E+08   0.00000000E+00   2.20424340E+07   0.29702456      
  5                1.07401712E-05   4.17071986E-04   748.99592534     1.57726551E-08   4.03327101E+15   4.73555569E+08   0.00000000E+00   2.17357529E+07   0.29672165      
  6                1.30023396E-05   5.70676751E-04   760.72030707     2.12491241E-08   5.43364186E+15   4.73555569E+08   0.00000000E+00   2.14704256E+07   0.29653843      
  7                1.57409813E-05   7.53808023E-04   775.98607526     2.75157117E-08   7.03611075E+15   4.73555569E+08   0.00000000E+00   2.12309275E+07   0.29625766      
  8                1.90564546E-05   9.72463666E-04   785.70200216     3.50584000E-08   8.96481565E+15   4.73555569E+08   0.00000000E+00   2.10083023E+07   0.296093        
  9                2.30702555E-05   1.23333315E-03   799.57396983     4.36917207E-08   1.11724288E+16   4.73555569E+08   0.00000000E+00   2.07975229E+07   0.29581264      
  10               2.79294706E-05   1.54461321E-03   808.25801778     5.41314694E-08   1.38418954E+16   4.73555569E+08   0.00000000E+00   2.05951152E+07   0.29565483      
  11               3.38121669E-05   1.91561130E-03   821.39155806     6.60605946E-08   1.68920748E+16   4.73555569E+08   0.00000000E+00   2.03989255E+07   0.29537012      
  12               4.09339169E-05   2.35763741E-03   829.48004813     8.05118055E-08   2.05871822E+16   4.73555569E+08   0.00000000E+00   2.02072587E+07   0.2952144       
  13               4.95556987E-05   2.88371220E-03   842.20588266     9.69882744E-08   2.48004456E+16   4.73555569E+08   0.00000000E+00   2.00189986E+07   0.29491946      
  14               5.99934592E-05   3.50958374E-03   849.99803685     1.16957101E-07   2.99063579E+16   4.73555569E+08   0.00000000E+00   1.98331700E+07   0.29476072      
  15               7.26296922E-05   4.25353202E-03   862.62322114     1.39673750E-07   3.57153081E+16   4.73555569E+08   0.00000000E+00   1.96491046E+07   0.29445169      
  16               8.79274551E-05   5.13749515E-03   870.31889493     1.67210159E-07   4.27561756E+16   4.73555569E+08   0.00000000E+00   1.94661912E+07   0.29428723      
  17               1.06447338E-04   6.18692751E-03   883.00341361     1.98472239E-07   5.07502849E+16   4.73555569E+08   0.00000000E+00   1.92840227E+07   0.29396069      
  18               1.28868005E-04   7.43250582E-03   890.78321280     2.36349008E-07   6.04350761E+16   4.73555569E+08   0.00000000E+00   1.91021596E+07   0.29378576      
  19               1.56011066E-04   8.90988984E-03   903.69802755     2.79278229E-07   7.14125991E+16   4.73555569E+08   0.00000000E+00   1.89203160E+07   0.29343719      
  20               1.88871184E-04   1.06615915E-02   911.64281440     3.31275134E-07   8.47077533E+16   4.73555569E+08   0.00000000E+00   1.87382004E+07   0.29337963      
  21               2.28652526E-04   1.27373027E-02   924.91768347     3.90088740E-07   9.97470880E+16   4.73555569E+08   0.00000000E+00   1.85556045E+07   0.29309681      
  22               2.76812886E-04   1.51985826E-02   933.33917977     4.61270610E-07   1.17947687E+17   4.73555569E+08   0.00000000E+00   1.83721191E+07   0.29289888      
  23               3.35117111E-04   1.81181139E-02   947.27268012     5.41785609E-07   1.38536373E+17   4.73555568E+08   0.00000000E+00   1.81874383E+07   0.29248398      
  24               4.05701771E-04   2.15838666E-02   956.34146955     6.39305676E-07   1.63471520E+17   4.73555569E+08   0.00000000E+00   1.80012169E+07   0.29223476      
  25               4.91153455E-04   2.56996131E-02   971.16663333     7.49587152E-07   1.91671999E+17   4.73555569E+08   0.00000000E+00   1.78132059E+07   0.2917886       
  26               5.94603558E-04   3.05942431E-02   981.32772879     8.83114548E-07   2.25814321E+17   4.73555569E+08   0.00000000E+00   1.76229665E+07   0.29147397      
  27               7.19843029E-04   3.64192264E-02   997.45215882     1.03425250E-06   2.64462733E+17   4.73555567E+08   0.00000000E+00   1.74302260E+07   0.29088134      
  28               8.71461295E-04   4.33587295E-02   1008.88389932    1.21737581E-06   3.11287153E+17   4.73555567E+08   0.00000000E+00   1.72346557E+07   0.29047135      
  29               1.05501444E-03   5.16277904E-02   1026.52217864    1.42462540E-06   3.64284792E+17   4.73555570E+08   0.00000000E+00   1.70360948E+07   0.28986802      
  30               1.27722880E-03   6.14934201E-02   1039.68442999    1.67537893E-06   4.28403438E+17   4.73555571E+08   0.00000000E+00   1.68341569E+07   0.28950981      
  31               1.54624747E-03   7.32659674E-02   1059.37028324    1.95900789E-06   5.00933807E+17   4.73555561E+08   0.00000000E+00   1.66286643E+07   0.28888107      
  32               1.87192870E-03   8.73223219E-02   1074.66664533    2.30161532E-06   5.88541843E+17   4.73555568E+08   0.00000000E+00   1.64193310E+07   0.28840619      
  33               2.26620714E-03   1.04088667E-01   1096.73328212    2.68830907E-06   6.87429654E+17   4.73555569E+08   0.00000000E+00   1.62061823E+07   0.28762902      
  34               2.74353120E-03   1.24086249E-01   1114.76415123    3.15294293E-06   8.06244011E+17   4.73555570E+08   0.00000000E+00   1.59889723E+07   0.28706577      
  35               3.32139252E-03   1.47896197E-01   1139.90788576    3.67500699E-06   9.39751630E+17   4.73555550E+08   0.00000000E+00   1.57677791E+07   0.28625576      
  36               4.02096694E-03   1.76234356E-01   1161.16936833    4.29896605E-06   1.09931169E+18   4.73555574E+08   0.00000000E+00   1.55423237E+07   0.28563088      
  37               4.86789053E-03   2.09876627E-01   1189.89167677    4.99598863E-06   1.27756348E+18   4.73555566E+08   0.00000000E+00   1.53127654E+07   0.28461793      
  38               5.89319895E-03   2.49733671E-01   1215.14546434    5.82118522E-06   1.48858854E+18   4.73555561E+08   0.00000000E+00   1.50790492E+07   0.28370959      
  39               7.13446485E-03   2.96740963E-01   1248.17870941    6.73379184E-06   1.72197393E+18   4.73555533E+08   0.00000000E+00   1.48416222E+07   0.28241517      
  40               8.63717467E-03   3.51904629E-01   1277.89077081    7.79988418E-06   1.99460584E+18   4.73555590E+08   0.00000000E+00   1.46009204E+07   0.28127459      
  41               1.04563955E-02   4.16159502E-01   1315.61590025    8.95952698E-06   2.29116592E+18   4.73555550E+08   0.00000000E+00   1.43578568E+07   0.27973083      
  42               1.26587931E-02   4.90461749E-01   1350.12143196    1.02892986E-05   2.63122599E+18   4.73555550E+08   0.00000000E+00   1.41131383E+07   0.27856656      
  43               1.53250748E-02   5.75629585E-01   1392.35212819    1.17098185E-05   2.99446929E+18   4.73555493E+08   0.00000000E+00   1.38677755E+07   0.27720366      
  44               1.85529469E-02   6.72604590E-01   1430.99358406    1.33132194E-05   3.40445799E+18   4.73555572E+08   0.00000000E+00   1.36221666E+07   0.27584335      
  45               2.24606956E-02   7.81800130E-01   1477.12040900    1.49923054E-05   3.83359014E+18   4.73555543E+08   0.00000000E+00   1.33777480E+07   0.27403311      
  46               2.71915211E-02   8.99858098E-01   1519.33433166    1.67841498E-05   4.28989357E+18   4.73555520E+08   0.00000000E+00   1.31423828E+07   0.27242592      
  47               3.29187854E-02   1.02533161E+00   1569.07893057    1.85193068E-05   4.73309690E+18   4.73555434E+08   0.00000000E+00   1.29173249E+07   0.27040933      
  48               3.98523653E-02   1.15420519E+00   1619.94627850    2.01961861E-05   5.16069568E+18   4.71498591E+08   2.08539660E+06   1.27065960E+07   0.26839869      
  49               4.82463432E-02   1.27813056E+00   1664.69380895    2.17762630E-05   5.56117669E+18   4.67149682E+08   6.44507882E+06   1.25197194E+07   0.26660929      
  50               5.84083183E-02   1.38762035E+00   1701.48267577    2.31556138E-05   5.90702718E+18   4.61837174E+08   1.17512929E+07   1.23655191E+07   0.26504624      
  51               7.07106781E-02   1.47965171E+00   1730.56842175    2.42841254E-05   6.19293564E+18   4.57081340E+08   1.64982591E+07   1.22427834E+07   0.26365565      
  52               8.56042452E-02   1.55588988E+00   1753.61762174    2.51993498E-05   6.42643020E+18   4.53190008E+08   2.03889128E+07   1.21453256E+07   0.26230652      
  53               1.03634797E-01   1.64320605E+00   1778.82733938    2.62358717E-05   6.69089278E+18   4.48717541E+08   2.48653625E+07   1.20379384E+07   0.26101339      
  54               1.25463068E-01   1.74272605E+00   1806.30757171    2.73998583E-05   6.98816675E+18   4.43304350E+08   3.02605879E+07   1.19205598E+07   0.26011751      
  55               1.51888958E-01   1.82294669E+00   1827.52030780    2.83525618E-05   7.22499575E+18   4.38371585E+08   3.51374219E+07   1.18295337E+07   0.2594493       
  56               1.83880850E-01   1.88434130E+00   1843.30154718    2.90560141E-05   7.40438547E+18   4.34258424E+08   3.92160430E+07   1.17618918E+07   0.25868221      
  57               2.22611093E-01   1.95553772E+00   1861.02144509    2.98660776E-05   7.61098136E+18   4.29622292E+08   4.38571591E+07   1.16854640E+07   0.25777469      
  58               2.69498965E-01   2.03766452E+00   1880.85532741    3.07913616E-05   7.84699061E+18   4.24244254E+08   4.92410099E+07   1.15998230E+07   0.2567264       
  59               3.26262682E-01   2.13184893E+00   1902.73342079    3.18431183E-05   8.11529513E+18   4.17929479E+08   5.55626373E+07   1.15047063E+07   0.25551993      
  60               3.94982361E-01   2.23914455E+00   1926.73012021    3.30278650E-05   8.41757674E+18   4.10499803E+08   6.29977954E+07   1.14000816E+07   0.2541914       
  61               4.78176250E-01   2.36025174E+00   1952.61243236    3.43510508E-05   8.75524122E+18   4.01958714E+08   7.15400217E+07   1.12863816E+07   0.25268967      
  62               5.78893005E-01   2.49674756E+00   1980.49542724    3.58237401E-05   9.13117424E+18   3.92625038E+08   8.08762211E+07   1.11633365E+07   0.25099986      
  63               7.00823412E-01   2.65148960E+00   2010.49215755    3.74734377E-05   9.55241947E+18   3.82453990E+08   9.10542411E+07   1.10297810E+07   0.24904555      
  64               8.48435636E-01   2.82630056E+00   2042.61523286    3.93120355E-05   1.00220743E+19   3.71103732E+08   1.02412147E+08   1.08857537E+07   0.24690301      
  65               1.02713896E+00   3.02316392E+00   2076.69316954    4.13553034E-05   1.05442380E+19   3.58377314E+08   1.15146263E+08   1.07313571E+07   0.2445238       
  66               1.24348200E+00   3.24425266E+00   2112.69275595    4.36170733E-05   1.11225448E+19   3.44140712E+08   1.29390342E+08   1.05667404E+07   0.2419187       
  67               1.50539269E+00   3.49195973E+00   2150.41458465    4.61155904E-05   1.17617750E+19   3.28324669E+08   1.45213825E+08   1.03920826E+07   0.23908406      
  68               1.82246880E+00   3.76895235E+00   2189.80922727    4.88676216E-05   1.24663755E+19   3.10930875E+08   1.62614268E+08   1.02075659E+07   0.23607137      
  69               2.20632965E+00   4.07819049E+00   2230.68022631    5.18948357E-05   1.32420746E+19   2.91970705E+08   1.81579674E+08   1.00133778E+07   0.23274352      
  70               2.67104190E+00   4.42296197E+00   2272.92281083    5.52188852E-05   1.40946520E+19   2.71518976E+08   2.02037818E+08   9.80970722E+06   0.22911592      
  71               3.23363503E+00   4.80691815E+00   2316.33083775    5.88660311E-05   1.50311420E+19   2.49671257E+08   2.23889742E+08   9.59674200E+06   0.22520517      
  72               3.91472538E+00   5.23376712E+00   2360.76142356    6.28662347E-05   1.60578773E+19   2.26744129E+08   2.46812767E+08   9.37484606E+06   0.2211596       
  73               4.73927163E+00   5.70798522E+00   2406.06490319    6.72377637E-05   1.71830930E+19   2.03478794E+08   2.70071586E+08   9.14418889E+06   0.21698413      
  74               5.73748947E+00   6.23484134E+00   2452.16649069    7.20215499E-05   1.84162538E+19   1.80531174E+08   2.93013966E+08   8.90476976E+06   0.2127246       
  75               6.94595877E+00   6.81979318E+00   2498.92425993    7.72535797E-05   1.97671451E+19   1.58361451E+08   3.15176801E+08   8.65677942E+06   0.20844204      
  76               8.40896415E+00   7.46899233E+00   2546.26713994    8.29724078E-05   2.12463283E+19   1.37658847E+08   3.35871294E+08   8.40035614E+06   0.20413618      
  77               1.01801177E+01   8.18920926E+00   2594.06195225    8.92220964E-05   2.28658560E+19   1.19055038E+08   3.54465971E+08   8.13564855E+06   0.19984184      
  78               1.23243238E+01   8.98787003E+00   2642.25317605    9.60475832E-05   2.46381557E+19   1.02768876E+08   3.70742505E+08   7.86282021E+06   0.19559588      
  79               1.49201573E+01   9.87305511E+00   2690.72078655    1.03499391E-04   2.65771720E+19   8.87487285E+07   3.84753341E+08   7.58206429E+06   0.19146965      
  80               1.80627429E+01   1.08534982E+01   2739.44184101    1.11627078E-04   2.86968016E+19   7.67061887E+07   3.96788164E+08   7.29361062E+06   0.18731221      
  81               2.18672415E+01   1.19386405E+01   2788.21393614    1.20491353E-04   3.10137741E+19   6.64060242E+07   4.07082690E+08   6.99771978E+06   0.18338593      
  82               2.64730696E+01   1.31385943E+01   2837.15227312    1.30141125E-04   3.35422427E+19   5.75800886E+07   4.15905213E+08   6.69468867E+06   0.17974889      
  83               3.20490087E+01   1.44641427E+01   2886.08485125    1.40640967E-04   3.63002354E+19   4.99591952E+07   4.23525554E+08   6.38484656E+06   0.1762942       
  84               3.87993903E+01   1.59268676E+01   2935.08355761    1.52046322E-04   3.93039084E+19   4.34002911E+07   4.30087603E+08   6.06852629E+06   0.17303344      
  85               4.69715834E+01   1.75391684E+01   2983.99091063    1.64428459E-04   4.25733027E+19   3.77404564E+07   4.35755185E+08   5.74606472E+06   0.1700325       
  86               5.68650599E+01   1.93142152E+01   3032.93153349    1.77844145E-04   4.61254164E+19   3.28037742E+07   4.40705676E+08   5.41781076E+06   0.16719647      
  87               6.88423680E+01   2.12650164E+01   3081.67536319    1.92366819E-04   4.99809695E+19   2.84529635E+07   4.45076003E+08   5.08427947E+06   0.16451627      
  88               8.33424188E+01   2.34049968E+01   3130.33305880    2.08046856E-04   5.41556632E+19   2.46378376E+07   4.48913912E+08   4.74600240E+06   0.1620493       
  89               1.00896570E+02   2.57487105E+01   3178.72861627    2.24961873E-04   5.86715919E+19   2.12992955E+07   4.52277311E+08   4.40340992E+06   0.15985843      
  90               1.22148096E+02   2.83119639E+01   3227.05554150    2.43166133E-04   6.35461722E+19   1.83850358E+07   4.55218012E+08   4.05683762E+06   0.15782497      
  91               1.47875764E+02   3.11120722E+01   3275.09647883    2.62757030E-04   6.88066922E+19   1.58587189E+07   4.57772145E+08   3.70652624E+06   0.1559571       
  92               1.79022369E+02   3.41679584E+01   3323.08673569    2.83798195E-04   7.44737447E+19   1.36919204E+07   4.59967539E+08   3.35264034E+06   0.15426471      
  93               2.16729286E+02   3.75004793E+01   3370.83543052    3.06404800E-04   8.05796002E+19   1.18216805E+07   4.61866083E+08   2.99526202E+06   0.15277849      
  94               2.62378292E+02   4.11326355E+01   3418.62855884    3.30650705E-04   8.71486092E+19   1.02056381E+07   4.63510074E+08   2.63440109E+06   0.15142447      
  95               3.17642204E+02   4.50899118E+01   3466.24383173    3.56679555E-04   9.42206543E+19   8.80202516E+06   4.64941138E+08   2.26999953E+06   0.1502113       
  96               3.84546179E+02   4.94005597E+01   3513.99863874    3.84580637E-04   1.01825399E+20   7.58947900E+06   4.66180039E+08   1.90194057E+06   0.14912898      
  97               4.65541927E+02   5.40958813E+01   3561.67205751    4.14527406E-04   1.10011000E+20   6.53905661E+06   4.67254704E+08   1.53006083E+06   0.14819483      
  98               5.63597555E+02   5.92105310E+01   3609.61223685    4.46625419E-04   1.18813078E+20   5.63683011E+06   4.68178294E+08   1.15415845E+06   0.1473552       
  99               6.82306330E+02   6.47827663E+01   3657.56442054    4.81086433E-04   1.28290159E+20   4.86434077E+06   4.68968860E+08   7.74009707E+05   0.14661376      
  100              8.26018359E+02   7.08547067E+01   3705.89204000    5.18034619E-04   1.38484696E+20   4.20781755E+06   4.69640089E+08   3.89378960E+05   0.14595739      
  101              1.00000000E+03   7.74731201E+01   3754.32926490    5.57723210E-04   1.49466728E+20   3.89770908E+06   4.69968780E+08   0.00000000E+00   0.14540798      
