# ATMO pressure-temperature profile
# Effective temperature = 2700.0K
# log(g) = 2.5cm/s^2
# M/H = 0.0
# Optical depth grid in band 17 (1.20-1.33microns)
# All parameters in cgs units
#
# Model Level      Optical Depth    Pressure         Temperature      Density          Number Density   Rad Flux         Conv Flux        Radial Extension Adiabatic Gradient
#                                   [Ba]             [K]              [g/cm^3]         [/cm^3]          [ergs/s/cm^2/sr] [ergs/s/cm^2/sr] [cm]             [K/Ba]          
  1                1.00000000E-04   1.00000000E-05   1532.64992055    1.84166631E-10   4.72588199E+13   3.01320514E+09   0.00000000E+00   5.21070158E+09   0.27200859      
  2                1.17489755E-04   1.61568151E-05   1204.11680382    3.80108191E-10   9.71880743E+13   3.01320503E+09   0.00000000E+00   5.13700499E+09   0.28283304      
  3                1.38038426E-04   2.12296551E-05   1762.94816323    3.33753766E-10   8.72226416E+13   3.01320502E+09   0.00000000E+00   5.09144008E+09   0.27045822      
  4                1.62181010E-04   2.49887632E-05   1397.57546763    5.08074416E-10   1.29507623E+14   3.01320507E+09   0.00000000E+00   5.06232337E+09   0.27567322      
  5                1.90546072E-04   2.91301601E-05   1846.52646083    4.29576259E-10   1.14264987E+14   3.01320504E+09   0.00000000E+00   5.03384427E+09   0.27183354      
  6                2.23872114E-04   3.28087610E-05   1570.92734238    5.91842570E-10   1.51272356E+14   3.01320506E+09   0.00000000E+00   5.01053274E+09   0.27099678      
  7                2.63026799E-04   3.69725230E-05   1895.75195405    5.24464896E-10   1.41261370E+14   3.01320507E+09   0.00000000E+00   4.98654653E+09   0.27322135      
  8                3.09029543E-04   4.16411578E-05   1627.86559214    7.23478633E-10   1.85280661E+14   3.01320507E+09   0.00000000E+00   4.96227920E+09   0.26977665      
  9                3.63078055E-04   4.69661702E-05   1936.51499825    6.45288658E-10   1.75666975E+14   3.01320507E+09   0.00000000E+00   4.93723342E+09   0.27447528      
  10               4.26579519E-04   5.29847985E-05   1677.31036272    8.91388993E-10   2.28804044E+14   3.01320506E+09   0.00000000E+00   4.91179052E+09   0.26887412      
  11               5.01187234E-04   5.98699645E-05   1974.27773564    7.98807727E-10   2.19647666E+14   3.01320505E+09   0.00000000E+00   4.88554174E+09   0.27570278      
  12               5.88843655E-04   6.76788196E-05   1723.97675729    1.10475447E-09   2.84346056E+14   3.01320504E+09   0.00000000E+00   4.85886612E+09   0.26817253      
  13               6.91830971E-04   7.66239145E-05   2010.96958192    9.93848294E-10   2.75984488E+14   3.01320501E+09   0.00000000E+00   4.83138167E+09   0.2769586       
  14               8.12830516E-04   8.67844583E-05   1769.99523854    1.37522608E-09   3.55136818E+14   3.01320499E+09   0.00000000E+00   4.80347438E+09   0.26764026      
  15               9.54992586E-04   9.84290696E-05   2047.66665670    1.24123805E-09   3.48168889E+14   3.01320496E+09   0.00000000E+00   4.77476214E+09   0.27829622      
  16               1.12201845E-03   1.11662063E-04   1816.64967814    1.71696162E-09   4.45205276E+14   3.01320492E+09   0.00000000E+00   4.74564503E+09   0.11336521      
  17               1.31825674E-03   1.26827069E-04   2085.13652753    1.55400952E-09   4.40558210E+14   3.01320488E+09   0.00000000E+00   4.71572361E+09   0.062395771     
  18               1.54881662E-03   1.44056713E-04   1864.90941141    2.14669375E-09   5.59501946E+14   3.01320483E+09   0.00000000E+00   4.68541920E+09   0.10344895      
  19               1.81970086E-03   1.63792920E-04   2124.08470750    1.94739153E-09   5.58533378E+14   3.01320479E+09   0.00000000E+00   4.65429975E+09   0.06172688      
  20               2.13796209E-03   1.86198540E-04   1915.70988350    2.68338923E-09   7.03999531E+14   3.01320474E+09   0.00000000E+00   4.62281724E+09   0.094931208     
  21               2.51188643E-03   2.11845724E-04   2165.34223221    2.43824936E-09   7.08629120E+14   3.01320470E+09   0.00000000E+00   4.59048497E+09   0.061229805     
  22               2.95120923E-03   2.40938085E-04   1970.31622134    3.34685252E-09   8.85717777E+14   3.01320466E+09   0.00000000E+00   4.55778631E+09   0.087262311     
  23               3.46736850E-03   2.74222174E-04   2210.24058357    3.04321233E-09   8.98646443E+14   3.01320464E+09   0.00000000E+00   4.52414812E+09   0.060898469     
  24               4.07380278E-03   3.11925615E-04   2031.06478387    4.15274518E-09   1.11237983E+15   3.01320463E+09   0.00000000E+00   4.49012024E+09   0.080182822     
  25               4.78630092E-03   3.55023820E-04   2261.54399179    3.77042478E-09   1.13704667E+15   3.01320464E+09   0.00000000E+00   4.45497284E+09   0.060453512     
  26               5.62341325E-03   4.03680453E-04   2104.29111664    5.08825868E-09   1.38949740E+15   3.01320468E+09   0.00000000E+00   4.41938435E+09   0.073451898     
  27               6.60693448E-03   4.58844210E-04   2330.73936498    4.55913845E-09   1.42592730E+15   3.01320476E+09   0.00000000E+00   4.38233030E+09   0.060004351     
  28               7.76247117E-03   5.18778860E-04   2343.91443103    5.12154352E-09   1.60312120E+15   2.99293732E+09   2.02701454E+07   4.34310770E+09   0.060381956     
  29               9.12010839E-03   5.88019542E-04   2366.57074137    5.70072843E-09   1.79969168E+15   2.97385425E+09   3.93534030E+07   4.30258238E+09   0.060579055     
  30               1.07151931E-02   6.67952036E-04   2381.03088636    6.42878914E-09   2.03191758E+15   2.95429926E+09   5.89096195E+07   4.26082876E+09   0.060941921     
  31               1.25892541E-02   7.60200921E-04   2405.08171962    7.17848912E-09   2.28941431E+15   2.93357987E+09   7.96311792E+07   4.21788363E+09   0.061142973     
  32               1.47910839E-02   8.66577187E-04   2420.56773228    8.11954068E-09   2.59307962E+15   2.91135875E+09   1.01854437E+08   4.17382172E+09   0.061523234     
  33               1.73780083E-02   9.89208059E-04   2445.83627978    9.08716157E-09   2.92945009E+15   2.88725299E+09   1.25960611E+08   4.12867187E+09   0.061813102     
  34               2.04173794E-02   1.13044213E-03   2462.22787352    1.02999923E-08   3.32541562E+15   2.86107579E+09   1.52138797E+08   4.08250740E+09   0.06224396      
  35               2.39883292E-02   1.29271878E-03   2488.56747147    1.15418486E-08   3.76253438E+15   2.83249687E+09   1.80714187E+08   4.03543803E+09   0.062628381     
  36               2.81838293E-02   1.47884890E-03   2505.70336264    1.30925864E-08   4.27484121E+15   2.80138115E+09   2.11828960E+08   3.98755658E+09   0.063081632     
  37               3.31131121E-02   1.69237889E-03   2532.97636889    1.46762388E-08   4.83940869E+15   2.76739259E+09   2.45824568E+08   3.93883979E+09   0.063481838     
  38               3.89045145E-02   1.93717307E-03   2550.79874626    1.66544259E-08   5.50070135E+15   2.73045468E+09   2.82775159E+08   3.88932556E+09   0.063910285     
  39               4.57088190E-02   2.21780926E-03   2578.94759507    1.86717258E-08   6.22884486E+15   2.69026085E+09   3.22980163E+08   3.83899549E+09   0.064349407     
  40               5.37031796E-02   2.53921219E-03   2597.42799076    2.11902593E-08   7.08078354E+15   2.64681109E+09   3.66442263E+08   3.78789905E+09   0.064822844     
  41               6.30957344E-02   2.90719153E-03   2626.43259069    2.37530892E-08   8.01739398E+15   2.59982889E+09   4.13426613E+08   3.73602657E+09   0.065379974     
  42               7.41310241E-02   3.32790819E-03   2645.59442208    2.69472676E-08   9.11116497E+15   2.54937606E+09   4.63885713E+08   3.68344016E+09   0.065902934     
  43               8.70963590E-02   3.80857505E-03   2675.42656385    3.01891197E-08   1.03108703E+16   2.49520107E+09   5.18071334E+08   3.63014301E+09   0.06652546      
  44               1.02329299E-01   4.35670724E-03   2695.24275321    3.42192584E-08   1.17080975E+16   2.43741476E+09   5.75893909E+08   3.57621354E+09   0.06701442      
  45               1.20226443E-01   4.98100170E-03   2725.78457804    3.82975830E-08   1.32358245E+16   2.37580068E+09   6.37540865E+08   3.52167408E+09   0.067621489     
  46               1.41253754E-01   5.69034014E-03   2746.12802174    4.33504331E-08   1.50087073E+16   2.31056457E+09   7.02805721E+08   3.46662216E+09   0.068138443     
  47               1.65958691E-01   6.49489941E-03   2777.27283216    4.84410266E-08   1.69386862E+16   2.24151234E+09   7.71863833E+08   3.41109613E+09   0.068868118     
  48               1.94984460E-01   7.40490065E-03   2798.09872779    5.47187086E-08   1.91682313E+16   2.16886995E+09   8.44511270E+08   3.35520167E+09   0.069450879     
  49               2.29086765E-01   8.43194187E-03   2829.75516317    6.10102339E-08   2.15826408E+16   2.09241501E+09   9.20959694E+08   3.29898565E+09   0.070286161     
  50               2.69153480E-01   9.58751117E-03   2851.00275388    6.87282250E-08   2.43575771E+16   2.01237068E+09   1.00114881E+09   3.24255324E+09   0.070789711     
  51               3.16227766E-01   1.08845384E-02   2882.96602261    7.64273275E-08   2.73461587E+16   1.92886735E+09   1.08477498E+09   3.18595574E+09   0.072994308     
  52               3.71535229E-01   1.23361717E-02   2905.53552246    8.57263853E-08   3.07524737E+16   1.84041690E+09   1.17323761E+09   3.12924330E+09   0.072602563     
  53               4.36515832E-01   1.39564621E-02   2936.99955854    9.51093936E-08   3.44189247E+16   1.74779497E+09   1.26583473E+09   3.07249427E+09   0.072551182     
  54               5.12861384E-01   1.57594584E-02   2959.07975575    1.06375066E-07   3.85754016E+16   1.65221013E+09   1.36134124E+09   3.01580966E+09   0.072779296     
  55               6.02559586E-01   1.77612949E-02   2990.38630646    1.17650662E-07   4.30202736E+16   1.55411395E+09   1.45934002E+09   2.95921920E+09   0.073662927     
  56               7.07945784E-01   1.99783852E-02   3012.58655053    1.31094489E-07   4.80337717E+16   1.45442776E+09   1.55899498E+09   2.90276504E+09   0.074468462     
  57               8.31763771E-01   2.24290162E-02   3044.10183123    1.44473625E-07   5.33675035E+16   1.35376183E+09   1.65963413E+09   2.84645025E+09   0.07587077      
  58               9.77237221E-01   2.51314984E-02   3066.75145313    1.60328101E-07   5.93561390E+16   1.25313499E+09   1.76026170E+09   2.79029813E+09   0.076933914     
  59               1.14815362E+00   2.81072277E-02   3098.62626738    1.76050496E-07   6.57014045E+16   1.15360345E+09   1.85980437E+09   2.73428356E+09   0.078598344     
  60               1.34896288E+00   3.13783799E-02   3121.90145748    1.94586766E-07   7.28009700E+16   1.05621692E+09   1.95721150E+09   2.67839426E+09   0.079698032     
  61               1.58489319E+00   3.49710626E-02   3154.18182045    2.12958445E-07   8.03059908E+16   9.62097320E+08   2.05136619E+09   2.62257991E+09   0.081124188     
  62               1.86208714E+00   3.89125640E-02   3177.96153410    2.34566739E-07   8.86884472E+16   8.72191437E+08   2.14129196E+09   2.56681196E+09   0.081788104     
  63               2.18776162E+00   4.32351833E-02   3210.41596711    2.56040168E-07   9.75442868E+16   7.87515691E+08   2.22598758E+09   2.51103055E+09   0.082382542     
  64               2.57039578E+00   4.79729836E-02   3234.22027299    2.81316407E-07   1.07436778E+17   7.09246321E+08   2.30424917E+09   2.45520559E+09   0.082507451     
  65               3.01995172E+00   5.31661323E-02   3266.58557276    3.06501300E-07   1.17887258E+17   6.38374833E+08   2.37511000E+09   2.39927570E+09   0.082836673     
  66               3.54813389E+00   5.88570644E-02   3290.34880676    3.36121495E-07   1.29563448E+17   5.75153169E+08   2.43830823E+09   2.34320681E+09   0.083087956     
  67               4.16869383E+00   6.50953394E-02   3322.82732627    3.65665125E-07   1.41895284E+17   5.20161733E+08   2.49328616E+09   2.28693390E+09   0.083995626     
  68               4.89778819E+00   7.19333292E-02   3347.06005106    4.00282126E-07   1.55665545E+17   4.71600600E+08   2.54183687E+09   2.23041334E+09   0.084874321     
  69               5.75439937E+00   7.94318491E-02   3380.19539769    4.34839070E-07   1.70207505E+17   4.30161860E+08   2.58328460E+09   2.17357352E+09   0.086644218     
  70               6.76082975E+00   8.76554581E-02   3405.60573124    4.75117617E-07   1.86427697E+17   3.92044777E+08   2.62140494E+09   2.11635963E+09   0.087990675     
  71               7.94328235E+00   9.66789397E-02   3439.84384001    5.15463595E-07   2.03572444E+17   3.59249911E+08   2.65421066E+09   2.05869627E+09   0.090121019     
  72               9.33254301E+00   1.06582268E-01   3466.81494232    5.62270615E-07   2.22679449E+17   3.27226910E+08   2.68623327E+09   2.00052418E+09   0.091572411     
  73               1.09647820E+01   1.17457569E-01   3502.36675049    6.09411078E-07   2.42909906E+17   2.99375521E+08   2.71408495E+09   1.94176985E+09   0.0935525       
  74               1.28824955E+01   1.29403928E-01   3530.94354142    6.63923016E-07   2.65449875E+17   2.70846378E+08   2.74260433E+09   1.88237785E+09   0.094689044     
  75               1.51356125E+01   1.42534227E-01   3567.73351907    7.19207473E-07   2.89369395E+17   2.45971708E+08   2.76746923E+09   1.82228606E+09   0.096093136     
  76               1.77827941E+01   1.56970163E-01   3597.65818973    7.83009023E-07   3.16026172E+17   2.19990410E+08   2.79344146E+09   1.76145274E+09   0.096609941     
  77               2.08929613E+01   1.72848167E-01   3635.37457108    8.48204564E-07   3.44382800E+17   1.97884191E+08   2.81554913E+09   1.69983765E+09   0.097418641     
  78               2.45470892E+01   1.90315594E-01   3666.33788606    9.23249506E-07   3.75982583E+17   1.75620402E+08   2.83781752E+09   1.63741734E+09   0.097971836     
  79               2.88403150E+01   2.09535648E-01   3705.08693105    1.00021846E-06   4.09623964E+17   1.57899285E+08   2.85555738E+09   1.57416584E+09   0.099349104     
  80               3.38844156E+01   2.30686211E-01   3737.57138888    1.08830101E-06   4.47051935E+17   1.40401127E+08   2.87307478E+09   1.51005859E+09   0.10073112      
  81               3.98107171E+01   2.53961823E-01   3778.02134541    1.17878567E-06   4.86888895E+17   1.27278063E+08   2.88623825E+09   1.44507070E+09   0.10332028      
  82               4.67735141E+01   2.79576293E-01   3812.99564144    1.28151315E-06   5.31079910E+17   1.13776566E+08   2.89976568E+09   1.37916617E+09   0.10552449      
  83               5.49540874E+01   3.07757920E-01   3855.84097531    1.38734967E-06   5.78117298E+17   1.03434643E+08   2.91012197E+09   1.31232621E+09   0.10849181      
  84               6.45654229E+01   3.38756094E-01   3893.68771314    1.50679755E-06   6.30161460E+17   9.22420060E+07   2.92131047E+09   1.24452668E+09   0.11068326      
  85               7.58577575E+01   3.72828039E-01   3938.99152476    1.63038011E-06   6.85566140E+17   8.35349145E+07   2.93000656E+09   1.17578017E+09   0.11346975      
  86               8.91250938E+01   4.10252227E-01   3979.62432747    1.76906009E-06   7.46680329E+17   7.41246008E+07   2.93940341E+09   1.10609355E+09   0.11557809      
  87               1.04712855E+02   4.51305500E-01   4027.31858459    1.91292211E-06   8.11671842E+17   6.67942472E+07   2.94674573E+09   1.03551809E+09   0.11818951      
  88               1.23026877E+02   4.96284906E-01   4070.56371518    2.07338207E-06   8.83084678E+17   5.89303424E+07   2.95462153E+09   9.64094894E+08   0.1201483       
  89               1.44543977E+02   5.45474379E-01   4120.43729361    2.24005416E-06   9.58863720E+17   5.29798369E+07   2.96058501E+09   8.91912958E+08   0.12301471      
  90               1.69824365E+02   5.99176488E-01   4166.36374346    2.42434897E-06   1.04165384E+18   4.68631992E+07   2.96670895E+09   8.19037819E+08   0.12582281      
  91               1.99526231E+02   6.57667734E-01   4218.90390951    2.61524178E-06   1.12910087E+18   4.23383440E+07   2.97123660E+09   7.45575786E+08   0.12994191      
  92               2.34422882E+02   7.21234916E-01   4268.29512435    2.82400650E-06   1.22390622E+18   3.76291812E+07   2.97596956E+09   6.71604845E+08   0.13383184      
  93               2.75422870E+02   7.90124057E-01   4324.11421418    3.03953229E-06   1.32350007E+18   3.39463075E+07   2.97965982E+09   5.97244530E+08   0.13846771      
  94               3.23593657E+02   8.64585891E-01   4377.11178376    3.27315931E-06   1.43069265E+18   3.00802052E+07   2.98352058E+09   5.22588377E+08   0.14236876      
  95               3.80189396E+02   9.44832520E-01   4435.91852453    3.51393635E-06   1.54275553E+18   2.70051857E+07   2.98658479E+09   4.47758861E+08   0.14694747      
  96               4.46683592E+02   1.03108336E+00   4492.16701862    3.77275760E-06   1.66250792E+18   2.39534274E+07   2.98963907E+09   3.72845964E+08   0.1512824       
  97               5.24807460E+02   1.12352329E+00   4553.98575096    4.03846683E-06   1.78696585E+18   2.15646592E+07   2.99204214E+09   2.97951770E+08   0.15674714      
  98               6.16595002E+02   1.22233476E+00   4613.87043119    4.32131002E-06   1.91889234E+18   1.92460813E+07   2.99436552E+09   2.23149981E+08   0.16218605      
  99               7.24435960E+02   1.32766853E+00   4679.25575480    4.61029154E-06   2.05512725E+18   1.74131458E+07   2.99619038E+09   1.48518517E+08   0.16881043      
  100              8.51138038E+02   1.43966165E+00   4743.37347043    4.91499843E-06   2.19836072E+18   1.56414789E+07   2.99794712E+09   7.41160745E+07   0.17537454      
  101              1.00000000E+03   1.55842598E+00   4812.88871449    5.22488556E-06   2.34534211E+18   1.52228012E+07   2.99836727E+09   0.00000000E+00   0.18320579      
