# ATMO pressure-temperature profile
# Effective temperature = 550.0K
# log(g) = 3.5cm/s^2
# M/H = 0.0
# Optical depth grid in band 17 (1.20-1.33microns)
# All parameters in cgs units
#
# Model Level      Optical Depth    Pressure         Temperature      Density          Number Density   Rad Flux         Conv Flux        Radial Extension Adiabatic Gradient
#                                   [Ba]             [K]              [g/cm^3]         [/cm^3]          [ergs/s/cm^2/sr] [ergs/s/cm^2/sr] [cm]             [K/Ba]          
  1                5.00000000E-05   1.00000000E-05   95.36210372      2.95776047E-09   7.59538892E+14   5.18820298E+06   0.00000000E+00   1.07091431E+08   0.34612403      
  2                5.91534807E-05   2.88082950E-05   123.18888537     6.59606376E-09   1.69383799E+15   5.18820298E+06   0.00000000E+00   1.05744872E+08   0.3437027       
  3                6.99826855E-05   5.03421197E-05   136.66884377     1.03896479E-08   2.66801224E+15   5.18820297E+06   0.00000000E+00   1.04922291E+08   0.34217326      
  4                8.27943887E-05   7.55405557E-05   142.92913206     1.49072790E-08   3.82811749E+15   5.18820298E+06   0.00000000E+00   1.04282005E+08   0.32295615      
  5                9.79515255E-05   1.05142507E-04   149.56998701     1.98277517E-08   5.09166369E+15   5.18820302E+06   0.00000000E+00   1.03737522E+08   0.32319394      
  6                1.15883473E-04   1.39984597E-04   152.99658475     2.58073610E-08   6.62711268E+15   5.18820283E+06   0.00000000E+00   1.03250446E+08   0.32558551      
  7                1.37098216E-04   1.81034486E-04   157.19200392     3.24843166E-08   8.34174103E+15   5.18820262E+06   0.00000000E+00   1.02802110E+08   0.32552785      
  8                1.62196734E-04   2.29418785E-04   159.75389376     4.05076911E-08   1.04016770E+16   5.18820231E+06   0.00000000E+00   1.02380316E+08   0.32586079      
  9                1.91890027E-04   2.86448075E-04   163.33687295     4.94676909E-08   1.27024505E+16   5.18820203E+06   0.00000000E+00   1.01977442E+08   0.32551796      
  10               2.27019260E-04   3.53620486E-04   165.21177388     6.03732582E-08   1.55032326E+16   5.18820321E+06   0.00000000E+00   1.01588748E+08   0.32589717      
  11               2.68579588E-04   4.32618115E-04   168.70972584     7.23442061E-08   1.85733576E+16   5.18820426E+06   0.00000000E+00   1.01210735E+08   0.32579054      
  12               3.17748350E-04   5.25801532E-04   172.32160752     8.60837710E-08   2.21007977E+16   5.18820226E+06   0.00000000E+00   1.00837334E+08   0.32438253      
  13               3.75918418E-04   6.35097674E-04   175.34336926     1.02179455E-07   2.62347551E+16   5.18820352E+06   0.00000000E+00   1.00468813E+08   0.3239729       
  14               4.44737657E-04   7.62614575E-04   178.59157202     1.20521136E-07   3.09292922E+16   5.18820483E+06   0.00000000E+00   1.00105417E+08   0.32128383      
  15               5.26155608E-04   9.12766846E-04   182.60219522     1.41057993E-07   3.62059296E+16   5.18820439E+06   0.00000000E+00   9.97412488E+07   0.32079994      
  16               6.22478712E-04   1.08713748E-03   185.55053972     1.65556296E-07   4.24373335E+16   5.18820386E+06   0.00000000E+00   9.93803591E+07   0.31930981      
  17               7.36435649E-04   1.28755619E-03   190.38304817     1.91002598E-07   4.89850724E+16   5.18820277E+06   0.00000000E+00   9.90239525E+07   0.3187762       
  18               8.71254639E-04   1.51369035E-03   194.17197131     2.21030406E-07   5.64646113E+16   5.18820287E+06   0.00000000E+00   9.86757433E+07   0.31730219      
  19               1.03075489E-03   1.76169742E-03   201.38976077     2.48024996E-07   6.33606716E+16   5.18820268E+06   0.00000000E+00   9.83407854E+07   0.31686844      
  20               1.21945479E-03   2.05209573E-03   209.20803954     2.78112665E-07   7.10468924E+16   5.18820259E+06   0.00000000E+00   9.79911334E+07   0.31538693      
  21               1.44269991E-03   2.39230874E-03   215.60896364     3.14595085E-07   8.03667218E+16   5.18820235E+06   0.00000000E+00   9.76274156E+07   0.3149457       
  22               1.70681442E-03   2.79103068E-03   222.74538572     3.55269082E-07   9.07573349E+16   5.18820216E+06   0.00000000E+00   9.72502644E+07   0.31345432      
  23               2.01928028E-03   3.25840425E-03   228.75088115     4.03871965E-07   1.03173468E+17   5.18820199E+06   0.00000000E+00   9.68600857E+07   0.31301378      
  24               2.38894914E-03   3.80632260E-03   235.64818088     4.57976318E-07   1.16995011E+17   5.18820178E+06   0.00000000E+00   9.64572087E+07   0.31156366      
  25               2.82629313E-03   4.44869442E-03   241.51337787     5.22267380E-07   1.33418859E+17   5.18820158E+06   0.00000000E+00   9.60418546E+07   0.31105194      
  26               3.34370152E-03   5.20174166E-03   248.43289257     5.93664668E-07   1.51658069E+17   5.18820137E+06   0.00000000E+00   9.56141881E+07   0.3096267       
  27               3.95583167E-03   6.08431657E-03   254.47447996     6.77905388E-07   1.73178274E+17   5.18820114E+06   0.00000000E+00   9.51742451E+07   0.30913499      
  28               4.68002425E-03   7.11857093E-03   261.64201765     7.71412809E-07   1.97065757E+17   5.18820092E+06   0.00000000E+00   9.47219734E+07   0.30787037      
  29               5.53679448E-03   8.33033619E-03   267.94167402     8.81502973E-07   2.25189482E+17   5.18820068E+06   0.00000000E+00   9.42572836E+07   0.30744968      
  30               6.55041330E-03   9.74965593E-03   275.45727370     1.00354433E-06   2.56366270E+17   5.18820046E+06   0.00000000E+00   9.37800840E+07   0.30632654      
  31               7.74959494E-03   1.14112596E-02   282.27084414     1.14622290E-06   2.92815055E+17   5.18820020E+06   0.00000000E+00   9.32901646E+07   0.30592692      
  32               9.16831029E-03   1.33556032E-02   290.42402776     1.30386456E-06   3.33086325E+17   5.18819994E+06   0.00000000E+00   9.27872176E+07   0.30503342      
  33               1.08467493E-02   1.56300111E-02   297.91814660     1.48752354E-06   3.80004000E+17   5.18819965E+06   0.00000000E+00   9.22707772E+07   0.30471448      
  34               1.28324595E-02   1.82894208E-02   306.83693673     1.69002773E-06   4.31735890E+17   5.18819936E+06   0.00000000E+00   9.17403737E+07   0.30381053      
  35               1.51816929E-02   2.13971670E-02   315.28502122     1.92421881E-06   4.91562537E+17   5.18819903E+06   0.00000000E+00   9.11954052E+07   0.30341891      
  36               1.79609996E-02   2.50263021E-02   325.35200594     2.18094501E-06   5.57146023E+17   5.18819867E+06   0.00000000E+00   9.06351917E+07   0.30261991      
  37               2.12491128E-02   2.92615584E-02   335.06297051     2.47612483E-06   6.32552908E+17   5.18819827E+06   0.00000000E+00   9.00588619E+07   0.30237561      
  38               2.51391797E-02   3.42013329E-02   346.40331489     2.79938430E-06   7.15133021E+17   5.18819788E+06   0.00000000E+00   8.94655411E+07   0.30180449      
  39               2.97413996E-02   3.99598710E-02   357.43507363     3.16977470E-06   8.09753345E+17   5.18819747E+06   0.00000000E+00   8.88542236E+07   0.30159168      
  40               3.51861462E-02   4.66697475E-02   370.32362376     3.57319089E-06   9.12808915E+17   5.18819706E+06   0.00000000E+00   8.82237418E+07   0.30111522      
  41               4.16276604E-02   5.44830964E-02   383.24021198     4.03081497E-06   1.02971384E+18   5.18819656E+06   0.00000000E+00   8.75726942E+07   0.3009126       
  42               4.92484201E-02   6.35768964E-02   398.27407647     4.52605013E-06   1.15622705E+18   5.18819612E+06   0.00000000E+00   8.68994241E+07   0.30054402      
  43               5.82643093E-02   7.41580149E-02   413.54683007     5.08434857E-06   1.29885072E+18   5.18819568E+06   0.00000000E+00   8.62019079E+07   0.30036777      
  44               6.89307339E-02   8.64770289E-02   431.56021949     5.68145169E-06   1.45139357E+18   5.18819533E+06   0.00000000E+00   8.54770900E+07   0.30010156      
  45               8.15498567E-02   1.00872156E-01   452.01123595     6.32773519E-06   1.61639654E+18   5.17679102E+06   1.14051064E+04   8.47178555E+07   0.29997677      
  46               9.64791575E-02   1.17839668E-01   473.53908984     7.05615841E-06   1.80244290E+18   5.15280380E+06   3.53924002E+04   8.39148617E+07   0.29979739      
  47               1.14141560E-01   1.38157953E-01   496.71074831     7.88680674E-06   2.01464334E+18   5.12902482E+06   5.91711963E+04   8.30535616E+07   0.29970964      
  48               1.35037411E-01   1.63069109E-01   521.96302051     8.85839550E-06   2.26286061E+18   5.10714879E+06   8.10466488E+04   8.21110887E+07   0.29952788      
  49               1.59758657E-01   1.94393343E-01   550.20700174     1.00177714E-05   2.55906382E+18   5.09438834E+06   9.38062955E+04   8.10595602E+07   0.29943386      
  50               1.89005613E-01   2.34407385E-01   581.87719331     1.14221622E-05   2.91786903E+18   5.09207308E+06   9.61206910E+04   7.98766380E+07   0.29926768      
  51               2.23606798E-01   2.85363057E-01   617.19132230     1.31093082E-05   3.34891232E+18   5.09105993E+06   9.71330994E+04   7.85598032E+07   0.29916105      
  52               2.64542408E-01   3.48905465E-01   655.40259049     1.50937256E-05   3.85589729E+18   5.07719034E+06   1.11002186E+05   7.71313122E+07   0.29888413      
  53               3.12972084E-01   4.26039023E-01   695.73175714     1.73620444E-05   4.43540613E+18   5.03151405E+06   1.56677932E+05   7.56245456E+07   0.29869202      
  54               3.70267763E-01   5.17155716E-01   737.15609154     1.98908371E-05   5.08145062E+18   4.93940542E+06   2.48786110E+05   7.40740454E+07   0.29827511      
  55               4.38052539E-01   6.22352225E-01   778.99538086     2.26513368E-05   5.78664984E+18   4.80985862E+06   3.78332463E+05   7.25068287E+07   0.29791502      
  56               5.18246648E-01   7.42245556E-01   820.93944458     2.56348315E-05   6.54880898E+18   4.66533724E+06   5.22853661E+05   7.09334482E+07   0.29714541      
  57               6.13121862E-01   8.77798868E-01   862.81394035     2.88450291E-05   7.36891764E+18   4.53874399E+06   6.49446889E+05   6.93570722E+07   0.29659553      
  58               7.25365844E-01   1.03009615E+00   904.74580034     3.22807685E-05   8.24663982E+18   4.44838746E+06   7.39803546E+05   6.77787870E+07   0.29554616      
  59               8.58158289E-01   1.20041295E+00   946.44046738     3.59609377E-05   9.18677777E+18   4.41432213E+06   7.73869003E+05   6.61980060E+07   0.29478628      
  60               1.01526100E+00   1.39095183E+00   988.50211907     3.98967676E-05   1.01920214E+19   4.44132318E+06   7.46868140E+05   6.46072508E+07   0.29328737      
  61               1.20112443E+00   1.60500633E+00   1030.60206063    4.41551120E-05   1.12800645E+19   4.54846232E+06   6.39729490E+05   6.29944908E+07   0.29234738      
  62               1.42101382E+00   1.84742070E+00   1074.01666641    4.87679942E-05   1.24589265E+19   4.73340008E+06   4.54792183E+05   6.13424952E+07   0.29058427      
  63               1.68115827E+00   2.12579047E+00   1118.29234485    5.38914697E-05   1.37686368E+19   5.00041552E+06   1.87776847E+05   5.96253487E+07   0.28953552      
  64               1.98892727E+00   2.45205482E+00   1165.77236484    5.96255365E-05   1.52349930E+19   5.18818704E+06   0.00000000E+00   5.78051782E+07   0.2874327       
  65               2.35303941E+00   2.84217557E+00   1210.06475181    6.65758270E-05   1.70124997E+19   5.18818895E+06   0.00000000E+00   5.58470565E+07   0.28629422      
  66               2.78380943E+00   3.31211958E+00   1251.07453355    7.50343148E-05   1.91755869E+19   5.18818848E+06   0.00000000E+00   5.37444023E+07   0.28397874      
  67               3.29344035E+00   3.87717116E+00   1291.52672288    8.50775611E-05   2.17438987E+19   5.18818837E+06   0.00000000E+00   5.15079583E+07   0.28276127      
  68               3.89636920E+00   4.55269241E+00   1330.58135420    9.69622234E-05   2.47829337E+19   5.18818714E+06   0.00000000E+00   4.91559706E+07   0.2802233       
  69               4.60967600E+00   5.35342185E+00   1370.62833370    1.10678241E-04   2.82903032E+19   5.18818760E+06   0.00000000E+00   4.67116545E+07   0.27880644      
  70               5.45356761E+00   6.29357399E+00   1410.67366557    1.26415382E-04   3.23144391E+19   5.18818566E+06   0.00000000E+00   4.41982060E+07   0.2772309       
  71               6.45195012E+00   7.38782773E+00   1452.94347980    1.44071339E-04   3.68293352E+19   5.18818719E+06   0.00000000E+00   4.16341222E+07   0.27558423      
  72               7.63310614E+00   8.65244986E+00   1496.20196148    1.63848756E-04   4.18865616E+19   5.18818434E+06   0.00000000E+00   3.90312487E+07   0.27382291      
  73               9.03049593E+00   1.01008685E+01   1542.26969585    1.85559212E-04   4.74377665E+19   5.18818692E+06   0.00000000E+00   3.64044025E+07   0.2720195       
  74               1.06837053E+01   1.17343426E+01   1589.73968771    2.09134536E-04   5.34636477E+19   5.18818398E+06   0.00000000E+00   3.37822123E+07   0.27026475      
  75               1.26395671E+01   1.35209829E+01   1640.21660609    2.33656044E-04   5.97080516E+19   5.18818598E+06   0.00000000E+00   3.12261649E+07   0.2685522       
  76               1.49534878E+01   1.54167055E+01   1692.01426637    2.58259814E-04   6.59953590E+19   5.18818526E+06   0.00000000E+00   2.87857655E+07   0.26679015      
  77               1.76910170E+01   1.73676780E+01   1746.36902185    2.81931366E-04   7.20330126E+19   4.90175880E+06   2.86426184E+05   2.64993228E+07   0.26505041      
  78               2.09297047E+01   1.92505463E+01   1794.60372020    3.04219531E-04   7.76962993E+19   4.15220076E+06   1.03598681E+06   2.44661771E+07   0.26328261      
  79               2.47612977E+01   2.08919131E+01   1833.41572125    3.23590584E-04   8.25359396E+19   3.35925501E+06   1.82894756E+06   2.28116962E+07   0.26164622      
  80               2.92943389E+01   2.22071407E+01   1862.96062644    3.38500656E-04   8.63405494E+19   2.90926859E+06   2.27892852E+06   2.15550197E+07   0.26000905      
  81               3.46572422E+01   2.36618508E+01   1893.73776676    3.54805742E-04   9.05012778E+19   2.76347355E+06   2.42472819E+06   2.02276201E+07   0.25844559      
  82               4.10019301E+01   2.52645852E+01   1926.11293478    3.72457850E-04   9.50071442E+19   2.46854393E+06   2.71965333E+06   1.88334107E+07   0.25714439      
  83               4.85081376E+01   2.65885423E+01   1951.38604234    3.87000578E-04   9.86909145E+19   2.05746722E+06   3.13073968E+06   1.77306137E+07   0.2559412       
  84               5.73885036E+01   2.76247965E+01   1970.64761118    3.98147140E-04   1.01535043E+20   1.82985833E+06   3.35931979E+06   1.68958014E+07   0.25495144      
  85               6.78945948E+01   2.87934875E+01   1991.42748701    4.10653469E-04   1.04726265E+20   1.74955921E+06   3.44174633E+06   1.59818138E+07   0.25402368      
  86               8.03240320E+01   3.01060746E+01   2014.17911755    4.24514595E-04   1.08263455E+20   1.66890683E+06   3.51941889E+06   1.49876814E+07   0.25337509      
  87               9.50289215E+01   3.15737972E+01   2038.48631905    4.39874502E-04   1.12187599E+20   1.47343544E+06   3.71481759E+06   1.39136092E+07   0.25277622      
  88               1.12425830E+02   3.26372335E+01   2055.70252547    4.51275829E-04   1.14994987E+20   1.20200154E+06   3.98623894E+06   1.31587270E+07   0.25227469      
  89               1.33007583E+02   3.33865416E+01   2067.39822091    4.59018745E-04   1.16969635E+20   1.06946017E+06   4.12980127E+06   1.26381030E+07   0.25174325      
  90               1.57357229E+02   3.42469871E+01   2080.76965700    4.67816186E-04   1.19213161E+20   1.03716241E+06   4.15151649E+06   1.20509238E+07   0.25120122      
  91               1.86164557E+02   3.52314396E+01   2095.52076248    4.77867110E-04   1.21776717E+20   1.00302441E+06   4.18569543E+06   1.13925028E+07   0.25056524      
  92               2.20245630E+02   3.63572652E+01   2112.18001461    4.89236896E-04   1.24676935E+20   9.71295766E+05   4.21745773E+06   1.06561973E+07   0.24988735      
  93               2.60565913E+02   3.76404788E+01   2130.44318729    5.02149110E-04   1.27970840E+20   9.36058961E+05   4.25274283E+06   9.83750045E+06   0.24920391      
  94               3.08267614E+02   3.90981548E+01   2150.78552177    5.16645923E-04   1.31669443E+20   9.00061584E+05   4.28881421E+06   8.93250099E+06   0.24849195      
  95               3.64702046E+02   4.07484490E+01   2172.86140194    5.32962856E-04   1.35832876E+20   8.60960830E+05   4.32798419E+06   7.93797390E+06   0.24768774      
  96               4.31467909E+02   4.26106684E+01   2197.10736590    5.51144997E-04   1.40473016E+20   8.20883965E+05   4.36821102E+06   6.85142395E+06   0.24676488      
  97               5.10456573E+02   4.47053689E+01   2223.12567142    5.71442011E-04   1.45653696E+20   7.78467255E+05   4.41073971E+06   5.67109454E+06   0.24573583      
  98               6.03905660E+02   4.70545080E+01   2251.32574991    5.93899299E-04   1.51387054E+20   7.35492978E+05   4.45394674E+06   4.39592882E+06   0.24457112      
  99               7.14462436E+02   4.96816460E+01   2281.25743738    6.18786115E-04   1.57742064E+20   6.91142351E+05   4.49858106E+06   3.02549937E+06   0.2433046       
  100              8.45258798E+02   5.26122085E+01   2313.31666079    6.46148697E-04   1.64731740E+20   6.46193748E+05   4.54458535E+06   1.55990077E+06   0.24189784      
  101              1.00000000E+03   5.58730900E+01   2346.99823654    6.76350510E-04   1.72431167E+20   6.20981885E+05   4.57068428E+06   0.00000000E+00   0.24037426      
