# ATMO pressure-temperature profile
# Effective temperature = 300.0K
# log(g) = 4.0cm/s^2
# M/H = 0.0
# Optical depth grid in band 17 (1.20-1.33microns)
# All parameters in cgs units
#
# Model Level      Optical Depth    Pressure         Temperature      Density          Number Density   Rad Flux         Conv Flux        Radial Extension Adiabatic Gradient
#                                   [Ba]             [K]              [g/cm^3]         [/cm^3]          [ergs/s/cm^2/sr] [ergs/s/cm^2/sr] [cm]             [K/Ba]          
  1                5.00000000E-05   1.00000000E-05   40.10225451      7.02811324E-09   1.80616345E+15   4.59151756E+05   0.00000000E+00   2.58042563E+07   0.34612403      
  2                5.91534807E-05   4.69642629E-04   54.54451104      2.42674418E-07   6.23651969E+16   4.59151756E+05   0.00000000E+00   2.46912723E+07   0.31479422      
  3                6.99826855E-05   1.00943320E-03   61.09195070      4.65694524E-07   1.19679408E+17   4.59151701E+05   0.00000000E+00   2.45307029E+07   0.31483438      
  4                8.27943887E-05   1.64371291E-03   64.86988632      7.14151528E-07   1.83530678E+17   4.59151734E+05   0.00000000E+00   2.44207175E+07   0.3148592       
  5                9.79515255E-05   2.38865646E-03   69.72013015      9.65612867E-07   2.48154037E+17   4.59151766E+05   0.00000000E+00   2.43310104E+07   0.31487816      
  6                1.15883473E-04   3.26192525E-03   72.22897529      1.27282908E-06   3.27105910E+17   4.59151852E+05   0.00000000E+00   2.42522403E+07   0.31489416      
  7                1.37098216E-04   4.27526185E-03   77.09326478      1.56298144E-06   4.01672520E+17   4.59151919E+05   0.00000000E+00   2.41803961E+07   0.31490843      
  8                1.62196734E-04   5.44154338E-03   79.36842769      1.93233250E-06   4.96592503E+17   4.59151999E+05   0.00000000E+00   2.41132864E+07   0.31492162      
  9                1.91890027E-04   6.77852977E-03   84.62421605      2.25760724E-06   5.80185257E+17   4.59151953E+05   0.00000000E+00   2.40492743E+07   0.31493408      
  10               2.27019260E-04   8.31322181E-03   86.83210841      2.69833932E-06   6.93449535E+17   4.59151767E+05   0.00000000E+00   2.39870946E+07   0.31494606      
  11               2.68579588E-04   1.00820294E-02   92.49995634      3.07194878E-06   7.89463889E+17   4.59151334E+05   0.00000000E+00   2.39256582E+07   0.31495773      
  12               3.17748350E-04   1.21214056E-02   95.99795018      3.55875887E-06   9.14569812E+17   4.59149883E+05   0.00000000E+00   2.38639787E+07   0.31496924      
  13               3.75918418E-04   1.44822278E-02   101.62943121     4.01627350E-06   1.03214739E+18   4.59147355E+05   4.41610814E+00   2.38015330E+07   0.31498073      
  14               4.44737657E-04   1.72078495E-02   107.19973935     4.52418715E-06   1.16267600E+18   4.59141148E+05   1.06378657E+01   2.37375914E+07   0.31499231      
  15               5.26155608E-04   2.02768123E-02   112.99523933     5.05766483E-06   1.29976660E+18   4.59128233E+05   2.35548870E+01   2.36734339E+07   0.31500408      
  16               6.22478712E-04   2.34198989E-02   118.12986356     5.58781244E-06   1.43598913E+18   4.59104484E+05   4.74764297E+01   2.36143099E+07   0.31501612      
  17               7.36435649E-04   2.58649784E-02   122.00041218     5.97664199E-06   1.53559490E+18   4.59075271E+05   7.79512930E+01   2.35719983E+07   0.31502854      
  18               8.71254639E-04   2.77699117E-02   124.64318178     6.28022988E-06   1.61373349E+18   4.59048294E+05   1.06110715E+02   2.35409052E+07   0.31554974      
  19               1.03075489E-03   2.92415857E-02   126.81674069     6.50373989E-06   1.67012960E+18   4.59024005E+05   1.28827029E+02   2.35178759E+07   0.31558633      
  20               1.21945479E-03   3.03075267E-02   128.13071504     6.67169337E-06   1.71325926E+18   4.59008079E+05   1.42925451E+02   2.35016938E+07   0.31944739      
  21               1.44269991E-03   3.15642560E-02   129.95127439     6.85099807E-06   1.75930385E+18   4.58998672E+05   1.52344389E+02   2.34831052E+07   0.31960428      
  22               1.70681442E-03   3.30452853E-02   131.72168807     7.07605255E-06   1.81709678E+18   4.58995007E+05   1.56083695E+02   2.34618341E+07   0.32258873      
  23               2.01928028E-03   3.47898226E-02   134.09484543     7.31777348E-06   1.87916957E+18   4.58997011E+05   1.54124691E+02   2.34375906E+07   0.32280195      
  24               2.38894914E-03   3.68437301E-02   136.43035839     7.61713063E-06   1.95604307E+18   4.59005225E+05   1.46015339E+02   2.34100803E+07   0.32488385      
  25               2.82629313E-03   3.92605710E-02   139.46651088     7.94009150E-06   2.03897788E+18   4.59019892E+05   1.31419769E+02   2.33790032E+07   0.32503448      
  26               3.34370152E-03   4.21028805E-02   142.47747489     8.33497748E-06   2.14038273E+18   4.59041498E+05   1.09943569E+02   2.33440646E+07   0.32596346      
  27               3.95583167E-03   4.54435819E-02   146.27625480     8.76269223E-06   2.25021784E+18   4.59069423E+05   8.21158402E+01   2.33049745E+07   0.32581994      
  28               4.68002425E-03   4.93676501E-02   150.06187513     9.27920821E-06   2.38285670E+18   4.59102219E+05   4.94725983E+01   2.32614571E+07   0.3252015       
  29               5.53679448E-03   5.39739225E-02   154.69280399     9.84130538E-06   2.52720056E+18   4.59134352E+05   1.74726507E+01   2.32132548E+07   0.3251931       
  30               6.55041330E-03   5.93776497E-02   159.34723658     1.05103532E-05   2.69900884E+18   4.59149503E+05   0.00000000E+00   2.31601225E+07   0.32496699      
  31               7.74959494E-03   6.57147336E-02   163.66871708     1.13249445E-05   2.90819091E+18   4.59150298E+05   0.00000000E+00   2.31020377E+07   0.32499681      
  32               9.16831029E-03   7.31442141E-02   167.71911125     1.23008844E-05   3.15880826E+18   4.59154590E+05   0.00000000E+00   2.30390911E+07   0.3248184       
  33               1.08467493E-02   8.18509006E-02   172.37402849     1.33934142E-05   3.43935869E+18   4.59150339E+05   0.00000000E+00   2.29712584E+07   0.32484036      
  34               1.28324595E-02   9.20511620E-02   176.31620620     1.47257117E-05   3.78148936E+18   4.59155460E+05   0.00000000E+00   2.28986265E+07   0.32444633      
  35               1.51816929E-02   1.03996506E-01   181.53664952     1.61583466E-05   4.14935196E+18   4.59149728E+05   0.00000000E+00   2.28211870E+07   0.32439581      
  36               1.79609996E-02   1.17977562E-01   185.49689211     1.79391962E-05   4.60668610E+18   4.59160308E+05   0.00000000E+00   2.27390686E+07   0.32355978      
  37               2.12491128E-02   1.34329999E-01   191.58698067     1.97772038E-05   5.07846962E+18   4.59153784E+05   0.00000000E+00   2.26522522E+07   0.32329894      
  38               2.51391797E-02   1.53433802E-01   196.87340555     2.19829010E-05   5.64494654E+18   4.59154872E+05   0.00000000E+00   2.25606312E+07   0.32194268      
  39               2.97413996E-02   1.75728211E-01   205.88748358     2.40766242E-05   6.18211931E+18   4.59027876E+05   1.26465293E+02   2.24637223E+07   0.32131959      
  40               3.51861462E-02   2.01602455E-01   214.92526105     2.64658357E-05   6.79413534E+18   4.57315443E+05   1.83854761E+03   2.23612166E+07   0.31944459      
  41               4.16276604E-02   2.31258949E-01   224.76363121     2.90450209E-05   7.45243759E+18   4.53306855E+05   5.84595576E+03   2.22542360E+07   0.31846595      
  42               4.92484201E-02   2.63762631E-01   234.13057495     3.19416355E-05   8.15982744E+18   4.46398053E+05   1.27551272E+04   2.21474488E+07   0.31647717      
  43               5.82643093E-02   2.98828214E-01   243.75719264     3.47589120E-05   8.87953042E+18   4.40065074E+05   1.90901231E+04   2.20422116E+07   0.31571273      
  44               6.89307339E-02   3.39729670E-01   253.60719425     3.79816582E-05   9.70281491E+18   4.35664776E+05   2.34934062E+04   2.19296426E+07   0.31410058      
  45               8.15498567E-02   3.87442762E-01   264.47450686     4.15361032E-05   1.06108353E+19   4.30814877E+05   2.83462342E+04   2.18095164E+07   0.31332492      
  46               9.64791575E-02   4.43094104E-01   275.61812126     4.55816684E-05   1.16443176E+19   4.24405006E+05   3.47588677E+04   2.16816173E+07   0.31182769      
  47               1.14141560E-01   5.07966777E-01   287.78203222     5.00464928E-05   1.27849041E+19   4.16065541E+05   4.31012480E+04   2.15457922E+07   0.31100989      
  48               1.35037411E-01   5.83549386E-01   300.26113677     5.51036677E-05   1.40768127E+19   4.05809794E+05   5.33608544E+04   2.14018644E+07   0.30960043      
  49               1.59758657E-01   6.71571722E-01   313.76552066     6.06860957E-05   1.55029028E+19   3.93841408E+05   6.53345760E+04   2.12496492E+07   0.30855991      
  50               1.89005613E-01   7.74025746E-01   327.60677846     6.69891615E-05   1.71130874E+19   3.80395391E+05   7.87877402E+04   2.10889616E+07   0.30685355      
  51               2.23606798E-01   8.93215633E-01   342.46296528     7.39511140E-05   1.88915913E+19   3.66345146E+05   9.28459019E+04   2.09196196E+07   0.3059715       
  52               2.64542408E-01   1.03184670E+00   357.73112389     8.17825164E-05   2.08922057E+19   3.52927243E+05   1.06271339E+05   2.07413579E+07   0.3045769       
  53               3.12972084E-01   1.19307580E+00   374.02687594     9.04414037E-05   2.31042069E+19   3.41557869E+05   1.17646594E+05   2.05538889E+07   0.30396999      
  54               3.70267763E-01   1.38046451E+00   390.82460038     1.00148724E-04   2.55840439E+19   3.32712596E+05   1.26493693E+05   2.03569928E+07   0.30293143      
  55               4.38052539E-01   1.59799962E+00   408.64642771     1.10874305E-04   2.83240143E+19   3.26892640E+05   1.32309646E+05   2.01505541E+07   0.3024611       
  56               5.18246648E-01   1.85014376E+00   427.02099091     1.22845817E-04   3.13821064E+19   3.23883230E+05   1.35312337E+05   1.99345041E+07   0.3016896       
  57               6.13121862E-01   2.14219391E+00   446.42409953     1.36055240E-04   3.47565762E+19   3.22662155E+05   1.36527159E+05   1.97086023E+07   0.3013657       
  58               7.25365844E-01   2.48011035E+00   466.44764198     1.50755191E-04   3.85118111E+19   3.19876277E+05   1.39306804E+05   1.94726547E+07   0.30087289      
  59               8.58158289E-01   2.87043807E+00   487.51230097     1.66943327E-04   4.26469957E+19   3.10863524E+05   1.48313535E+05   1.92266128E+07   0.30068371      
  60               1.01526100E+00   3.32029707E+00   509.21535486     1.84878587E-04   4.72281889E+19   2.93359146E+05   1.65812648E+05   1.89705486E+07   0.30036512      
  61               1.20112443E+00   3.83820029E+00   531.96818022     2.04587364E-04   5.22598090E+19   2.73780753E+05   1.85388037E+05   1.87042457E+07   0.30018887      
  62               1.42101382E+00   4.43473618E+00   555.43423874     2.26397646E-04   5.78310371E+19   2.55854113E+05   2.03314007E+05   1.84270661E+07   0.29995882      
  63               1.68115827E+00   5.12103459E+00   580.02895819     2.50348320E-04   6.39490170E+19   2.37797665E+05   2.21371697E+05   1.81387926E+07   0.29984142      
  64               1.98892727E+00   5.90930179E+00   605.35974542     2.76795535E-04   7.07047305E+19   2.20548365E+05   2.38623162E+05   1.78393444E+07   0.29967163      
  65               2.35303941E+00   6.81260245E+00   631.82340672     3.05740835E-04   7.80985868E+19   2.05405886E+05   2.53770245E+05   1.75288340E+07   0.29954845      
  66               2.78380943E+00   7.84649562E+00   659.02202817     3.37606961E-04   8.62385896E+19   1.93041607E+05   2.66141396E+05   1.72070285E+07   0.29938937      
  67               3.29344035E+00   9.03193206E+00   687.48199731     3.72523888E-04   9.51579706E+19   1.83165234E+05   2.76025588E+05   1.68727597E+07   0.29929161      
  68               3.89636920E+00   1.03922278E+01   716.84204140     4.11072912E-04   1.05005254E+20   1.74963090E+05   2.84236940E+05   1.65251458E+07   0.29911149      
  69               4.60967600E+00   1.19530455E+01   747.58860324     4.53365071E-04   1.15808848E+20   1.68249019E+05   2.90961242E+05   1.61635950E+07   0.29890704      
  70               5.45356761E+00   1.37426370E+01   779.29042245     5.00035751E-04   1.27731077E+20   1.63051163E+05   2.96170834E+05   1.57877318E+07   0.29859869      
  71               6.45195012E+00   1.57960981E+01   812.48334808     5.51269103E-04   1.40818979E+20   1.60303970E+05   2.98928492E+05   1.53966165E+07   0.29831739      
  72               7.63310614E+00   1.81596629E+01   846.85111771     6.08033257E-04   1.55319705E+20   1.60681334E+05   2.98555617E+05   1.49883697E+07   0.29792358      
  73               9.03049593E+00   2.08783003E+01   882.88996513     6.70525028E-04   1.71283054E+20   1.64743542E+05   2.94486934E+05   1.45625938E+07   0.29753794      
  74               1.06837053E+01   2.39890080E+01   919.98511433     7.39362718E-04   1.88867542E+20   1.72501866E+05   2.86709576E+05   1.41207957E+07   0.29696521      
  75               1.26395671E+01   2.75176050E+01   958.33502459     8.14173409E-04   2.07978821E+20   1.83280268E+05   2.75900639E+05   1.36660011E+07   0.29643293      
  76               1.49534878E+01   3.14874244E+01   997.23368184     8.95286598E-04   2.28699934E+20   1.95859275E+05   2.63280311E+05   1.32010238E+07   0.29569245      
  77               1.76910170E+01   3.59425629E+01   1037.09192257    9.82682785E-04   2.51025378E+20   2.08494302E+05   2.50597197E+05   1.27260453E+07   0.29500687      
  78               2.09297047E+01   4.09239863E+01   1077.40946398    1.07701499E-03   2.75120520E+20   2.19369915E+05   2.39672681E+05   1.22418321E+07   0.29402129      
  79               2.47612977E+01   4.64611322E+01   1118.39442086    1.17795113E-03   3.00898925E+20   2.29700960E+05   2.29302229E+05   1.17502316E+07   0.29312444      
  80               2.92943389E+01   5.25819903E+01   1159.55157432    1.28581291E-03   3.28452665E+20   2.41451533E+05   2.17519429E+05   1.12528840E+07   0.29197606      
  81               3.46572422E+01   5.93196255E+01   1201.09175770    1.40039808E-03   3.57723979E+20   2.53242929E+05   2.05693283E+05   1.07507807E+07   0.2908216       
  82               4.10019301E+01   6.67184559E+01   1242.69241678    1.52233477E-03   3.88873347E+20   2.63870766E+05   1.95029102E+05   1.02440438E+07   0.28949636      
  83               4.85081376E+01   7.48584888E+01   1284.77679093    1.65211283E-03   4.22026005E+20   2.73364886E+05   1.85498942E+05   9.73076716E+06   0.28826589      
  84               5.73885036E+01   8.38008756E+01   1327.09717465    1.79048452E-03   4.57374209E+20   2.80662803E+05   1.78171821E+05   9.21083263E+06   0.28686938      
  85               6.78945948E+01   9.35888132E+01   1369.77461683    1.93730398E-03   4.94880869E+20   2.85291701E+05   1.73545943E+05   8.68529062E+06   0.28553252      
  86               8.03240320E+01   1.04265266E+02   1412.52853163    2.09297144E-03   5.34648395E+20   2.87031389E+05   1.71833526E+05   8.15508180E+06   0.28400265      
  87               9.50289215E+01   1.15898517E+02   1455.52573207    2.25775294E-03   5.76744991E+20   2.86063660E+05   1.72806228E+05   7.61992404E+06   0.28257859      
  88               1.12425830E+02   1.28535893E+02   1498.57790384    2.43198392E-03   6.21256485E+20   2.82252119E+05   1.76586713E+05   7.08061333E+06   0.28102485      
  89               1.33007583E+02   1.42265956E+02   1541.83393638    2.61622972E-03   6.68327339E+20   2.76203208E+05   1.82565598E+05   6.53629237E+06   0.27953902      
  90               1.57357229E+02   1.57145423E+02   1585.17329335    2.81082534E-03   7.18043623E+20   2.67964763E+05   1.90707049E+05   5.98759429E+06   0.27797355      
  91               1.86164557E+02   1.73188826E+02   1628.47762667    3.01543512E-03   7.70307118E+20   2.58074236E+05   2.00500879E+05   5.43652425E+06   0.27655479      
  92               2.20245630E+02   1.90389745E+02   1671.57293560    3.22935625E-03   8.24981218E+20   2.46400586E+05   2.12115930E+05   4.88531097E+06   0.27502042      
  93               2.60565913E+02   2.08701250E+02   1714.19364681    3.45365907E-03   8.81842466E+20   2.33808036E+05   2.24700980E+05   4.33692852E+06   0.27355786      
  94               3.08267614E+02   2.28159579E+02   1756.40901943    3.68487030E-03   9.40890078E+20   2.21183003E+05   2.37348700E+05   3.79147733E+06   0.27199551      
  95               3.64702046E+02   2.48840113E+02   1798.20447844    3.92545184E-03   1.00232175E+21   2.08489986E+05   2.50073988E+05   3.24771693E+06   0.27057205      
  96               4.31467909E+02   2.70777485E+02   1839.70905591    4.17516133E-03   1.06607864E+21   1.95025372E+05   2.63577948E+05   2.70583459E+06   0.26902267      
  97               5.10456573E+02   2.93975647E+02   1880.67560023    4.43419208E-03   1.13220040E+21   1.83336410E+05   2.75405750E+05   2.16668246E+06   0.26765539      
  98               6.03905660E+02   3.18991970E+02   1922.19496173    4.70791697E-03   1.20201021E+21   1.71191301E+05   2.87829975E+05   1.61915672E+06   0.26611459      
  99               7.14462436E+02   3.45330290E+02   1963.00546647    4.99165578E-03   1.27420412E+21   1.55960071E+05   3.03437805E+05   1.07583446E+06   0.2647681       
  100              8.45258798E+02   3.72637294E+02   2002.95422382    5.28066381E-03   1.34753835E+21   1.43033360E+05   3.17041757E+05   5.43952700E+05   0.2633945       
  101              1.00000000E+03   4.02196006E+02   2043.42658750    5.59281617E-03   1.42562254E+21   1.37732451E+05   3.22750753E+05   0.00000000E+00   0.26207052      
