# ATMO pressure-temperature profile
# Effective temperature = 2500.0K
# log(g) = 3.0cm/s^2
# M/H = 0.0
# Optical depth grid in band 17 (1.20-1.33microns)
# All parameters in cgs units
#
# Model Level      Optical Depth    Pressure         Temperature      Density          Number Density   Rad Flux         Conv Flux        Radial Extension Adiabatic Gradient
#                                   [Ba]             [K]              [g/cm^3]         [/cm^3]          [ergs/s/cm^2/sr] [ergs/s/cm^2/sr] [cm]             [K/Ba]          
  1                1.00000000E-05   1.00000000E-05   1075.25772215    2.63407262E-10   6.73617358E+13   2.21479747E+09   0.00000000E+00   1.24371824E+09   0.28742189      
  2                1.20226443E-05   1.34063102E-05   1172.68182907    3.23814412E-10   8.28046845E+13   2.21479746E+09   0.00000000E+00   1.23205443E+09   0.28304245      
  3                1.44543977E-05   1.66786500E-05   1258.65513824    3.75753164E-10   9.59798314E+13   2.21479744E+09   0.00000000E+00   1.22267038E+09   0.28058057      
  4                1.73780083E-05   2.00284959E-05   1266.14562394    4.48921997E-10   1.14575172E+14   2.21479743E+09   0.00000000E+00   1.21451329E+09   0.27975362      
  5                2.08929613E-05   2.32695893E-05   1326.92215313    4.98447010E-10   1.27019124E+14   2.21479742E+09   0.00000000E+00   1.20766016E+09   0.27820461      
  6                2.51188643E-05   2.62804381E-05   1326.08076187    5.63304614E-10   1.43545131E+14   2.21479742E+09   0.00000000E+00   1.20197807E+09   0.27778841      
  7                3.01995172E-05   2.97646640E-05   1372.54054899    6.16311533E-10   1.57073037E+14   2.21479741E+09   0.00000000E+00   1.19606465E+09   0.27670733      
  8                3.63078055E-05   3.37993821E-05   1369.90347254    7.01221062E-10   1.78708263E+14   2.21479740E+09   0.00000000E+00   1.18992723E+09   0.27637603      
  9                4.36515832E-05   3.84859295E-05   1414.42285755    7.73175389E-10   1.97082723E+14   2.21479739E+09   0.00000000E+00   1.18356233E+09   0.27538405      
  10               5.24807460E-05   4.39310278E-05   1411.34188119    8.84532656E-10   2.25457649E+14   2.21479737E+09   0.00000000E+00   1.17697802E+09   0.27508127      
  11               6.30957344E-05   5.02660347E-05   1455.32696706    9.81240168E-10   2.50172685E+14   2.21479734E+09   0.00000000E+00   1.17017801E+09   0.27413404      
  12               7.58577575E-05   5.76271610E-05   1452.85031187    1.12692404E-09   2.87297729E+14   2.21479730E+09   0.00000000E+00   1.16317783E+09   0.27382481      
  13               9.12010839E-05   6.61733982E-05   1497.55080250    1.25495977E-09   3.20057282E+14   2.21479724E+09   0.00000000E+00   1.15599125E+09   0.27288905      
  14               1.09647820E-04   7.60501670E-05   1497.16318982    1.44274248E-09   3.67922943E+14   2.21479712E+09   0.00000000E+00   1.14865109E+09   0.27252996      
  15               1.31825674E-04   8.73531999E-05   1545.31541741    1.60462463E-09   4.09437409E+14   2.21479678E+09   0.00000000E+00   1.14122213E+09   0.27155468      
  16               1.58489319E-04   9.99988898E-05   1550.77212263    1.83047070E-09   4.67060385E+14   2.21479582E+09   0.00000000E+00   1.13384352E+09   0.27105312      
  17               1.90546072E-04   1.14235162E-04   1595.45895034    2.03095550E-09   5.18608951E+14   2.21479514E+09   0.00000000E+00   1.12645971E+09   0.21321652      
  18               2.29086765E-04   1.30006274E-04   1602.91734345    2.30051801E-09   5.87460976E+14   2.21479527E+09   0.00000000E+00   1.11916347E+09   0.21078002      
  19               2.75422870E-04   1.48322570E-04   1634.70196611    2.57187081E-09   6.57195371E+14   2.21479538E+09   0.00000000E+00   1.11163323E+09   0.20204208      
  20               3.31131121E-04   1.69594279E-04   1641.59636104    2.92834361E-09   7.48291231E+14   2.21479547E+09   0.00000000E+00   1.10388207E+09   0.20002647      
  21               3.98107171E-04   1.94304211E-04   1673.21772372    3.28894855E-09   8.41115421E+14   2.21479556E+09   0.00000000E+00   1.09591971E+09   0.19179502      
  22               4.78630092E-04   2.22995142E-04   1680.59820097    3.75798559E-09   9.61075150E+14   2.21479564E+09   0.00000000E+00   1.08775880E+09   0.19008909      
  23               5.75439937E-04   2.56329925E-04   1712.53797744    4.23507960E-09   1.08413893E+15   2.21479571E+09   0.00000000E+00   1.07940277E+09   0.18177162      
  24               6.91830971E-04   2.95042053E-04   1720.81293817    4.85110565E-09   1.24186989E+15   2.21479577E+09   0.00000000E+00   1.07086202E+09   0.17967172      
  25               8.31763771E-04   3.40008968E-04   1753.38761903    5.48016275E-09   1.40455347E+15   2.21479583E+09   0.00000000E+00   1.06214058E+09   0.17126955      
  26               1.00000000E-03   3.92195825E-04   1762.93513525    6.28659554E-09   1.61135961E+15   2.21479588E+09   0.00000000E+00   1.05324946E+09   0.16917882      
  27               1.20226443E-03   4.52753582E-04   1796.46206840    7.11164436E-09   1.82544891E+15   2.21479592E+09   0.00000000E+00   1.04419230E+09   0.16142506      
  28               1.44543977E-03   5.22932968E-04   1807.77992651    8.16118333E-09   2.09520394E+15   2.21479595E+09   0.00000000E+00   1.03498042E+09   0.15896747      
  29               1.73780083E-03   6.04213439E-04   1842.80060461    9.23389599E-09   2.37485924E+15   2.21479598E+09   0.00000000E+00   1.02561698E+09   0.15067376      
  30               2.08929613E-03   6.98155237E-04   1856.94066999    1.05842720E-08   2.72320171E+15   2.21479601E+09   0.00000000E+00   1.01611451E+09   0.14751525      
  31               2.51188643E-03   8.06513477E-04   1895.46959361    1.19491261E-08   3.08191493E+15   2.21479603E+09   0.00000000E+00   1.00647867E+09   0.13923361      
  32               3.01995172E-03   9.29633587E-04   1932.06571480    1.34759793E-08   3.48510407E+15   2.21385847E+09   9.33788078E+05   9.96775649E+08   0.13026835      
  33               3.63078055E-03   1.06996135E-03   1966.74999439    1.51928092E-08   3.94044048E+15   2.21197325E+09   2.81629431E+06   9.86967904E+08   0.12250456      
  34               4.36515832E-03   1.23032312E-03   1999.87894913    1.71282325E-08   4.45596033E+15   2.20906405E+09   5.72355584E+06   9.77026469E+08   0.11616437      
  35               5.24807460E-03   1.41392746E-03   2031.93841059    1.93114765E-08   5.04013802E+15   2.20500865E+09   9.77833714E+06   9.66930644E+08   0.11088608      
  36               6.30957344E-03   1.62448061E-03   2063.04252251    2.17792470E-08   5.70337849E+15   2.19965239E+09   1.51349378E+07   9.56663384E+08   0.10629943      
  37               7.58577575E-03   1.86631310E-03   2093.46437250    2.45712321E-08   6.45720790E+15   2.19281805E+09   2.19704191E+07   9.46208935E+08   0.10230228      
  38               9.12010839E-03   2.14439534E-03   2123.24696327    2.77351338E-08   7.31526700E+15   2.18431093E+09   3.04800093E+07   9.35556099E+08   0.098938453     
  39               1.09647820E-02   2.46441449E-03   2152.67924455    3.13194088E-08   8.29201864E+15   2.17391016E+09   4.08866873E+07   9.24697487E+08   0.096088844     
  40               1.31825674E-02   2.83287382E-03   2181.72290943    3.53843011E-08   9.40488477E+15   2.16137266E+09   5.34315613E+07   9.13628774E+08   0.09362794      
  41               1.58489319E-02   3.25720558E-03   2210.59416043    3.99910494E-08   1.06723975E+16   2.14643878E+09   6.83739489E+07   9.02348018E+08   0.091436636     
  42               1.90546072E-02   3.74589693E-03   2239.17793244    4.52167708E-08   1.21169428E+16   2.12884434E+09   8.59775806E+07   8.90855313E+08   0.089518302     
  43               2.29086765E-02   4.30861108E-03   2267.69753477    5.11371158E-08   1.37618876E+16   2.10831511E+09   1.06523878E+08   8.79152549E+08   0.087883768     
  44               2.75422870E-02   4.95631212E-03   2296.03999141    5.78472398E-08   1.56352576E+16   2.08456772E+09   1.30290269E+08   8.67243334E+08   0.086525049     
  45               3.31131121E-02   5.70139758E-03   2324.42944816    6.54385209E-08   1.77660466E+16   2.05729637E+09   1.57580908E+08   8.55132728E+08   0.085334198     
  46               3.98107171E-02   6.55311406E-03   2352.53302903    7.39908168E-08   2.01761286E+16   2.02616112E+09   1.88735228E+08   8.42891689E+08   0.084291764     
  47               4.78630092E-02   7.52630432E-03   2380.60401813    8.35942316E-08   2.28992075E+16   1.99098556E+09   2.23932951E+08   8.30516909E+08   0.083349873     
  48               5.75439937E-02   8.64344995E-03   2408.58304932    9.44519519E-08   2.59926965E+16   1.95170565E+09   2.63248181E+08   8.17944098E+08   0.08259862      
  49               6.91830971E-02   9.92420185E-03   2436.74765589    1.06690356E-07   2.94992430E+16   1.90811498E+09   3.06873117E+08   8.05185199E+08   0.081982371     
  50               8.31763771E-02   1.13904275E-02   2464.82816797    1.20488024E-07   3.34718113E+16   1.86007749E+09   3.54914444E+08   7.92252717E+08   0.081753061     
  51               1.00000000E-01   1.30632208E-02   2493.24142819    1.35942285E-07   3.79499994E+16   1.80731184E+09   4.07729946E+08   7.79181708E+08   0.081417594     
  52               1.20226443E-01   1.49678638E-02   2521.36685057    1.53285557E-07   4.29981355E+16   1.74969363E+09   4.65427024E+08   7.65986972E+08   0.080887453     
  53               1.44543977E-01   1.71350010E-02   2549.65843032    1.72683251E-07   4.86774670E+16   1.68729228E+09   5.27917410E+08   7.52666313E+08   0.080233566     
  54               1.73780083E-01   1.95988536E-02   2577.56253259    1.94447829E-07   5.50740860E+16   1.62037189E+09   5.94868400E+08   7.39220046E+08   0.079795916     
  55               2.08929613E-01   2.23972009E-02   2605.77483946    2.18735262E-07   6.22562128E+16   1.54920488E+09   6.66035728E+08   7.25650834E+08   0.079596196     
  56               2.51188643E-01   2.55714739E-02   2633.73551446    2.45909633E-07   7.03249515E+16   1.47409695E+09   7.41136544E+08   7.11963777E+08   0.079624454     
  57               3.01995172E-01   2.91669599E-02   2662.14198790    2.76126133E-07   7.93570999E+16   1.39531550E+09   8.19918692E+08   6.98165350E+08   0.079737235     
  58               3.63078055E-01   3.32330586E-02   2690.31419721    3.09829459E-07   8.94732370E+16   1.31318366E+09   9.02105088E+08   6.84263411E+08   0.079961185     
  59               4.36515832E-01   3.78235228E-02   2718.97947050    3.47165592E-07   1.00758545E+17   1.22799354E+09   9.87367626E+08   6.70266243E+08   0.080204519     
  60               5.24807460E-01   4.29967380E-02   2747.37445057    3.88674588E-07   1.13355734E+17   1.14011507E+09   1.07531388E+09   6.56182719E+08   0.080413999     
  61               6.30957344E-01   4.88162919E-02   2776.20673714    4.34507605E-07   1.27361693E+17   1.05004016E+09   1.16543264E+09   6.42021170E+08   0.080556213     
  62               7.58577575E-01   5.53513685E-02   2804.67663258    4.85321989E-07   1.42945802E+17   9.58514230E+08   1.25697187E+09   6.27789737E+08   0.08067308      
  63               9.12010839E-01   6.26773512E-02   2833.54286222    5.41255475E-07   1.60216296E+17   8.66478465E+08   1.34902617E+09   6.13495471E+08   0.080767536     
  64               1.09647820E+00   7.08762048E-02   2861.99581207    6.03098294E-07   1.79373094E+17   7.75174775E+08   1.44033133E+09   5.99144913E+08   0.080924089     
  65               1.31825674E+00   8.00371021E-02   2890.87442978    6.70944791E-07   2.00533977E+17   6.86054891E+08   1.52941045E+09   5.84743272E+08   0.081186092     
  66               1.58489319E+00   9.02566199E-02   2919.38705729    7.45714046E-07   2.23930488E+17   6.00729583E+08   1.61468060E+09   5.70295158E+08   0.081569064     
  67               1.90546072E+00   1.01639650E-01   2948.40468216    8.27446094E-07   2.49690436E+17   5.20800806E+08   1.69455548E+09   5.55803674E+08   0.082001668     
  68               2.29086765E+00   1.14300232E-01   2977.07264756    9.17259428E-07   2.78088812E+17   4.47771911E+08   1.76753512E+09   5.41270929E+08   0.082448275     
  69               2.75422870E+00   1.28363140E-01   3006.26005006    1.01516589E-06   3.09271305E+17   3.82782359E+08   1.83250672E+09   5.26697182E+08   0.082864858     
  70               3.31131121E+00   1.43963306E-01   3035.06680099    1.12252909E-06   3.43565381E+17   3.26411094E+08   1.88886487E+09   5.12083103E+08   0.083246995     
  71               3.98107171E+00   1.61244825E-01   3064.37298090    1.23929107E-06   3.81127249E+17   2.78625179E+08   1.93662437E+09   4.97430774E+08   0.083562967     
  72               4.78630092E+00   1.80367001E-01   3093.24264571    1.36711168E-06   4.22346533E+17   2.38825968E+08   1.97638216E+09   4.82739561E+08   0.083865228     
  73               5.75439937E+00   2.01506737E-01   3122.62298790    1.50587543E-06   4.67407695E+17   2.06077565E+08   2.00907888E+09   4.68005831E+08   0.084198907     
  74               6.91830971E+00   2.24859392E-01   3151.60047604    1.65757093E-06   5.16780020E+17   1.79081643E+08   2.03601866E+09   4.53224477E+08   0.084610986     
  75               8.31763771E+00   2.50640896E-01   3181.17868589    1.82198053E-06   5.70676133E+17   1.56716924E+08   2.05834129E+09   4.38388724E+08   0.085115255     
  76               1.00000000E+01   2.79088709E-01   3210.43859548    2.00147128E-06   6.29656569E+17   1.37815651E+08   2.07720910E+09   4.23491318E+08   0.085738047     
  77               1.20226443E+01   3.10464514E-01   3240.42168107    2.19568650E-06   6.93962940E+17   1.21755355E+08   2.09323838E+09   4.08523992E+08   0.086474714     
  78               1.44543977E+01   3.45055575E-01   3270.18854199    2.40743353E-06   7.64261700E+17   1.07737595E+08   2.10722993E+09   3.93478377E+08   0.08727312      
  79               1.73780083E+01   3.83179458E-01   3300.76495311    2.63627860E-06   8.40840184E+17   9.55214200E+07   2.11942438E+09   3.78345075E+08   0.088060748     
  80               2.08929613E+01   4.25187488E-01   3331.14572937    2.88568378E-06   9.24512279E+17   8.45778474E+07   2.13035058E+09   3.63114341E+08   0.088768825     
  81               2.51188643E+01   4.71471840E-01   3362.33191143    3.15524389E-06   1.01564285E+18   7.49264558E+07   2.13999353E+09   3.47775138E+08   0.089378222     
  82               3.01995172E+01   5.22469161E-01   3393.28999643    3.44921486E-06   1.11523277E+18   6.61954666E+07   2.14872274E+09   3.32316213E+08   0.08987176      
  83               3.63078055E+01   5.78668437E-01   3425.03075987    3.76722330E-06   1.22374564E+18   5.84877479E+07   2.15642359E+09   3.16725383E+08   0.090288946     
  84               4.36515832E+01   6.40614281E-01   3456.53087302    4.11439004E-06   1.34240022E+18   5.15433626E+07   2.16335621E+09   3.00990733E+08   0.09068752      
  85               5.24807460E+01   7.08914327E-01   3488.86094256    4.49021501E-06   1.47175640E+18   4.54782705E+07   2.16940486E+09   2.85100005E+08   0.091151361     
  86               6.30957344E+01   7.84241236E-01   3521.03630574    4.90064482E-06   1.61326240E+18   4.00670792E+07   2.17479573E+09   2.69041756E+08   0.091750395     
  87               7.58577575E+01   8.67340684E-01   3554.19508101    5.34485330E-06   1.76756053E+18   3.53844436E+07   2.17945576E+09   2.52804494E+08   0.092514182     
  88               9.12010839E+01   9.59035247E-01   3587.35318609    5.82973674E-06   1.93636075E+18   3.12044615E+07   2.18362326E+09   2.36377440E+08   0.09342023      
  89               1.09647820E+02   1.06023746E+00   3621.65297785    6.35424926E-06   2.12042125E+18   2.75674241E+07   2.18725048E+09   2.19749326E+08   0.094426833     
  90               1.31825674E+02   1.17195767E+00   3656.06176069    6.92662611E-06   2.32179698E+18   2.42882673E+07   2.19052258E+09   2.02909106E+08   0.095489794     
  91               1.58489319E+02   1.29532273E+00   3691.71316732    7.54573462E-06   2.54141667E+18   2.14154682E+07   2.19338983E+09   1.85844717E+08   0.096561093     
  92               1.90546072E+02   1.43158685E+00   3727.52161144    8.22155502E-06   2.78178378E+18   1.88027540E+07   2.19599846E+09   1.68544032E+08   0.097557614     
  93               2.29086765E+02   1.58215781E+00   3764.58383191    8.95322524E-06   3.04409826E+18   1.65024340E+07   2.19829679E+09   1.50993708E+08   0.09844377      
  94               2.75422870E+02   1.74861066E+00   3801.76847459    9.75298826E-06   3.33144997E+18   1.44152084E+07   2.20038970E+09   1.33180489E+08   0.099187124     
  95               3.31131121E+02   1.93271818E+00   3840.17063062    1.06203483E-05   3.64538876E+18   1.26024514E+07   2.20220220E+09   1.15090265E+08   0.099909904     
  96               3.98107171E+02   2.13645737E+00   3878.72946803    1.15694720E-05   3.98961127E+18   1.09899398E+07   2.20380903E+09   9.67097311E+07   0.10068753      
  97               4.78630092E+02   2.36203687E+00   3918.61919297    1.25994965E-05   4.36595696E+18   9.60579478E+06   2.20518207E+09   7.80254316E+07   0.10159232      
  98               5.75439937E+02   2.61190822E+00   3958.81284747    1.37266961E-05   4.77879917E+18   8.38209335E+06   2.20639087E+09   5.90248623E+07   0.10263798      
  99               6.91830971E+02   2.88880247E+00   4000.51933905    1.49498395E-05   5.23030857E+18   7.33573696E+06   2.20742249E+09   3.96952357E+07   0.10387638      
  100              8.31763771E+02   3.19574499E+00   4042.73261892    1.62875076E-05   5.72562549E+18   6.40761058E+06   2.20834354E+09   2.00244506E+07   0.10520348      
  101              1.00000000E+03   3.53610561E+00   4086.60351520    1.77388526E-05   6.26741658E+18   6.01831632E+06   2.20872901E+09   0.00000000E+00   0.1065565       
