# ATMO pressure-temperature profile
# Effective temperature = 1400.0K
# log(g) = 5.5cm/s^2
# M/H = 0.0
# Optical depth grid in band 17 (1.20-1.33microns)
# All parameters in cgs units
#
# Model Level      Optical Depth    Pressure         Temperature      Density          Number Density   Rad Flux         Conv Flux        Radial Extension Adiabatic Gradient
#                                   [Ba]             [K]              [g/cm^3]         [/cm^3]          [ergs/s/cm^2/sr] [ergs/s/cm^2/sr] [cm]             [K/Ba]          
  1                1.00000000E-07   1.00000000E-05   423.67849962     6.69186794E-10   1.70957994E+14   2.17815776E+08   0.00000000E+00   2.28703598E+06   0.29752286      
  2                1.25892541E-07   1.83022487E-05   463.27395507     1.12008329E-09   2.86149115E+14   2.17815776E+08   0.00000000E+00   2.25671124E+06   0.29744209      
  3                1.58489319E-07   2.83721973E-05   465.16690051     1.72929045E-09   4.41784024E+14   2.17815775E+08   0.00000000E+00   2.23383061E+06   0.29743699      
  4                1.99526231E-07   4.08463547E-05   481.42989545     2.40549253E-09   6.14534244E+14   2.17815775E+08   0.00000000E+00   2.21448977E+06   0.29749789      
  5                2.51188643E-07   5.63319746E-05   480.54470777     3.32357107E-09   8.49076881E+14   2.17815775E+08   0.00000000E+00   2.19717072E+06   0.29747857      
  6                3.16227766E-07   7.55849640E-05   495.25572273     4.32702786E-09   1.10543128E+15   2.17815775E+08   0.00000000E+00   2.18111607E+06   0.29755729      
  7                3.98107171E-07   9.95149327E-05   494.41152341     5.70667950E-09   1.45789252E+15   2.17815774E+08   0.00000000E+00   2.16588762E+06   0.29753385      
  8                5.01187234E-07   1.29275188E-04   508.56415327     7.20697862E-09   1.84117587E+15   2.17815774E+08   0.00000000E+00   2.15121295E+06   0.29911247      
  9                6.30957344E-07   1.66260940E-04   508.21789923     9.27521758E-09   2.36955130E+15   2.17815774E+08   0.00000000E+00   2.13690769E+06   0.2991439       
  10               7.94328235E-07   2.12247407E-04   522.16408189     1.15244238E-08   2.94415884E+15   2.17815773E+08   0.00000000E+00   2.12284209E+06   0.29904698      
  11               1.00000000E-06   2.69393989E-04   522.42870756     1.46199109E-08   3.73496647E+15   2.17815773E+08   0.00000000E+00   2.10891987E+06   0.29907437      
  12               1.25892541E-06   3.40431874E-04   536.29370115     1.79974659E-08   4.59783475E+15   2.17815772E+08   0.00000000E+00   2.09507108E+06   0.2989741       
  13               1.58489319E-06   4.28687799E-04   537.14530124     2.26273252E-08   5.78063013E+15   2.17815771E+08   0.00000000E+00   2.08124110E+06   0.29899752      
  14               1.99526231E-06   5.38349040E-04   551.08079190     2.76969868E-08   7.07578305E+15   2.17815768E+08   0.00000000E+00   2.06738885E+06   0.29889363      
  15               2.51188643E-06   6.74537526E-04   552.38445889     3.46217134E-08   8.84485064E+15   2.17815766E+08   0.00000000E+00   2.05348132E+06   0.29891345      
  16               3.16227766E-06   8.43664693E-04   566.51286585     4.22225028E-08   1.07866338E+16   2.17815762E+08   0.00000000E+00   2.03949295E+06   0.29880055      
  17               3.98107171E-06   1.05355588E-03   568.42123969     5.25498155E-08   1.34249636E+16   2.17815760E+08   0.00000000E+00   2.02540212E+06   0.29881791      
  18               5.01187234E-06   1.31401341E-03   582.73615422     6.39310333E-08   1.63325379E+16   2.17815757E+08   0.00000000E+00   2.01119208E+06   0.29869397      
  19               6.30957344E-06   1.63703719E-03   585.04278501     7.93331787E-08   2.02673402E+16   2.17815755E+08   0.00000000E+00   1.99684871E+06   0.29871109      
  20               7.94328235E-06   2.03762928E-03   599.46686139     9.63704612E-08   2.46198743E+16   2.17815752E+08   0.00000000E+00   1.98236089E+06   0.298572        
  21               1.00000000E-05   2.53418945E-03   601.98478072     1.19354163E-07   3.04915433E+16   2.17815752E+08   0.00000000E+00   1.96771954E+06   0.29859004      
  22               1.25892541E-05   3.14971170E-03   616.36138964     1.44883641E-07   3.70135906E+16   2.17815752E+08   0.00000000E+00   1.95291771E+06   0.29843765      
  23               1.58489319E-05   3.91244192E-03   618.91472529     1.79226048E-07   4.57870779E+16   2.17815758E+08   0.00000000E+00   1.93794981E+06   0.29845783      
  24               1.99526231E-05   4.85784907E-03   633.18214641     2.17520155E-07   5.55701023E+16   2.17815767E+08   0.00000000E+00   1.92280832E+06   0.29828849      
  25               2.51188643E-05   6.02986146E-03   635.56928577     2.68985376E-07   6.87179622E+16   2.17815787E+08   0.00000000E+00   1.90748623E+06   0.2983127       
  26               3.16227766E-05   7.48320154E-03   649.73898315     3.26537270E-07   8.34208013E+16   2.17815816E+08   0.00000000E+00   1.89197892E+06   0.29812771      
  27               3.98107171E-05   9.28545191E-03   651.95290185     4.03804507E-07   1.03160316E+17   2.17815860E+08   0.00000000E+00   1.87628385E+06   0.29815632      
  28               5.01187234E-05   1.15204799E-02   666.10570645     4.90356732E-07   1.25271782E+17   2.17815919E+08   0.00000000E+00   1.86040053E+06   0.29796783      
  29               6.30957344E-05   1.42916737E-02   668.27180003     6.06338033E-07   1.54901562E+17   2.17815996E+08   0.00000000E+00   1.84432914E+06   0.2980389       
  30               7.94328235E-05   1.77264819E-02   682.82711374     7.36032161E-07   1.88034541E+17   2.17816090E+08   0.00000000E+00   1.82807003E+06   0.29778917      
  31               1.00000000E-04   2.19813401E-02   685.31245787     9.09390934E-07   2.32322557E+17   2.17816193E+08   0.00000000E+00   1.81162398E+06   0.29780643      
  32               1.25892541E-04   2.72481285E-02   700.61219951     1.10267186E-06   2.81698687E+17   2.17816299E+08   0.00000000E+00   1.79499185E+06   0.29754504      
  33               1.58489319E-04   3.37611616E-02   703.92265326     1.35981518E-06   3.47390773E+17   2.17816395E+08   0.00000000E+00   1.77817208E+06   0.29757751      
  34               1.99526231E-04   4.18063430E-02   720.43647195     1.64526065E-06   4.20312522E+17   2.17816459E+08   0.00000000E+00   1.76116308E+06   0.29729225      
  35               2.51188643E-04   5.17298867E-02   724.93379122     2.02316632E-06   5.16855358E+17   2.17816486E+08   0.00000000E+00   1.74396287E+06   0.2973202       
  36               3.16227766E-04   6.39524112E-02   743.09434747     2.44006359E-06   6.23359820E+17   2.17816426E+08   0.00000000E+00   1.72656707E+06   0.29692539      
  37               3.98107171E-04   7.89786549E-02   749.33105380     2.98831591E-06   7.63417026E+17   2.17816346E+08   0.00000000E+00   1.70897014E+06   0.29687417      
  38               5.01187234E-04   9.74205425E-02   769.51670782     3.58940764E-06   9.16976762E+17   2.17816133E+08   0.00000000E+00   1.69116354E+06   0.29642013      
  39               6.30957344E-04   1.20021020E-01   777.98904936     4.37395454E-06   1.11740258E+18   2.17815989E+08   0.00000000E+00   1.67312634E+06   0.29637653      
  40               7.94328235E-04   1.47684553E-01   800.80155395     5.22877857E-06   1.33578329E+18   2.17815698E+08   0.00000000E+00   1.65483395E+06   0.29586748      
  41               1.00000000E-03   1.81480074E-01   812.12654225     6.33571117E-06   1.61856850E+18   2.17815626E+08   0.00000000E+00   1.63626611E+06   0.29578168      
  42               1.25892541E-03   2.22700377E-01   837.95002542     7.53515960E-06   1.92499086E+18   2.17815328E+08   0.00000000E+00   1.61740064E+06   0.29511507      
  43               1.58489319E-03   2.72860694E-01   852.62480586     9.07344910E-06   2.31797557E+18   2.17815395E+08   0.00000000E+00   1.59821714E+06   0.29489103      
  44               1.99526231E-03   3.33800141E-01   881.91642942     1.07311777E-05   2.74147899E+18   2.17815133E+08   0.00000000E+00   1.57868771E+06   0.29400316      
  45               2.51188643E-03   4.07618141E-01   900.36749263     1.28357695E-05   3.27913681E+18   2.17815314E+08   0.00000000E+00   1.55879802E+06   0.29366774      
  46               3.16227766E-03   4.96940933E-01   933.43440644     1.50941465E-05   3.85608684E+18   2.17815044E+08   0.00000000E+00   1.53850486E+06   0.29259772      
  47               3.98107171E-03   6.04887730E-01   956.08735906     1.79379663E-05   4.58250596E+18   2.17815212E+08   0.00000000E+00   1.51775953E+06   0.29213849      
  48               5.01187234E-03   7.35818590E-01   993.43220895     2.09999044E-05   5.36485958E+18   2.17814967E+08   0.00000000E+00   1.49642651E+06   0.29086056      
  49               6.30957344E-03   8.94893094E-01   1020.81294574    2.48542813E-05   6.34966520E+18   2.17815047E+08   0.00000000E+00   1.47440772E+06   0.29022952      
  50               7.94328235E-03   1.09014251E+00   1063.07657040    2.90716876E-05   7.42753263E+18   2.17814829E+08   0.00000000E+00   1.45143749E+06   0.28867605      
  51               1.00000000E-02   1.33138470E+00   1095.99947580    3.44370205E-05   8.79871102E+18   2.17815036E+08   0.00000000E+00   1.42732677E+06   0.28779867      
  52               1.25892541E-02   1.63427361E+00   1144.44453044    4.04780000E-05   1.03432223E+19   2.17814982E+08   0.00000000E+00   1.40167133E+06   0.28587009      
  53               1.58489319E-02   2.01805366E+00   1184.15207320    4.83040584E-05   1.23438623E+19   2.17814974E+08   0.00000000E+00   1.37422474E+06   0.28467684      
  54               1.99526231E-02   2.51206796E+00   1239.77837480    5.74238480E-05   1.46761846E+19   2.17814736E+08   0.00000000E+00   1.34456136E+06   0.28244148      
  55               2.51188643E-02   3.14877824E+00   1286.33475383    6.93683021E-05   1.77302113E+19   2.17813942E+08   0.00000000E+00   1.31265908E+06   0.28105882      
  56               3.16227766E-02   3.96394113E+00   1347.30861397    8.33658186E-05   2.13101226E+19   2.17814218E+08   0.00000000E+00   1.27876043E+06   0.27867946      
  57               3.98107171E-02   4.99174571E+00   1396.90744908    1.01249034E-04   2.58827644E+19   2.17815145E+08   0.00000000E+00   1.24338316E+06   0.27719426      
  58               5.01187234E-02   6.26340487E+00   1459.80373899    1.21560916E-04   3.10771979E+19   2.17816204E+08   0.00000000E+00   1.20713508E+06   0.27460265      
  59               6.30957344E-02   7.80302631E+00   1511.34199607    1.46274184E-04   3.73960869E+19   2.17816687E+08   0.00000000E+00   1.17062310E+06   0.27296803      
  60               7.94328235E-02   9.63014293E+00   1576.26893200    1.73089731E-04   4.42515265E+19   2.17814253E+08   0.00000000E+00   1.13431070E+06   0.27035582      
  61               1.00000000E-01   1.17088116E+01   1629.47908374    2.03668424E-04   5.20463009E+19   2.17811448E+08   0.00000000E+00   1.09929823E+06   0.26876628      
  62               1.25892541E-01   1.39829883E+01   1693.69171194    2.34007614E-04   5.97986625E+19   2.17799855E+08   0.00000000E+00   1.06635611E+06   0.2661814       
  63               1.58489319E-01   1.63799693E+01   1745.55040931    2.66024846E-04   6.79683187E+19   2.17795001E+08   0.00000000E+00   1.03597548E+06   0.26454372      
  64               1.99526231E-01   1.87200360E+01   1805.86619517    2.94056284E-04   7.50839223E+19   2.17821011E+08   0.00000000E+00   1.00951631E+06   0.26198287      
  65               2.51188643E-01   2.08920888E+01   1859.58674221    3.19023159E-04   8.13750486E+19   2.11280702E+08   6.52168008E+06   9.87089227E+05   0.26051631      
  66               3.16227766E-01   2.28572092E+01   1902.29064806    3.41181879E-04   8.70306384E+19   2.02251105E+08   1.55515181E+07   9.68253360E+05   0.25851415      
  67               3.98107171E-01   2.45270436E+01   1938.32106785    3.59393334E-04   9.16527134E+19   1.92212871E+08   2.56005953E+07   9.53172933E+05   0.25751514      
  68               5.01187234E-01   2.58477252E+01   1963.48810219    3.73883317E-04   9.53498234E+19   1.82739321E+08   3.50881125E+07   9.41779745E+05   0.25579228      
  69               6.30957344E-01   2.74031305E+01   1994.08527541    3.90289492E-04   9.95364832E+19   1.72680075E+08   4.51616493E+07   9.28903702E+05   0.25505214      
  70               7.94328235E-01   2.92197895E+01   2025.86936200    4.09605918E-04   1.04469974E+20   1.60158472E+08   5.76652592E+07   9.14535673E+05   0.25377226      
  71               1.00000000E+00   3.05693614E+01   2050.19337356    4.23817576E-04   1.07998415E+20   1.47680938E+08   7.00598914E+07   9.04291405E+05   0.25369518      
  72               1.25892541E+00   3.15439424E+01   2065.59087294    4.34061670E-04   1.10610793E+20   1.37682805E+08   7.99975527E+07   8.97105974E+05   0.25231372      
  73               1.58489319E+00   3.27211242E+01   2085.68609578    4.45911657E-04   1.13633167E+20   1.28887070E+08   8.87942187E+07   8.88644548E+05   0.25224014      
  74               1.99526231E+00   3.41337584E+01   2107.11615137    4.60418567E-04   1.17333351E+20   1.20403132E+08   9.72816888E+07   8.78785634E+05   0.25054566      
  75               2.51188643E+00   3.58231440E+01   2133.55929424    4.77198631E-04   1.21614350E+20   1.12388321E+08   1.05301402E+08   8.67388306E+05   0.25019845      
  76               3.16227766E+00   3.78304897E+01   2162.03292516    4.97278790E-04   1.26737606E+20   1.04295377E+08   1.13400390E+08   8.54357450E+05   0.24816343      
  77               3.98107171E+00   4.02009902E+01   2195.49060169    5.20354077E-04   1.32626713E+20   9.64457764E+07   1.21255749E+08   8.39621060E+05   0.24750042      
  78               5.01187234E+00   4.29831744E+01   2231.45657004    5.47358600E-04   1.39519813E+20   8.83859975E+07   1.29321995E+08   8.23135601E+05   0.24497736      
  79               6.30957344E+00   4.62307655E+01   2271.96163680    5.78163694E-04   1.47385898E+20   8.06680946E+07   1.37045847E+08   8.04879803E+05   0.24393632      
  80               7.94328235E+00   5.00018534E+01   2315.32919208    6.13539666E-04   1.56422490E+20   7.27628536E+07   1.44957282E+08   7.84857180E+05   0.24090567      
  81               1.00000000E+01   5.43612131E+01   2362.38889006    6.53713675E-04   1.66672361E+20   6.53230153E+07   1.52402008E+08   7.63088990E+05   0.23916967      
  82               1.25892541E+01   5.93815080E+01   2412.52120946    6.99120549E-04   1.78281353E+20   5.81176492E+07   1.59612299E+08   7.39605580E+05   0.23597464      
  83               1.58489319E+01   6.51466303E+01   2465.47401370    7.50357889E-04   1.91389174E+20   5.16438328E+07   1.66089853E+08   7.14434582E+05   0.23351897      
  84               1.99526231E+01   7.17486038E+01   2521.49633453    8.07821778E-04   2.06101405E+20   4.56143166E+07   1.72121869E+08   6.87619175E+05   0.23023024      
  85               2.51188643E+01   7.92971106E+01   2579.61487971    8.72416488E-04   2.22652886E+20   4.01144317E+07   1.77623616E+08   6.59184752E+05   0.22700954      
  86               3.16227766E+01   8.79215940E+01   2640.58373347    9.44602294E-04   2.41168981E+20   3.51732003E+07   1.82566719E+08   6.29141265E+05   0.22375185      
  87               3.98107171E+01   9.77734713E+01   2703.39096530    1.02557641E-03   2.61961830E+20   3.06329789E+07   1.87109549E+08   5.97488278E+05   0.22011359      
  88               5.01187234E+01   1.09030599E+02   2768.66778623    1.11609083E-03   2.85235378E+20   2.65667906E+07   1.91179347E+08   5.64214759E+05   0.21640221      
  89               6.30957344E+01   1.21900169E+02   2835.54926485    1.21763983E-03   3.11381603E+20   2.29360583E+07   1.94815038E+08   5.29303918E+05   0.21267221      
  90               7.94328235E+01   1.36620727E+02   2904.73521362    1.33121235E-03   3.40671563E+20   1.98184267E+07   1.97939152E+08   4.92740445E+05   0.20903743      
  91               1.00000000E+02   1.53460634E+02   2975.36301838    1.45860292E-03   3.73579355E+20   1.71212298E+07   2.00644879E+08   4.54523646E+05   0.2055344       
  92               1.25892541E+02   1.72721042E+02   3048.15012627    1.60095950E-03   4.10425877E+20   1.47401828E+07   2.03038823E+08   4.14665749E+05   0.2018435       
  93               1.58489319E+02   1.94702677E+02   3121.80657880    1.76029059E-03   4.51743353E+20   1.26030080E+07   2.05192860E+08   3.73257610E+05   0.19830888      
  94               1.99526231E+02   2.19712435E+02   3197.14200503    1.93733348E-03   4.97758345E+20   1.07137805E+07   2.07101012E+08   3.30429997E+05   0.19493053      
  95               2.51188643E+02   2.48084752E+02   3272.79321789    2.13424501E-03   5.49044248E+20   9.05501152E+06   2.08781345E+08   2.86305528E+05   0.19176779      
  96               3.16227766E+02   2.80185807E+02   3349.74180890    2.35177464E-03   6.05843759E+20   7.66674478E+06   2.10194263E+08   2.40993984E+05   0.18888471      
  97               3.98107171E+02   3.16408961E+02   3426.68604793    2.59236194E-03   6.68806212E+20   6.49162665E+06   2.11397353E+08   1.94601226E+05   0.18632542      
  98               5.01187234E+02   3.57175589E+02   3504.74937882    2.85663759E-03   7.38160228E+20   5.48151791E+06   2.12439065E+08   1.47227292E+05   0.18396185      
  99               6.30957344E+02   4.02942089E+02   3582.52677715    3.14747148E-03   8.14664944E+20   4.59422740E+06   2.13361432E+08   9.89604190E+04   0.18178545      
  100              7.94328235E+02   4.54211277E+02   3661.26589062    3.46550595E-03   8.98571175E+20   3.83157408E+06   2.14162366E+08   4.98693497E+04   0.17969564      
  101              1.00000000E+03   5.11545938E+02   3739.50119899    3.81434981E-03   9.90824652E+20   3.46066218E+06   2.14563696E+08   0.00000000E+00   0.17785962      
