# ATMO pressure-temperature profile
# Effective temperature = 550.0K
# log(g) = 3.0cm/s^2
# M/H = 0.0
# Optical depth grid in band 17 (1.20-1.33microns)
# All parameters in cgs units
#
# Model Level      Optical Depth    Pressure         Temperature      Density          Number Density   Rad Flux         Conv Flux        Radial Extension Adiabatic Gradient
#                                   [Ba]             [K]              [g/cm^3]         [/cm^3]          [ergs/s/cm^2/sr] [ergs/s/cm^2/sr] [cm]             [K/Ba]          
  1                1.00000000E-04   1.00000000E-05   98.57046494      2.86148868E-09   7.34816728E+14   5.18798065E+06   0.00000000E+00   3.31772202E+08   0.34581852      
  2                1.17489755E-04   2.12906616E-05   127.39214674     4.71395122E-09   1.21052104E+15   5.18798065E+06   0.00000000E+00   3.28698011E+08   0.33275552      
  3                1.38038426E-04   3.41244767E-05   143.99821059     6.68420088E-09   1.71646418E+15   5.18798065E+06   0.00000000E+00   3.26411678E+08   0.32946161      
  4                1.62181010E-04   4.90434896E-05   147.40758386     9.38428072E-09   2.40983538E+15   5.18798061E+06   0.00000000E+00   3.24527965E+08   0.32663893      
  5                1.90546072E-04   6.64667095E-05   154.64196364     1.21234171E-08   3.11316876E+15   5.18798086E+06   0.00000000E+00   3.22894472E+08   0.32601972      
  6                2.23872114E-04   8.68463019E-05   155.88655521     1.57138160E-08   4.03523201E+15   5.18798107E+06   0.00000000E+00   3.21417943E+08   0.32406918      
  7                2.63026799E-04   1.10661542E-04   162.86857793     1.91676889E-08   4.92136134E+15   5.18798100E+06   0.00000000E+00   3.20045653E+08   0.32428626      
  8                3.09029543E-04   1.38452865E-04   162.66493513     2.40114474E-08   6.16501079E+15   5.18798039E+06   0.00000000E+00   3.18750219E+08   0.32326906      
  9                3.63078055E-04   1.70881978E-04   169.34660596     2.84662397E-08   7.30879202E+15   5.18798156E+06   0.00000000E+00   3.17509822E+08   0.32329757      
  10               4.26579519E-04   2.08643922E-04   168.34450522     3.49619529E-08   8.97702906E+15   5.18798602E+06   0.00000000E+00   3.16312829E+08   0.32211834      
  11               5.01187234E-04   2.52838067E-04   177.89156238     4.01089813E-08   1.02946824E+16   5.18798795E+06   0.00000000E+00   3.15132595E+08   0.32210374      
  12               5.88843655E-04   3.03989616E-04   175.48642640     4.88761331E-08   1.25470335E+16   5.18798851E+06   0.00000000E+00   3.13977308E+08   0.32077345      
  13               6.91830971E-04   3.62790497E-04   185.24252043     5.53297460E-08   1.41853828E+16   5.18798888E+06   0.00000000E+00   3.12846376E+08   0.32073856      
  14               8.12830516E-04   4.31410101E-04   183.54192490     6.63688667E-08   1.70247549E+16   5.18798265E+06   0.00000000E+00   3.11714010E+08   0.31947037      
  15               9.54992586E-04   5.07883189E-04   189.55032849     7.59697634E-08   1.94073007E+16   5.18799697E+06   0.00000000E+00   3.10636405E+08   0.31883784      
  16               1.12201845E-03   5.90741014E-04   197.86526451     8.46504052E-08   2.16248649E+16   5.18797924E+06   0.00000000E+00   3.09603171E+08   0.31711192      
  17               1.31825674E-03   6.87238376E-04   202.21305915     9.63606411E-08   2.46163718E+16   5.18797452E+06   0.00000000E+00   3.08534728E+08   0.31598923      
  18               1.54881662E-03   7.99652826E-04   210.56946813     1.07673183E-07   2.75062836E+16   5.18797165E+06   0.00000000E+00   3.07431111E+08   0.3143784       
  19               1.81970086E-03   9.30652054E-04   214.45205966     1.23043477E-07   3.14327920E+16   5.18796993E+06   0.00000000E+00   3.06292997E+08   0.31352739      
  20               2.13796209E-03   1.08336351E-03   222.37530401     1.38130355E-07   3.52868987E+16   5.18796887E+06   0.00000000E+00   3.05121617E+08   0.31213429      
  21               2.51188643E-03   1.26138918E-03   226.03543756     1.58224614E-07   4.04201953E+16   5.18796844E+06   0.00000000E+00   3.03917411E+08   0.31142395      
  22               2.95120923E-03   1.46892209E-03   233.96321830     1.78013382E-07   4.54754510E+16   5.18796843E+06   0.00000000E+00   3.02680827E+08   0.31017215      
  23               3.46736850E-03   1.71082556E-03   237.72672408     2.04046525E-07   5.21258997E+16   5.18796887E+06   0.00000000E+00   3.01411565E+08   0.30954216      
  24               4.07380278E-03   1.99279429E-03   245.79650789     2.29873146E-07   5.87235906E+16   5.18796952E+06   0.00000000E+00   3.00109621E+08   0.30841094      
  25               4.78630092E-03   2.32139759E-03   249.76856151     2.63519789E-07   6.73189907E+16   5.18797043E+06   0.00000000E+00   2.98774499E+08   0.30785361      
  26               5.62341325E-03   2.70430222E-03   258.07151810     2.97109560E-07   7.58998623E+16   5.18797149E+06   0.00000000E+00   2.97406059E+08   0.30683455      
  27               6.60693448E-03   3.15035719E-03   262.35775870     3.40460994E-07   8.69744569E+16   5.18797281E+06   0.00000000E+00   2.96003580E+08   0.30634233      
  28               7.76247117E-03   3.66993813E-03   270.93333525     3.84058849E-07   9.81120022E+16   5.18797423E+06   0.00000000E+00   2.94566699E+08   0.30543984      
  29               9.12010839E-03   4.27500581E-03   275.51547956     4.39938715E-07   1.12387121E+17   5.18797580E+06   0.00000000E+00   2.93094695E+08   0.30501865      
  30               1.07151931E-02   4.97946058E-03   284.47341467     4.96297503E-07   1.26784585E+17   5.18797747E+06   0.00000000E+00   2.91587096E+08   0.30423255      
  31               1.25892541E-02   5.79931450E-03   289.48737233     5.68000233E-07   1.45101826E+17   5.18797942E+06   0.00000000E+00   2.90042940E+08   0.30387051      
  32               1.47910839E-02   6.75327312E-03   298.98594258     6.40420199E-07   1.63602292E+17   5.18798156E+06   0.00000000E+00   2.88461245E+08   0.30319729      
  33               1.73780083E-02   7.86292910E-03   304.54620383     7.32036349E-07   1.87006632E+17   5.18798389E+06   0.00000000E+00   2.86840594E+08   0.30288939      
  34               2.04173794E-02   9.15327244E-03   314.74337845     8.24558098E-07   2.10642318E+17   5.18798632E+06   0.00000000E+00   2.85179752E+08   0.30232301      
  35               2.39883292E-02   1.06528501E-02   321.15903256     9.40474781E-07   2.40254492E+17   5.18798920E+06   0.00000000E+00   2.83476869E+08   0.30199591      
  36               2.81838293E-02   1.23946041E-02   332.43894359     1.05711500E-06   2.70051506E+17   5.18799248E+06   0.00000000E+00   2.81730033E+08   0.30161036      
  37               3.31131121E-02   1.44164876E-02   339.98776317     1.20225794E-06   3.07129841E+17   5.18799624E+06   0.00000000E+00   2.79936554E+08   0.30140174      
  38               3.89045145E-02   1.67628275E-02   352.37214768     1.34879874E-06   3.44565303E+17   5.18799989E+06   0.00000000E+00   2.78094007E+08   0.30098349      
  39               4.57088190E-02   1.94848136E-02   360.96226136     1.53050915E-06   3.90985179E+17   5.18800362E+06   0.00000000E+00   2.76199508E+08   0.30077183      
  40               5.37031796E-02   2.26423783E-02   374.64719664     1.71356613E-06   4.37749233E+17   5.18800729E+06   0.00000000E+00   2.74249736E+08   0.30048102      
  41               6.30957344E-02   2.63040966E-02   384.90396741     1.93764069E-06   4.94990477E+17   5.18801161E+06   0.00000000E+00   2.72240188E+08   0.30036876      
  42               7.41310241E-02   3.05546422E-02   400.76590203     2.16166440E-06   5.52220186E+17   5.18801588E+06   0.00000000E+00   2.70163295E+08   0.30018         
  43               8.70963590E-02   3.54950056E-02   413.60451155     2.43323057E-06   6.21595442E+17   5.18802039E+06   0.00000000E+00   2.68009158E+08   0.30005283      
  44               1.02329299E-01   4.12764071E-02   432.69027647     2.70472281E-06   6.90956316E+17   5.18802363E+06   0.00000000E+00   2.65755535E+08   0.29984249      
  45               1.20226443E-01   4.81203615E-02   449.75454422     3.03372171E-06   7.74959775E+17   5.18755063E+06   4.44525150E+02   2.63366230E+08   0.2997094       
  46               1.41253754E-01   5.64798014E-02   475.32975770     3.36916475E-06   8.60644894E+17   5.17684534E+06   1.11244792E+04   2.60751457E+08   0.29957031      
  47               1.65958691E-01   6.69320617E-02   496.48493761     3.82248780E-06   9.76458892E+17   5.17096563E+06   1.70061932E+04   2.57838871E+08   0.29948077      
  48               1.94984460E-01   8.04269307E-02   528.40682767     4.31560060E-06   1.10245003E+18   5.16196667E+06   2.60187512E+04   2.54516248E+08   0.29928821      
  49               2.29086765E-01   9.78501687E-02   556.24698286     4.98765054E-06   1.27414763E+18   5.15059847E+06   3.73968114E+04   2.50760792E+08   0.29911368      
  50               2.69153480E-01   1.19967641E-01   595.54444783     5.71143804E-06   1.45906883E+18   5.11827755E+06   6.97339862E+04   2.46616807E+08   0.29882901      
  51               3.16227766E-01   1.47058857E-01   628.26164157     6.63656043E-06   1.69541680E+18   5.05969685E+06   1.28321518E+05   2.42216477E+08   0.29856524      
  52               3.71535229E-01   1.79156300E-01   671.29925919     7.56668021E-06   1.93304407E+18   4.94920855E+06   2.38827299E+05   2.37687006E+08   0.29804736      
  53               4.36515832E-01   2.16296276E-01   704.82706334     8.70071093E-06   2.22275866E+18   4.80524488E+06   3.82801116E+05   2.33109679E+08   0.29766875      
  54               5.12861384E-01   2.58518124E-01   748.72899738     9.78940391E-06   2.50087613E+18   4.60810383E+06   5.79962110E+05   2.28534763E+08   0.29702542      
  55               6.02559586E-01   3.05954892E-01   781.30272674     1.11027433E-05   2.83637665E+18   4.39891869E+06   7.89161491E+05   2.23984645E+08   0.29649882      
  56               7.07945784E-01   3.59033093E-01   825.31661327     1.23340364E-05   3.15093710E+18   4.18350012E+06   1.00458853E+06   2.19448896E+08   0.29555721      
  57               8.31763771E-01   4.18285564E-01   856.96454722     1.38388719E-05   3.53537804E+18   4.00957579E+06   1.17852682E+06   2.14913617E+08   0.29470783      
  58               9.77237221E-01   4.84344182E-01   901.44770651     1.52336089E-05   3.89170031E+18   3.88130748E+06   1.30679716E+06   2.10363941E+08   0.29371769      
  59               1.14815362E+00   5.57951309E-01   932.64377082     1.69616944E-05   4.33317617E+18   3.82726210E+06   1.36085865E+06   2.05784778E+08   0.29253094      
  60               1.34896288E+00   6.40605646E-01   978.28702178     1.85657282E-05   4.74296926E+18   3.86399985E+06   1.32410101E+06   2.01126916E+08   0.29158863      
  61               1.58489319E+00   7.34347856E-01   1010.42819733    2.06048077E-05   5.26407676E+18   4.00076996E+06   1.18731058E+06   1.96333981E+08   0.29004636      
  62               1.86208714E+00   8.43635069E-01   1059.61143836    2.25702548E-05   5.76678588E+18   4.24849803E+06   9.39577386E+05   1.91265874E+08   0.28909713      
  63               2.18776162E+00   9.73986613E-01   1096.38872726    2.51812781E-05   6.43449201E+18   4.64840266E+06   5.39654558E+05   1.85797933E+08   0.28714164      
  64               2.57039578E+00   1.13693918E+00   1154.39877755    2.79119402E-05   7.13357469E+18   5.15397171E+06   3.41264643E+04   1.79650786E+08   0.28582316      
  65               3.01995172E+00   1.34658856E+00   1202.74847846    3.17257962E-05   8.10934812E+18   5.18813231E+06   0.00000000E+00   1.72605285E+08   0.28354621      
  66               3.54813389E+00   1.61176325E+00   1250.49653795    3.65196848E-05   9.33565073E+18   5.18812552E+06   0.00000000E+00   1.64814621E+08   0.2824998       
  67               4.16869383E+00   1.93775892E+00   1292.00182111    4.24930926E-05   1.08633172E+19   5.18812543E+06   0.00000000E+00   1.56539128E+08   0.28044846      
  68               4.89778819E+00   2.32920167E+00   1335.81378050    4.93991449E-05   1.26295249E+19   5.18812891E+06   0.00000000E+00   1.47995284E+08   0.27952992      
  69               5.75439937E+00   2.79058006E+00   1375.69931813    5.74664353E-05   1.46925374E+19   5.18813504E+06   0.00000000E+00   1.39335795E+08   0.27761654      
  70               6.76082975E+00   3.32621132E+00   1419.61683218    6.63754752E-05   1.69708868E+19   5.18814263E+06   0.00000000E+00   1.30663037E+08   0.27665973      
  71               7.94328235E+00   3.94150092E+00   1461.22239279    7.64128561E-05   1.95375972E+19   5.18815126E+06   0.00000000E+00   1.22023428E+08   0.27460291      
  72               9.33254301E+00   4.64156608E+00   1507.84609433    8.72017656E-05   2.22963289E+19   5.18816145E+06   0.00000000E+00   1.13447218E+08   0.27345573      
  73               1.09647820E+01   5.42650842E+00   1553.08161405    9.89829437E-05   2.53076630E+19   5.18817353E+06   0.00000000E+00   1.04998322E+08   0.27128832      
  74               1.28824955E+01   6.27584547E+00   1603.57079273    1.10918063E-04   2.83471853E+19   5.18819065E+06   0.00000000E+00   9.68918674E+07   0.26999558      
  75               1.51356125E+01   7.16750757E+00   1652.81566398    1.22904791E-04   3.14101189E+19   5.18821895E+06   0.00000000E+00   8.92549703E+07   0.26780703      
  76               1.77827941E+01   8.07084652E+00   1707.16575579    1.34014929E-04   3.42427975E+19   4.87197382E+06   3.16131008E+05   8.22161577E+07   0.26637944      
  77               2.08929613E+01   8.92064572E+00   1752.01583711    1.44393033E-04   3.68794218E+19   4.06701775E+06   1.12123943E+06   7.61070310E+07   0.26426565      
  78               2.45470892E+01   9.63786912E+00   1789.12477905    1.52967930E-04   3.90181104E+19   3.26522471E+06   1.92294962E+06   7.12805673E+07   0.26366245      
  79               2.88403150E+01   1.01996843E+01   1815.01735000    1.59573370E-04   4.07035032E+19   2.82670544E+06   2.36162345E+06   6.76846207E+07   0.26171889      
  80               3.38844156E+01   1.08210861E+01   1844.17674769    1.66615629E-04   4.25005108E+19   2.71158165E+06   2.47676092E+06   6.38736587E+07   0.26112669      
  81               3.98107171E+01   1.15059776E+01   1873.04163196    1.74425554E-04   4.44940494E+19   2.44956513E+06   2.73903461E+06   5.98561293E+07   0.25950637      
  82               4.67735141E+01   1.20692653E+01   1897.16821953    1.80691389E-04   4.60787651E+19   2.08206928E+06   3.10733805E+06   5.66830994E+07   0.2594654       
  83               5.49540874E+01   1.25074756E+01   1914.04496330    1.85598522E-04   4.73307481E+19   1.86797656E+06   3.32234359E+06   5.42901874E+07   0.25783874      
  84               6.45654229E+01   1.29999609E+01   1933.85589609    1.90927207E-04   4.86904487E+19   1.80286537E+06   3.38684009E+06   5.16739799E+07   0.25745734      
  85               7.58577575E+01   1.35512553E+01   1953.95371416    1.96973319E-04   5.02332288E+19   1.71238689E+06   3.47738889E+06   4.88311815E+07   0.25602024      
  86               8.91250938E+01   1.41658677E+01   1976.85147476    2.03510174E-04   5.19033011E+19   1.53302243E+06   3.65698534E+06   4.57614190E+07   0.25585389      
  87               1.04712855E+02   1.46266711E+01   1992.50761981    2.08651018E-04   5.31705735E+19   1.28647057E+06   3.90302200E+06   4.35249767E+07   0.25448655      
  88               1.23026877E+02   1.49648142E+01   2004.64760901    2.12178877E-04   5.40703436E+19   1.16063132E+06   4.02914543E+06   4.19178900E+07   0.25457657      
  89               1.44543977E+02   1.53501601E+01   2017.14841340    2.16290716E-04   5.51189451E+19   1.11208154E+06   4.07772479E+06   4.01190985E+07   0.25298612      
  90               1.69824365E+02   1.57878173E+01   2031.98367486    2.20829103E-04   5.62765826E+19   1.07879070E+06   4.10981903E+06   3.81165317E+07   0.2529545       
  91               1.99526231E+02   1.62833772E+01   2047.48879258    2.26031408E-04   5.76034891E+19   1.02983401E+06   4.16958076E+06   3.58984183E+07   0.25139881      
  92               2.34422882E+02   1.68425608E+01   2065.29014414    2.31772225E-04   5.90680848E+19   9.88753813E+05   4.20742353E+06   3.34553285E+07   0.24976956      
  93               2.75422870E+02   1.74735251E+01   2083.88405817    2.38302435E-04   6.07341302E+19   9.44689296E+05   4.24399116E+06   3.07705403E+07   0.2482006       
  94               3.23593657E+02   1.81833229E+01   2104.92956731    2.45494231E-04   6.25693324E+19   9.07377348E+05   4.28144348E+06   2.78359334E+07   0.24758288      
  95               3.80189396E+02   1.89793468E+01   2126.97327989    2.53575215E-04   6.46316238E+19   8.61082663E+05   4.32781405E+06   2.46454807E+07   0.24572019      
  96               4.46683592E+02   1.98695431E+01   2151.30243785    2.62453315E-04   6.68978640E+19   8.20159482E+05   4.36899867E+06   2.11947850E+07   0.24488247      
  97               5.24807460E+02   2.08622481E+01   2176.81664098    2.72320111E-04   6.94168810E+19   7.72054748E+05   4.42362193E+06   1.74815310E+07   0.24254652      
  98               6.16595002E+02   2.19665394E+01   2204.29754393    2.83140410E-04   7.21800645E+19   7.24476215E+05   4.47173962E+06   1.35046436E+07   0.23991669      
  99               7.24435960E+02   2.31922108E+01   2232.81917646    2.95096936E-04   7.52340489E+19   6.75421390E+05   4.52174381E+06   9.26439540E+06   0.23704611      
  100              8.51138038E+02   2.45498893E+01   2263.16782532    3.08154366E-04   7.85703372E+19   6.27319753E+05   4.57021724E+06   4.76213048E+06   0.2338176       
  101              1.00000000E+03   2.60511763E+01   2294.34099469    3.22520950E-04   8.22422934E+19   5.98473304E+05   4.59918064E+06   0.00000000E+00   0.23047594      
