# ATMO pressure-temperature profile
# Effective temperature = 400.0K
# log(g) = 5.5cm/s^2
# M/H = 0.0
# Optical depth grid in band 17 (1.20-1.33microns)
# All parameters in cgs units
#
# Model Level      Optical Depth    Pressure         Temperature      Density          Number Density   Rad Flux         Conv Flux        Radial Extension Adiabatic Gradient
#                                   [Ba]             [K]              [g/cm^3]         [/cm^3]          [ergs/s/cm^2/sr] [ergs/s/cm^2/sr] [cm]             [K/Ba]          
  1                8.00000000E-07   1.00000000E-05   63.94390704      4.40766473E-09   1.13273070E+15   1.45139339E+06   0.00000000E+00   1.07348706E+06   0.34612403      
  2                9.86413681E-07   3.05080543E-04   71.77633322      1.19795627E-07   3.07864124E+16   1.45139339E+06   0.00000000E+00   1.03287867E+06   0.31479358      
  3                1.21626494E-06   6.65408253E-04   73.86672015      2.53890873E-07   6.52476999E+16   1.45139337E+06   0.00000000E+00   1.02634505E+06   0.3148325       
  4                1.49967547E-06   1.09784065E-03   80.98270745      3.82080380E-07   9.81912650E+16   1.45139335E+06   0.00000000E+00   1.02195452E+06   0.31485705      
  5                1.84912550E-06   1.61421152E-03   81.82567344      5.56004843E-07   1.42888308E+17   1.45139333E+06   0.00000000E+00   1.01841173E+06   0.31487607      
  6                2.28000336E-06   2.23345265E-03   87.72491350      7.17565455E-07   1.84407950E+17   1.45139331E+06   0.00000000E+00   1.01531153E+06   0.31489234      
  7                2.81128314E-06   2.97866255E-03   88.31977498      9.50541479E-07   2.44280720E+17   1.45139331E+06   0.00000000E+00   1.01245813E+06   0.31490704      
  8                3.46636019E-06   3.88084788E-03   92.94288756      1.17684206E-06   3.02437959E+17   1.45139335E+06   0.00000000E+00   1.00976070E+06   0.31492087      
  9                4.27408139E-06   4.97157366E-03   94.56540365      1.48173084E-06   3.80791668E+17   1.45139341E+06   0.00000000E+00   1.00714871E+06   0.31493417      
  10               5.27001545E-06   6.29227882E-03   99.12999115      1.78900112E-06   4.59757403E+17   1.45139353E+06   0.00000000E+00   1.00458354E+06   0.31494721      
  11               6.49801917E-06   7.89092033E-03   101.91415327     2.18223092E-06   5.60814195E+17   1.45139365E+06   0.00000000E+00   1.00202498E+06   0.31496018      
  12               8.01216876E-06   9.81825285E-03   106.50589288     2.59817805E-06   6.67707746E+17   1.45139380E+06   0.00000000E+00   9.99465379E+05   0.31497325      
  13               9.87914110E-06   1.20858435E-02   110.64470466     3.07862174E-06   7.91174303E+17   1.45139374E+06   0.00000000E+00   9.96929943E+05   0.31498655      
  14               1.21811499E-05   1.45883628E-02   115.62823043     3.55593654E-06   9.13836535E+17   1.45139305E+06   0.00000000E+00   9.94538145E+05   0.31841604      
  15               1.50195662E-05   1.66543457E-02   119.74016745     3.92097787E-06   1.00742692E+18   1.45139093E+06   0.00000000E+00   9.92788410E+05   0.31799201      
  16               1.85193820E-05   1.82518220E-02   122.97845964     4.18357001E-06   1.07498651E+18   1.45138838E+06   2.02556328E+01   9.91541131E+05   0.32158282      
  17               2.28347147E-05   1.95399746E-02   126.05398227     4.37226277E-06   1.12277637E+18   1.45138581E+06   6.49393757E+00   9.90588598E+05   0.32139152      
  18               2.81555937E-05   2.05141641E-02   127.68471226     4.53162281E-06   1.16369927E+18   1.45138388E+06   2.23755388E+00   9.89896507E+05   0.32374789      
  19               3.47163285E-05   2.17099352E-02   130.42565619     4.69498628E-06   1.20565024E+18   1.45138298E+06   2.81477025E+00   9.89076714E+05   0.32357096      
  20               4.28058268E-05   2.31766951E-02   132.82732146     4.92156157E-06   1.26383370E+18   1.45138269E+06   0.00000000E+00   9.88111796E+05   0.32520691      
  21               5.27803164E-05   2.49751559E-02   135.32548020     5.20556006E-06   1.33676317E+18   1.45138383E+06   0.00000000E+00   9.86988186E+05   0.32467659      
  22               6.50790328E-05   2.71787110E-02   138.39050800     5.53938285E-06   1.42248728E+18   1.45138681E+06   2.00918463E+00   9.85690530E+05   0.32603881      
  23               8.02435604E-05   2.98752166E-02   143.46512122     5.87358916E-06   1.50830987E+18   1.45138863E+06   0.00000000E+00   9.84195607E+05   0.32602326      
  24               9.89416822E-05   3.31730105E-02   146.43322068     6.38975347E-06   1.64085842E+18   1.45138955E+06   0.00000000E+00   9.82493332E+05   0.32546139      
  25               1.21996786E-04   3.72038932E-02   151.03649529     6.94776837E-06   1.78415396E+18   1.45139032E+06   0.00000000E+00   9.80580242E+05   0.32538656      
  26               1.50424124E-04   4.21271297E-02   153.99285766     7.71614049E-06   1.98146831E+18   1.45139103E+06   0.00000000E+00   9.78453925E+05   0.32508414      
  27               1.85475517E-04   4.81358095E-02   158.56019500     8.56274472E-06   2.19887199E+18   1.45139190E+06   0.00000000E+00   9.76116313E+05   0.32502796      
  28               2.28694484E-04   5.54632697E-02   161.57799763     9.68193365E-06   2.48627456E+18   1.45139346E+06   0.00000000E+00   9.73571441E+05   0.32478564      
  29               2.81984210E-04   6.43914863E-02   166.38937916     1.09154581E-05   2.80303608E+18   1.45139538E+06   0.00000000E+00   9.70825047E+05   0.32466442      
  30               3.47691354E-04   7.52618866E-02   170.06995270     1.24820670E-05   3.20533443E+18   1.45139324E+06   0.00000000E+00   9.67880075E+05   0.32378668      
  31               4.28709385E-04   8.84909974E-02   174.51714201     1.43021358E-05   3.67271169E+18   1.45139128E+06   0.00000000E+00   9.64749046E+05   0.32331098      
  32               5.28606003E-04   1.04584322E-01   178.20983364     1.65529121E-05   4.25070299E+18   1.45139303E+06   0.00000000E+00   9.61441483E+05   0.32205893      
  33               6.51780242E-04   1.24147805E-01   183.16741348     1.91176050E-05   4.90926723E+18   1.45139228E+06   0.00000000E+00   9.57963778E+05   0.32138797      
  34               8.03656185E-04   1.47916664E-01   187.02066725     2.23084185E-05   5.72866389E+18   1.45139112E+06   0.00000000E+00   9.54324148E+05   0.31984218      
  35               9.90921819E-04   1.76787130E-01   192.39154250     2.59188985E-05   6.65565050E+18   1.45138283E+06   0.00000000E+00   9.50527392E+05   0.31907852      
  36               1.22182355E-03   2.11845821E-01   196.52159073     3.04058548E-05   7.80792209E+18   1.45137518E+06   0.00000000E+00   9.46578195E+05   0.31765338      
  37               1.50652933E-03   2.54395073E-01   202.22291619     3.54861629E-05   9.11179974E+18   1.45136345E+06   0.00000000E+00   9.42481926E+05   0.31686573      
  38               1.85757643E-03   3.05986177E-01   206.66518042     4.17640044E-05   1.07240872E+19   1.45134778E+06   0.00000000E+00   9.38244089E+05   0.31550609      
  39               2.29042351E-03   3.68473881E-01   212.79646774     4.88552203E-05   1.25420386E+19   1.45133110E+06   0.00000000E+00   9.33869352E+05   0.31468996      
  40               2.82413135E-03   4.44036025E-01   217.67224064     5.75479215E-05   1.47754596E+19   1.45134223E+06   0.00000000E+00   9.29362908E+05   0.31341769      
  41               3.48220225E-03   5.34962979E-01   224.55895456     6.72706965E-05   1.72551679E+19   1.45135221E+06   0.00000000E+00   9.24740886E+05   0.31260631      
  42               4.29361493E-03   6.43432032E-01   231.65059308     7.83855588E-05   2.01184770E+19   1.45142800E+06   0.00000000E+00   9.20017267E+05   0.31139516      
  43               5.29410063E-03   7.69848163E-01   241.58533540     9.03517456E-05   2.30813044E+19   1.45147265E+06   0.00000000E+00   9.15262980E+05   0.31059795      
  44               6.52771662E-03   9.10902914E-01   253.93081646     1.01708845E-04   2.59825949E+19   1.45126119E+06   3.58324995E+03   9.10609904E+05   0.30945134      
  45               8.04878622E-03   1.08195976E+00   268.41661196     1.14288822E-04   2.91962826E+19   1.45143143E+06   0.00000000E+00   9.05592730E+05   0.30868369      
  46               9.92429106E-03   1.28943032E+00   280.01398502     1.30563022E-04   3.33536983E+19   1.45143963E+06   0.00000000E+00   9.00221861E+05   0.30762104      
  47               1.22368206E-02   1.54073034E+00   294.76364646     1.48202234E-04   3.78598207E+19   1.45141419E+06   0.00000000E+00   8.94508982E+05   0.30680186      
  48               1.50882091E-02   1.84457390E+00   308.07567176     1.69762083E-04   4.33675108E+19   1.45141747E+06   0.00000000E+00   8.88451358E+05   0.30543082      
  49               1.86040198E-02   2.21143817E+00   325.98456495     1.92344514E-04   4.91364305E+19   1.45057558E+06   8.20044950E+02   8.82031208E+05   0.30418098      
  50               2.29390746E-02   2.65337573E+00   344.10296086     2.18631323E-04   5.58516725E+19   1.44347865E+06   7.91774016E+03   8.75216224E+05   0.30311799      
  51               2.82842712E-02   3.18465006E+00   364.08853047     2.48002900E-04   6.33549509E+19   1.43211304E+06   1.92837800E+04   8.68001259E+05   0.30231013      
  52               3.48749902E-02   3.82179128E+00   384.23331187     2.82016078E-04   7.20439955E+19   1.41861061E+06   3.27862577E+04   8.60382743E+05   0.30166797      
  53               4.30014593E-02   4.58495694E+00   406.39946657     3.19879445E-04   8.17161641E+19   1.40481994E+06   4.65769937E+04   8.52347665E+05   0.30109135      
  54               5.30215347E-02   5.49605540E+00   428.64970867     3.63540475E-04   9.28697783E+19   1.39415938E+06   5.72373679E+04   8.43898850E+05   0.30067537      
  55               6.53764590E-02   6.57769550E+00   452.98165669     4.11715626E-04   1.05176566E+20   1.38983870E+06   6.15580818E+04   8.35057722E+05   0.30039672      
  56               8.06102920E-02   7.85400294E+00   477.17326024     4.66679959E-04   1.19217717E+20   1.39451322E+06   5.68833936E+04   8.25850108E+05   0.30014484      
  57               9.93938685E-02   9.35686713E+00   503.52362467     5.26894114E-04   1.34597332E+20   1.40883105E+06   4.25654776E+04   8.16266047E+05   0.29993043      
  58               1.22554340E-01   1.11224329E+01   529.66130806     5.95405462E-04   1.52099360E+20   1.43483716E+06   1.65593562E+04   8.06297868E+05   0.29975368      
  59               1.51111597E-01   1.31900888E+01   558.10808871     6.70141176E-04   1.71180875E+20   1.45138567E+06   0.00000000E+00   7.95946481E+05   0.29958855      
  60               1.86323183E-01   1.55993615E+01   584.50917217     7.56749913E-04   1.93304219E+20   1.45142070E+06   0.00000000E+00   7.85247889E+05   0.29940875      
  61               2.29739671E-01   1.84058818E+01   612.07541999     8.52684855E-04   2.17809856E+20   1.45140588E+06   0.00000000E+00   7.74199531E+05   0.29920208      
  62               2.83272943E-01   2.16677946E+01   640.41702065     9.59375580E-04   2.45062965E+20   1.45143962E+06   0.00000000E+00   7.62794834E+05   0.29896535      
  63               3.49280383E-01   2.54392293E+01   671.81227447     1.07372422E-03   2.74272241E+20   1.44139920E+06   9.99556707E+03   7.51044075E+05   0.29870788      
  64               4.30668686E-01   2.97714751E+01   704.17446441     1.19882749E-03   3.06228722E+20   1.39988071E+06   5.15146805E+04   7.38969039E+05   0.29842591      
  65               5.31021855E-01   3.47416216E+01   737.29068271     1.33612703E-03   3.41300701E+20   1.34170814E+06   1.09687564E+05   7.26550599E+05   0.29806015      
  66               6.54759028E-01   4.04634921E+01   771.61504868     1.48695832E-03   3.79829342E+20   1.27188902E+06   1.79506833E+05   7.13713560E+05   0.29757991      
  67               8.07329079E-01   4.70566603E+01   806.95846854     1.65350570E-03   4.22372620E+20   1.19735081E+06   2.54045086E+05   7.00416915E+05   0.29697729      
  68               9.95450561E-01   5.46369552E+01   843.59389828     1.83648982E-03   4.69114545E+20   1.12988175E+06   3.21514093E+05   6.86661009E+05   0.29637188      
  69               1.22740757E+00   6.33044858E+01   881.10544167     2.03723975E-03   5.20394193E+20   1.08279687E+06   3.68598855E+05   6.72490666E+05   0.29560594      
  70               1.51341452E+00   7.32228774E+01   919.86226676     2.25715413E-03   5.76567059E+20   1.06516616E+06   3.86229435E+05   6.57864175E+05   0.29481795      
  71               1.86606598E+00   8.45482951E+01   959.57250368     2.49842122E-03   6.38194268E+20   1.07322314E+06   3.78172330E+05   6.42782785E+05   0.29380094      
  72               2.30089127E+00   9.74041684E+01   1000.30813962    2.76109570E-03   7.05293010E+20   1.09886842E+06   3.52526971E+05   6.27304305E+05   0.29279277      
  73               2.83703828E+00   1.11886151E+02   1041.60329787    3.04586926E-03   7.78036241E+20   1.13285280E+06   3.18542533E+05   6.11512494E+05   0.29150385      
  74               3.49811672E+00   1.28076776E+02   1083.40676458    3.35209951E-03   8.56258085E+20   1.16866649E+06   2.82728802E+05   5.95489268E+05   0.29018207      
  75               4.31323774E+00   1.46223474E+02   1125.72768298    3.68320273E-03   9.40826606E+20   1.20018828E+06   2.51206979E+05   5.79157736E+05   0.28877386      
  76               5.31829590E+00   1.66612044E+02   1168.90691433    4.04181594E-03   1.03241025E+21   1.22706953E+06   2.24325610E+05   5.62447351E+05   0.28729992      
  77               6.55754979E+00   1.89482042E+02   1212.74428780    4.43044855E-03   1.13168265E+21   1.25720281E+06   1.94192219E+05   5.45356875E+05   0.28578367      
  78               8.08557104E+00   2.15044986E+02   1257.33590754    4.84982141E-03   1.23880754E+21   1.28552085E+06   1.65874161E+05   5.27917766E+05   0.2841566       
  79               9.96964736E+00   2.43448524E+02   1302.25666993    5.30099317E-03   1.35405528E+21   1.30658971E+06   1.44805304E+05   5.10203177E+05   0.28256398      
  80               1.22927457E+01   2.74933161E+02   1347.72188292    5.78458937E-03   1.47758572E+21   1.32459703E+06   1.26797992E+05   4.92223415E+05   0.28088373      
  81               1.51571657E+01   3.10049067E+02   1393.78544814    6.30781937E-03   1.61124040E+21   1.34361462E+06   1.07780387E+05   4.73839918E+05   0.2792197       
  82               1.86890445E+01   3.49392856E+02   1440.99805579    6.87534428E-03   1.75621008E+21   1.35878364E+06   9.26113749E+04   4.54947416E+05   0.27747029      
  83               2.30439114E+01   3.93461703E+02   1489.03993388    7.49271231E-03   1.91391198E+21   1.36371757E+06   8.76775318E+04   4.35531177E+05   0.27576826      
  84               2.84135369E+01   4.42553573E+02   1538.05375285    8.15899096E-03   2.08410779E+21   1.34926275E+06   1.02132450E+05   4.15676080E+05   0.27395727      
  85               3.50343769E+01   4.96774536E+02   1587.25389185    8.87471487E-03   2.26693342E+21   1.30650064E+06   1.44894643E+05   3.95526220E+05   0.27214062      
  86               4.31979859E+01   5.55178582E+02   1635.94367376    9.62289043E-03   2.45804708E+21   1.23707944E+06   2.14316084E+05   3.75540802E+05   0.27027222      
  87               5.32638553E+01   6.18241248E+02   1683.92172643    1.04104550E-02   2.65926683E+21   1.15776429E+06   2.93631420E+05   3.55616406E+05   0.26850253      
  88               6.56752445E+01   6.87199902E+02   1732.38818426    1.12537580E-02   2.87318583E+21   1.08650286E+06   3.64892888E+05   3.35466559E+05   0.26671765      
  89               8.09786996E+01   7.63621233E+02   1781.49764345    1.21605161E-02   3.10469243E+21   1.03045980E+06   4.20935993E+05   3.14808466E+05   0.26498403      
  90               9.98481215E+01   8.49563580E+02   1832.54073305    1.31523063E-02   3.35790256E+21   9.86527974E+05   4.64867840E+05   2.93318746E+05   0.2631663       
  91               1.23114441E+02   9.47753225E+02   1885.70955420    1.42589201E-02   3.64037656E+21   9.53014107E+05   4.98381835E+05   2.70645021E+05   0.26134607      
  92               1.51802212E+02   1.06205838E+03   1942.63762569    1.55108520E-02   3.95988373E+21   9.25154929E+05   5.26241120E+05   2.46339428E+05   0.25939081      
  93               1.87174723E+02   1.19626984E+03   2003.12478652    1.69450508E-02   4.32560631E+21   8.92800211E+05   5.58617363E+05   2.20160391E+05   0.25737474      
  94               2.30789634E+02   1.35323631E+03   2067.63617193    1.85766512E-02   4.74051321E+21   8.63163457E+05   5.88232724E+05   1.92182662E+05   0.25522181      
  95               2.84567566E+02   1.53478460E+03   2134.65489411    2.04239259E-02   5.20769570E+21   8.18540052E+05   6.32868973E+05   1.62707107E+05   0.25301928      
  96               3.50876675E+02   1.74146413E+03   2203.89085003    2.24599704E-02   5.72334981E+21   7.43211563E+05   7.08185581E+05   1.32190712E+05   0.25070482      
  97               4.32636941E+02   1.96897497E+03   2272.22913196    2.46295689E-02   6.27644766E+21   6.39215872E+05   8.12216452E+05   1.01601388E+05   0.24828417      
  98               5.33448747E+02   2.19469567E+03   2334.17092881    2.67319892E-02   6.81031955E+21   5.12744399E+05   9.39278691E+05   7.37813174E+04   0.24582067      
  99               6.57751428E+02   2.39321618E+03   2383.87454682    2.85415084E-02   7.27150612E+21   4.33335874E+05   1.01811615E+06   5.10538085E+04   0.24343144      
  100              8.11018759E+02   2.62316920E+03   2437.73733732    3.05917387E-02   7.79408673E+21   4.03120120E+05   1.05003714E+06   2.64445082E+04   0.24116608      
  101              1.00000000E+03   2.88853620E+03   2494.51244422    3.29169926E-02   8.38721894E+21   3.85179533E+05   1.06622009E+06   0.00000000E+00   0.23891048      
