# ATMO pressure-temperature profile
# Effective temperature = 1100.0K
# log(g) = 3.0cm/s^2
# M/H = 0.0
# Optical depth grid in band 17 (1.20-1.33microns)
# All parameters in cgs units
#
# Model Level      Optical Depth    Pressure         Temperature      Density          Number Density   Rad Flux         Conv Flux        Radial Extension Adiabatic Gradient
#                                   [Ba]             [K]              [g/cm^3]         [/cm^3]          [ergs/s/cm^2/sr] [ergs/s/cm^2/sr] [cm]             [K/Ba]          
  1                1.00000000E-04   1.00000000E-05   410.62353826     6.90448814E-10   1.76393265E+14   8.30321535E+07   0.00000000E+00   5.47068448E+08   0.29781059      
  2                1.17489755E-04   2.76107185E-05   487.76863763     1.60489577E-09   4.10005493E+14   8.30321527E+07   0.00000000E+00   5.30338723E+08   0.29743104      
  3                1.38038426E-04   4.64769005E-05   511.67739061     2.57527644E-09   6.57910428E+14   8.30321522E+07   0.00000000E+00   5.21058706E+08   0.29752551      
  4                1.62181010E-04   6.77839948E-05   531.80083855     3.61377294E-09   9.23217401E+14   8.30321517E+07   0.00000000E+00   5.14074259E+08   0.29758854      
  5                1.90546072E-04   9.21584678E-05   542.14812314     4.81947715E-09   1.23124116E+15   8.30321513E+07   0.00000000E+00   5.08233694E+08   0.29904782      
  6                2.23872114E-04   1.20208617E-04   556.03881193     6.12932668E-09   1.56587227E+15   8.30321509E+07   0.00000000E+00   5.03072751E+08   0.29900949      
  7                2.63026799E-04   1.52572032E-04   563.37272738     7.67823386E-09   1.96157515E+15   8.30321503E+07   0.00000000E+00   4.98355193E+08   0.29893144      
  8                3.09029543E-04   1.89983704E-04   575.33604681     9.36216773E-09   2.39177657E+15   8.30321497E+07   0.00000000E+00   4.93942655E+08   0.29890197      
  9                3.63078055E-04   2.33268010E-04   581.54908752     1.13723575E-08   2.90532450E+15   8.30321488E+07   0.00000000E+00   4.89747799E+08   0.29882576      
  10               4.26579519E-04   2.83396653E-04   592.64328276     1.35575808E-08   3.46359568E+15   8.30321476E+07   0.00000000E+00   4.85710696E+08   0.29879801      
  11               5.01187234E-04   3.41473742E-04   598.24669897     1.61829519E-08   4.13430814E+15   8.30321463E+07   0.00000000E+00   4.81789804E+08   0.29872044      
  12               5.88843655E-04   4.08805766E-04   608.86943688     1.90358879E-08   4.86316134E+15   8.30321448E+07   0.00000000E+00   4.77953555E+08   0.29869228      
  13               6.91830971E-04   4.86872507E-04   614.22612911     2.24733171E-08   5.74133388E+15   8.30321431E+07   0.00000000E+00   4.74179173E+08   0.29860871      
  14               8.12830516E-04   5.77431132E-04   624.72073466     2.62055232E-08   6.69483863E+15   8.30321410E+07   0.00000000E+00   4.70447528E+08   0.29857791      
  15               9.54992586E-04   6.82495897E-04   630.10297719     3.07090838E-08   7.84538667E+15   8.30321386E+07   0.00000000E+00   4.66743901E+08   0.29848784      
  16               1.12201845E-03   8.04481109E-04   640.75220402     3.55962725E-08   9.09392946E+15   8.30321358E+07   0.00000000E+00   4.63054358E+08   0.29845354      
  17               1.31825674E-03   9.46113163E-04   646.40701586     4.14968896E-08   1.06013913E+16   8.30321324E+07   0.00000000E+00   4.59369239E+08   0.29835418      
  18               1.54881662E-03   1.11068703E-03   657.40400889     4.78998891E-08   1.22372884E+16   8.30321283E+07   0.00000000E+00   4.55677876E+08   0.29831317      
  19               1.81970086E-03   1.30190601E-03   663.49720167     5.56307642E-08   1.42123658E+16   8.30321235E+07   0.00000000E+00   4.51973575E+08   0.29820054      
  20               2.13796209E-03   1.52432666E-03   675.01272212     6.40233262E-08   1.63565583E+16   8.30321177E+07   0.00000000E+00   4.48246654E+08   0.29815141      
  21               2.51188643E-03   1.78304156E-03   681.74739006     7.41496199E-08   1.89436569E+16   8.30321106E+07   0.00000000E+00   4.44491758E+08   0.29802208      
  22               2.95120923E-03   2.08449239E-03   693.96876468     8.51576999E-08   2.17563596E+16   8.30321018E+07   0.00000000E+00   4.40698153E+08   0.29795963      
  23               3.46736850E-03   2.43585061E-03   701.52772245     9.84389404E-08   2.51496330E+16   8.30320907E+07   0.00000000E+00   4.36860596E+08   0.29780672      
  24               4.07380278E-03   2.84656469E-03   714.65568537     1.12920831E-07   2.88502808E+16   8.30320774E+07   0.00000000E+00   4.32965016E+08   0.29772714      
  25               4.78630092E-03   3.32718581E-03   723.29223807     1.30409255E-07   3.33187800E+16   8.30320614E+07   0.00000000E+00   4.29004406E+08   0.29754531      
  26               5.62341325E-03   3.89234196E-03   737.57962857     1.49599523E-07   3.82232767E+16   8.30320421E+07   0.00000000E+00   4.24958145E+08   0.29743974      
  27               6.60693448E-03   4.55850208E-03   747.50117356     1.72874144E-07   4.41708868E+16   8.30320191E+07   0.00000000E+00   4.20815770E+08   0.29721719      
  28               7.76247117E-03   5.34944924E-03   763.12383690     1.98705313E-07   5.07738261E+16   8.30319917E+07   0.00000000E+00   4.16548163E+08   0.29707782      
  29               9.12010839E-03   6.29296394E-03   774.51974667     2.30305875E-07   5.88502874E+16   8.30319609E+07   0.00000000E+00   4.12137610E+08   0.29680327      
  30               1.07151931E-02   7.42983916E-03   791.69293632     2.65995155E-07   6.79748850E+16   8.30319257E+07   0.00000000E+00   4.07544233E+08   0.29661726      
  31               1.25892541E-02   8.80751372E-03   804.72961788     3.10196463E-07   7.92737097E+16   8.30318866E+07   0.00000000E+00   4.02748074E+08   0.29620526      
  32               1.47910839E-02   1.04928589E-02   823.57670268     3.61067231E-07   9.22817069E+16   8.30318422E+07   0.00000000E+00   3.97712076E+08   0.29598888      
  33               1.73780083E-02   1.25643940E-02   838.40506504     4.24686037E-07   1.08545917E+17   8.30317976E+07   0.00000000E+00   3.92421939E+08   0.29555796      
  34               2.04173794E-02   1.51270473E-02   859.08931424     4.98958858E-07   1.27538613E+17   8.30317534E+07   0.00000000E+00   3.86854799E+08   0.29521732      
  35               2.39883292E-02   1.83051788E-02   875.88639178     5.92192645E-07   1.51374261E+17   8.30317069E+07   0.00000000E+00   3.81008101E+08   0.29471102      
  36               2.81838293E-02   2.22563810E-02   898.66340664     7.01715664E-07   1.79383845E+17   8.30316567E+07   0.00000000E+00   3.74878614E+08   0.29434235      
  37               3.31131121E-02   2.71715542E-02   917.83880999     8.38752022E-07   2.14424252E+17   8.30315959E+07   0.00000000E+00   3.68471777E+08   0.29377254      
  38               3.89045145E-02   3.32831570E-02   943.24082687     9.99676165E-07   2.55580528E+17   8.30315268E+07   0.00000000E+00   3.61797346E+08   0.29326834      
  39               4.57088190E-02   4.08795880E-02   965.22081706     1.19983496E-06   3.06764902E+17   8.30314475E+07   0.00000000E+00   3.54861154E+08   0.29242654      
  40               5.37031796E-02   5.02850846E-02   993.57536009     1.43369923E-06   3.66576155E+17   8.30313592E+07   0.00000000E+00   3.47689882E+08   0.29168245      
  41               6.30957344E-02   6.18826765E-02   1018.77177827    1.72067637E-06   4.39964893E+17   8.30312673E+07   0.00000000E+00   3.40305897E+08   0.29072873      
  42               7.41310241E-02   7.60460750E-02   1050.20287836    2.05113800E-06   5.24480612E+17   8.30311853E+07   0.00000000E+00   3.32766730E+08   0.28991903      
  43               8.70963590E-02   9.31680642E-02   1078.27801089    2.44747714E-06   6.25838336E+17   8.30311196E+07   0.00000000E+00   3.25124879E+08   0.28874885      
  44               1.02329299E-01   1.13563816E-01   1112.29151602    2.89196834E-06   7.39515347E+17   8.30310671E+07   0.00000000E+00   3.17458586E+08   0.2877044       
  45               1.20226443E-01   1.37548843E-01   1142.48257724    3.41015321E-06   8.72033556E+17   8.30310748E+07   0.00000000E+00   3.09820980E+08   0.28646284      
  46               1.41253754E-01   1.65411479E-01   1177.97950676    3.97730161E-06   1.01707680E+18   8.30311114E+07   0.00000000E+00   3.02255405E+08   0.28542418      
  47               1.65958691E-01   1.97490844E-01   1209.50154179    4.62485203E-06   1.18267762E+18   8.30311747E+07   0.00000000E+00   2.94775726E+08   0.28399187      
  48               1.94984460E-01   2.34083338E-01   1246.31921051    5.31979784E-06   1.36040135E+18   8.30312358E+07   0.00000000E+00   2.87398449E+08   0.28267585      
  49               2.29086765E-01   2.75534620E-01   1279.06535496    6.10148387E-06   1.56030420E+18   8.30313348E+07   0.00000000E+00   2.80122781E+08   0.28101902      
  50               2.69153480E-01   3.22148764E-01   1317.26402609    6.92682372E-06   1.77137079E+18   8.30314536E+07   0.00000000E+00   2.72952547E+08   0.27961484      
  51               3.16227766E-01   3.74224624E-01   1351.77714836    7.84111328E-06   2.00517878E+18   8.30316250E+07   0.00000000E+00   2.65886430E+08   0.27818193      
  52               3.71535229E-01   4.31958180E-01   1392.36943208    8.78704014E-06   2.24705169E+18   8.30318108E+07   0.00000000E+00   2.58931076E+08   0.27701981      
  53               4.36515832E-01   4.95652686E-01   1429.51362595    9.82091111E-06   2.51139488E+18   8.30320961E+07   0.00000000E+00   2.52074521E+08   0.27534488      
  54               5.12861384E-01   5.65237827E-01   1472.91176464    1.08705399E-05   2.77958735E+18   8.30324895E+07   0.00000000E+00   2.45339789E+08   0.27383338      
  55               6.02559586E-01   6.38415941E-01   1512.63720344    1.19604521E-05   3.05699539E+18   8.30331927E+07   0.00000000E+00   2.38921660E+08   0.27199845      
  56               7.07945784E-01   7.14269439E-01   1559.50571823    1.29802863E-05   3.31742365E+18   8.25531933E+07   4.93049977E+05   2.32833811E+08   0.2704082       
  57               8.31763771E-01   7.91119391E-01   1602.95240386    1.39895816E-05   3.57476290E+18   7.96574821E+07   3.40065109E+06   2.27130791E+08   0.26846755      
  58               9.77237221E-01   8.65411535E-01   1641.98057251    1.49469560E-05   3.81751282E+18   7.52835730E+07   7.78920995E+06   2.21992957E+08   0.26663293      
  59               1.14815362E+00   9.32778185E-01   1674.92951518    1.58039985E-05   4.03373798E+18   7.01329075E+07   1.29481697E+07   2.17609668E+08   0.26498043      
  60               1.34896288E+00   9.89451607E-01   1701.31418132    1.65174155E-05   4.21246083E+18   6.53459670E+07   1.77327118E+07   2.14101741E+08   0.26357419      
  61               1.58489319E+00   1.03740652E+00   1722.53424943    1.71043878E-05   4.36221380E+18   6.17931655E+07   2.12877206E+07   2.11248697E+08   0.26229129      
  62               1.86208714E+00   1.09107534E+00   1745.51429462    1.77521386E-05   4.52748657E+18   5.85190850E+07   2.45708834E+07   2.08168751E+08   0.26105193      
  63               2.18776162E+00   1.15094411E+00   1769.88427337    1.84672855E-05   4.71015508E+18   5.49315387E+07   2.81557279E+07   2.04862212E+08   0.2599853       
  64               2.57039578E+00   1.19827479E+00   1788.57566753    1.90430472E-05   4.85260502E+18   5.16521608E+07   3.14045462E+07   2.02337965E+08   0.25904824      
  65               3.01995172E+00   1.23295899E+00   1801.73344395    1.94508918E-05   4.95660065E+18   4.91960008E+07   3.38349409E+07   2.00535804E+08   0.25834248      
  66               3.54813389E+00   1.27226248E+00   1816.48107816    1.99076481E-05   5.07307967E+18   4.69697874E+07   3.60643619E+07   1.98538466E+08   0.25773211      
  67               4.16869383E+00   1.31666785E+00   1832.50257128    2.04219460E-05   5.20424196E+18   4.47622041E+07   3.82755383E+07   1.96336163E+08   0.25703984      
  68               4.89778819E+00   1.36661916E+00   1850.20155179    2.09934314E-05   5.35000642E+18   4.24842531E+07   4.05565717E+07   1.93923722E+08   0.25622889      
  69               5.75439937E+00   1.42257637E+00   1869.19929101    2.16302964E-05   5.51246470E+18   4.01014962E+07   4.29423255E+07   1.91297791E+08   0.25533483      
  70               6.76082975E+00   1.48497252E+00   1889.86698688    2.23313276E-05   5.69132016E+18   3.76010441E+07   4.54473462E+07   1.88458764E+08   0.25432732      
  71               7.94328235E+00   1.55417406E+00   1911.74547973    2.31035711E-05   5.88837451E+18   3.49728295E+07   4.80783409E+07   1.85412137E+08   0.25321902      
  72               9.33254301E+00   1.63030427E+00   1935.09203975    2.39417266E-05   6.10229050E+18   3.23831178E+07   5.06618481E+07   1.82175156E+08   0.25196291      
  73               1.09647820E+01   1.71408264E+00   1959.51673359    2.48568044E-05   6.33590446E+18   3.01165106E+07   5.29218939E+07   1.78740906E+08   0.25056224      
  74               1.28824955E+01   1.80700892E+00   1985.64745259    2.58576590E-05   6.59149600E+18   2.81427620E+07   5.48942488E+07   1.75075502E+08   0.24896173      
  75               1.51356125E+01   1.90984134E+00   2013.00174481    2.69554640E-05   6.87193398E+18   2.62698795E+07   5.67655914E+07   1.71180455E+08   0.24721879      
  76               1.77827941E+01   2.02339670E+00   2041.96511329    2.81501856E-05   7.17725801E+18   2.44727397E+07   5.85610471E+07   1.67058109E+08   0.24529177      
  77               2.08929613E+01   2.14855783E+00   2072.01740990    2.94543118E-05   7.51068395E+18   2.27382907E+07   6.02938494E+07   1.62711452E+08   0.24320567      
  78               2.45470892E+01   2.28628383E+00   2103.54983893    3.08680132E-05   7.87232794E+18   2.10730102E+07   6.19576397E+07   1.58143849E+08   0.24090144      
  79               2.88403150E+01   2.43762055E+00   2136.00381485    3.24056362E-05   8.26589563E+18   1.94714801E+07   6.35578477E+07   1.53358859E+08   0.23846739      
  80               3.38844156E+01   2.60370934E+00   2169.80070108    3.40674944E-05   8.69157526E+18   1.79414246E+07   6.50863498E+07   1.48360107E+08   0.23584614      
  81               3.98107171E+01   2.78579700E+00   2204.34589584    3.58702214E-05   9.15367655E+18   1.64678836E+07   6.65580895E+07   1.43151217E+08   0.23304181      
  82               4.67735141E+01   2.98524700E+00   2240.07309966    3.78147418E-05   9.65259134E+18   1.50583390E+07   6.79656583E+07   1.37735716E+08   0.22994636      
  83               5.49540874E+01   3.20355226E+00   2276.33340690    3.99208730E-05   1.01934637E+19   1.37054398E+07   6.93172933E+07   1.32117013E+08   0.22664612      
  84               6.45654229E+01   3.44234554E+00   2313.59907883    4.21898684E-05   1.07768589E+19   1.24082123E+07   7.06130946E+07   1.26298383E+08   0.22314067      
  85               7.58577575E+01   3.70317949E+00   2351.16595515    4.46472481E-05   1.14082050E+19   1.11691097E+07   7.18494191E+07   1.20288331E+08   0.21956502      
  86               8.91250938E+01   3.98802244E+00   2389.57784299    4.72858268E-05   1.20882171E+19   1.00520076E+07   7.29638325E+07   1.14088982E+08   0.21584402      
  87               1.04712855E+02   4.29925399E+00   2428.15287851    5.01393814E-05   1.28245731E+19   9.03576504E+06   7.39780712E+07   1.07697047E+08   0.21206664      
  88               1.23026877E+02   4.63918339E+00   2467.47379430    5.32092990E-05   1.36180471E+19   8.09592302E+06   7.49158805E+07   1.01115779E+08   0.20821357      
  89               1.44543977E+02   5.01035657E+00   2506.79619406    5.65273318E-05   1.44768958E+19   7.22107249E+06   7.57886375E+07   9.43478175E+07   0.20441967      
  90               1.69824365E+02   5.41554051E+00   2546.77980314    6.00945665E-05   1.54019692E+19   6.43238039E+06   7.65753430E+07   8.73958119E+07   0.20053392      
  91               1.99526231E+02   5.85770769E+00   2586.59695292    6.39487948E-05   1.64030562E+19   5.71931470E+06   7.72865145E+07   8.02630519E+07   0.19671335      
  92               2.34422882E+02   6.34005401E+00   2626.98894252    6.80894133E-05   1.74807697E+19   5.08519739E+06   7.79189641E+07   7.29532049E+07   0.1929221       
  93               2.75422870E+02   6.86599813E+00   2667.08741512    7.25597209E-05   1.86462829E+19   4.51320171E+06   7.84896330E+07   6.54705211E+07   0.1892421       
  94               3.23593657E+02   7.43920873E+00   2707.69313381    7.73573763E-05   1.99000029E+19   4.00532360E+06   7.89967721E+07   5.78194665E+07   0.18550644      
  95               3.80189396E+02   8.06365705E+00   2747.84463633    8.25343579E-05   2.12552254E+19   3.55129964E+06   7.94508239E+07   5.00043763E+07   0.18195634      
  96               4.46683592E+02   8.74354309E+00   2788.47564155    8.80837464E-05   2.27115325E+19   3.15275336E+06   7.98502186E+07   4.20303634E+07   0.17858182      
  97               5.24807460E+02   9.48328719E+00   2828.59176373    9.40636125E-05   2.42836782E+19   2.79572330E+06   8.02089043E+07   3.39033907E+07   0.17543953      
  98               6.16595002E+02   1.02875375E+01   2869.18239551    1.00462315E-04   2.59704285E+19   2.48038120E+06   8.05266581E+07   2.56299690E+07   0.17236913      
  99               7.24435960E+02   1.11612005E+01   2909.15408528    1.07347750E-04   2.77888149E+19   2.19760636E+06   8.08127025E+07   1.72169472E+07   0.16953629      
  100              8.51138038E+02   1.21094401E+01   2949.60858677    1.14700692E-04   2.97362031E+19   1.94892415E+06   8.10655407E+07   8.67129824E+06   0.16685124      
  101              1.00000000E+03   1.31377048E+01   2989.38658131    1.22599277E-04   3.18319509E+19   1.81714779E+06   8.11999832E+07   0.00000000E+00   0.16435156      
