# ATMO pressure-temperature profile
# Effective temperature = 3000.0K
# log(g) = 5.0cm/s^2
# M/H = 0.0
# Optical depth grid in band 17 (1.20-1.33microns)
# All parameters in cgs units
#
# Model Level      Optical Depth    Pressure         Temperature      Density          Number Density   Rad Flux         Conv Flux        Radial Extension Adiabatic Gradient
#                                   [Ba]             [K]              [g/cm^3]         [/cm^3]          [ergs/s/cm^2/sr] [ergs/s/cm^2/sr] [cm]             [K/Ba]          
  1                1.00000000E-08   1.00000000E-05   1625.16998159    1.73160039E-10   4.45684005E+13   4.59270902E+09   0.00000000E+00   1.59343179E+07   0.27618907      
  2                1.28824955E-08   1.01166371E-05   1615.05001094    1.76462745E-10   4.53707580E+13   4.59270902E+09   0.00000000E+00   1.59276454E+07   0.27103286      
  3                1.65958691E-08   1.02641690E-05   1647.19286100    1.74947150E-10   4.51341412E+13   4.59270902E+09   0.00000000E+00   1.59192477E+07   0.27147312      
  4                2.13796209E-08   1.04533605E-05   1620.38598896    1.81670762E-10   4.67265037E+13   4.59270902E+09   0.00000000E+00   1.59086345E+07   0.27081164      
  5                2.75422870E-08   1.06961324E-05   1651.81925153    1.81741078E-10   4.69018622E+13   4.59270902E+09   0.00000000E+00   1.58952723E+07   0.27090818      
  6                3.54813389E-08   1.10077739E-05   1624.44544491    1.90799184E-10   4.90817693E+13   4.59270902E+09   0.00000000E+00   1.58785350E+07   0.2706675       
  7                4.57088190E-08   1.14074824E-05   1656.96189764    1.93179864E-10   4.98658382E+13   4.59270902E+09   0.00000000E+00   1.58577129E+07   0.27064423      
  8                5.88843655E-08   1.19198821E-05   1630.04058291    2.05865158E-10   5.29662689E+13   4.59270902E+09   0.00000000E+00   1.58320159E+07   0.27051572      
  9                7.58577575E-08   1.25761596E-05   1663.69705832    2.12060294E-10   5.47519549E+13   4.59270902E+09   0.00000000E+00   1.58006023E+07   0.27042069      
  10               9.77237221E-08   1.34158121E-05   1637.84052368    2.30552249E-10   5.93295692E+13   4.59270902E+09   0.00000000E+00   1.57626244E+07   0.27032279      
  11               1.25892541E-07   1.44891043E-05   1672.67314470    2.42951705E-10   6.27417018E+13   4.59270902E+09   0.00000000E+00   1.57172694E+07   0.27017741      
  12               1.62181010E-07   1.58589551E-05   1648.35492385    2.70740181E-10   6.96866646E+13   4.59270902E+09   0.00000000E+00   1.56638521E+07   0.27006962      
  13               2.08929613E-07   1.76058480E-05   1684.39297480    2.93097951E-10   7.57075804E+13   4.59270902E+09   0.00000000E+00   1.56018318E+07   0.26988129      
  14               2.69153480E-07   1.98295697E-05   1661.95809883    3.35676098E-10   8.64209546E+13   4.59270902E+09   0.00000000E+00   1.55309300E+07   0.2697439       
  15               3.46736850E-07   2.26581601E-05   1699.19801924    3.73848393E-10   9.65842891E+13   4.59270902E+09   0.00000000E+00   1.54510734E+07   0.26951437      
  16               4.46683592E-07   2.62489149E-05   1678.89726029    4.39747606E-10   1.13243445E+14   4.59270901E+09   0.00000000E+00   1.53625053E+07   0.26933962      
  17               5.75439937E-07   3.08042288E-05   1717.32102499    5.02786191E-10   1.29922597E+14   4.59270901E+09   0.00000000E+00   1.52656171E+07   0.26907381      
  18               7.41310241E-07   3.65706748E-05   1699.34678726    6.05108955E-10   1.55875119E+14   4.59270901E+09   0.00000000E+00   1.51610638E+07   0.26886239      
  19               9.54992586E-07   4.38662811E-05   1738.90938227    7.06901044E-10   1.82717315E+14   4.59270901E+09   0.00000000E+00   1.50495035E+07   0.26856968      
  20               1.23026877E-06   5.30760370E-05   1723.33125890    8.65642863E-10   2.23077394E+14   4.59270900E+09   0.00000000E+00   1.49317609E+07   0.26832202      
  21               1.58489319E-06   6.46978118E-05   1763.86816483    1.02744973E-09   2.65674156E+14   4.59270900E+09   0.00000000E+00   1.48085170E+07   0.26800913      
  22               2.04173794E-06   7.93317329E-05   1750.57905654    1.27306998E-09   3.28239659E+14   4.59270900E+09   0.00000000E+00   1.46805540E+07   0.26773068      
  23               2.63026799E-06   9.77555217E-05   1791.80844920    1.52745372E-09   3.95162348E+14   4.59270899E+09   0.00000000E+00   1.45484215E+07   0.26740561      
  24               3.38844156E-06   1.20904342E-04   1780.55017335    1.90637926E-09   4.91828308E+14   4.59270899E+09   0.00000000E+00   1.44127567E+07   0.1244826       
  25               4.36515832E-06   1.49991608E-04   1822.10584686    2.30332743E-09   5.96237379E+14   4.59270898E+09   0.00000000E+00   1.42739344E+07   0.12006422      
  26               5.62341325E-06   1.86474658E-04   1812.52095053    2.88647340E-09   7.45182458E+14   4.59270897E+09   0.00000000E+00   1.41324353E+07   0.12404469      
  27               7.24435960E-06   2.32243864E-04   1854.03694842    3.50284104E-09   9.07301655E+14   4.59270896E+09   0.00000000E+00   1.39884841E+07   0.1196664       
  28               9.33254301E-06   2.89567231E-04   1845.78902039    4.39850434E-09   1.13630049E+15   4.59270896E+09   0.00000000E+00   1.38424375E+07   0.12348104      
  29               1.20226443E-05   3.61376006E-04   1887.09019604    5.35181503E-09   1.38705121E+15   4.59270895E+09   0.00000000E+00   1.36944220E+07   0.11967986      
  30               1.54881662E-05   4.51180906E-04   1880.00474724    6.72427164E-09   1.73827148E+15   4.59270894E+09   0.00000000E+00   1.35447131E+07   0.12347698      
  31               1.99526231E-05   5.63497636E-04   1921.07714847    8.19283151E-09   2.12458021E+15   4.59270892E+09   0.00000000E+00   1.33933797E+07   0.12007386      
  32               2.57039578E-05   7.03721460E-04   1915.11256148    1.02892600E-08   2.66153591E+15   4.59270893E+09   0.00000000E+00   1.32406471E+07   0.12366364      
  33               3.31131121E-05   8.78750781E-04   1956.06850985    1.25407983E-08   3.25392473E+15   4.59270893E+09   0.00000000E+00   1.30865538E+07   0.12030559      
  34               4.26579519E-05   1.09680350E-03   1951.25706435    1.57295067E-08   4.07136632E+15   4.59270896E+09   0.00000000E+00   1.29312942E+07   0.12366031      
  35               5.49540874E-05   1.36834260E-03   1992.15642058    1.91632015E-08   4.97504774E+15   4.59270900E+09   0.00000000E+00   1.27748836E+07   0.12065195      
  36               7.07945784E-05   1.70576655E-03   1988.58304216    2.39877539E-08   6.21300496E+15   4.59270911E+09   0.00000000E+00   1.26174989E+07   0.12391212      
  37               9.12010839E-05   2.12480361E-03   2029.45489649    2.91928707E-08   7.58342214E+15   4.59270924E+09   0.00000000E+00   1.24591398E+07   0.12129283      
  38               1.17489755E-04   2.64399404E-03   2027.17958584    3.64484097E-08   9.44700374E+15   4.59270950E+09   0.00000000E+00   1.22999694E+07   0.12427884      
  39               1.51356125E-04   3.28690988E-03   2067.98152068    4.42898485E-08   1.15124295E+16   4.59270981E+09   0.00000000E+00   1.21399456E+07   0.12168644      
  40               1.94984460E-04   4.08117945E-03   2067.12796888    5.51320107E-08   1.43002677E+16   4.59271036E+09   0.00000000E+00   1.19792049E+07   0.12437552      
  41               2.51188643E-04   5.06167343E-03   2107.88995363    6.68668091E-08   1.73929011E+16   4.59271100E+09   0.00000000E+00   1.18177104E+07   0.12204259      
  42               3.23593657E-04   6.26888400E-03   2108.62647991    8.29505098E-08   2.15335889E+16   4.59271197E+09   0.00000000E+00   1.16556122E+07   0.12458081      
  43               4.16869383E-04   7.75372136E-03   2149.41954273    1.00372844E-07   2.61285215E+16   4.59271304E+09   0.00000000E+00   1.14928776E+07   0.12254094      
  44               5.37031796E-04   9.57469899E-03   2151.98797497    1.24024395E-07   3.22263507E+16   4.59271455E+09   0.00000000E+00   1.13296660E+07   0.12473218      
  45               6.91830971E-04   1.18049459E-02   2193.00314895    1.49640982E-07   3.89897621E+16   4.59271612E+09   0.00000000E+00   1.11659497E+07   0.12251602      
  46               8.91250938E-04   1.45274756E-02   2197.76881371    1.84052738E-07   4.78777781E+16   4.59271825E+09   0.00000000E+00   1.10018974E+07   0.12456211      
  47               1.14815362E-03   1.78454157E-02   2239.36456956    2.21267910E-07   5.77201838E+16   4.59272037E+09   0.00000000E+00   1.08374769E+07   0.12262353      
  48               1.47910839E-03   2.18742237E-02   2246.80666953    2.70696746E-07   7.05168307E+16   4.59272309E+09   0.00000000E+00   1.06728579E+07   0.12407349      
  49               1.90546072E-03   2.67564621E-02   2289.40050206    3.24003031E-07   8.46511289E+16   4.59272563E+09   0.00000000E+00   1.05079957E+07   0.12210727      
  50               2.45470892E-03   3.26490574E-02   2300.10620183    3.93934634E-07   1.02813134E+17   4.59272883E+09   0.00000000E+00   1.03430571E+07   0.12303647      
  51               3.16227766E-03   3.97152319E-02   2343.83336507    4.68829753E-07   1.22731547E+17   4.59273171E+09   0.00000000E+00   1.01786216E+07   0.12073554      
  52               4.07380278E-03   4.81539152E-02   2358.82902587    5.65160514E-07   1.47863499E+17   4.59273536E+09   0.00000000E+00   1.00146828E+07   0.12092352      
  53               5.24807460E-03   5.82419937E-02   2405.92307088    6.67704957E-07   1.75339731E+17   4.59273846E+09   0.00000000E+00   9.85045202E+06   0.11854514      
  54               6.76082975E-03   7.02338059E-02   2426.70574847    7.98189642E-07   2.09630719E+17   4.59274259E+09   0.00000000E+00   9.68618910E+06   0.11825853      
  55               8.70963590E-03   8.44235305E-02   2478.96985057    9.34823685E-07   2.46671006E+17   4.59274586E+09   0.00000000E+00   9.52190695E+06   0.11549498      
  56               1.12201845E-02   1.00843375E-01   2529.22407341    1.08920624E-06   2.88792497E+17   4.58779348E+09   4.61300975E+06   9.35917195E+06   0.11214986      
  57               1.44543977E-02   1.19851345E-01   2578.35589237    1.26353476E-06   3.36686644E+17   4.57739593E+09   1.48269062E+07   9.19713364E+06   0.10925725      
  58               1.86208714E-02   1.41868972E-01   2625.37980616    1.46168820E-06   3.91400269E+17   4.56093550E+09   3.11272868E+07   9.03511072E+06   0.10699077      
  59               2.39883292E-02   1.67359339E-01   2672.20048732    1.68547066E-06   4.53635208E+17   4.53754354E+09   5.43825990E+07   8.87269988E+06   0.1049324       
  60               3.09029543E-02   1.96835535E-01   2717.25045718    1.93982139E-06   5.24686239E+17   4.50631970E+09   8.55045342E+07   8.70967519E+06   0.10347814      
  61               3.98107171E-02   2.30860471E-01   2762.74998179    2.22600334E-06   6.05248654E+17   4.46608170E+09   1.25677735E+08   8.54592651E+06   0.10213784      
  62               5.12861384E-02   2.70059882E-01   2806.58023182    2.55052938E-06   6.96960958E+17   4.41562834E+09   1.76104709E+08   8.38140515E+06   0.10108107      
  63               6.60693448E-02   3.15129179E-01   2851.15985486    2.91418336E-06   8.00558162E+17   4.35340714E+09   2.38333283E+08   8.21608369E+06   0.1003546       
  64               8.51138038E-02   3.66837405E-01   2894.32408114    3.32495087E-06   9.18020321E+17   4.27755461E+09   3.14221353E+08   8.04996152E+06   0.099764703     
  65               1.09647820E-01   4.26048649E-01   2938.39361390    3.78342581E-06   1.05020737E+18   4.18573159E+09   4.06102013E+08   7.88301041E+06   0.099293549     
  66               1.41253754E-01   4.93733877E-01   2981.12977969    4.29981763E-06   1.19960394E+18   4.07535099E+09   5.16561636E+08   7.71519042E+06   0.098884483     
  67               1.81970086E-01   5.70995854E-01   3024.88657180    4.87450771E-06   1.36725557E+18   3.94333449E+09   6.48657351E+08   7.54642081E+06   0.098532905     
  68               2.34422882E-01   6.59047146E-01   3067.35013854    5.52042895E-06   1.55624859E+18   3.78648101E+09   8.05593395E+08   7.37667468E+06   0.098338746     
  69               3.01995172E-01   7.59244615E-01   3111.02107389    6.23684999E-06   1.76768390E+18   3.60145532E+09   9.90706056E+08   7.20590717E+06   0.098300109     
  70               3.89045145E-01   8.73131659E-01   3153.52961075    7.04019085E-06   2.00543533E+18   3.38588808E+09   1.20635869E+09   7.03403151E+06   0.098364761     
  71               5.01187234E-01   1.00248257E+00   3197.42464087    7.92930761E-06   2.27092270E+18   3.13904745E+09   1.45323184E+09   6.86089992E+06   0.098618739     
  72               6.45654229E-01   1.14930522E+00   3240.35832861    8.92485006E-06   2.56902411E+18   2.86291813E+09   1.72931711E+09   6.68636220E+06   0.098959399     
  73               8.31763771E-01   1.31589851E+00   3284.86432301    1.00251917E-05   2.90155495E+18   2.56279704E+09   2.02931276E+09   6.51023480E+06   0.099320871     
  74               1.07151931E+00   1.50488392E+00   3328.47779579    1.12571056E-05   3.27478790E+18   2.24831708E+09   2.34359155E+09   6.33233212E+06   0.099701007     
  75               1.38038426E+00   1.71927544E+00   3373.80568326    1.26182717E-05   3.69106109E+18   1.93240518E+09   2.65919172E+09   6.15244081E+06   0.10001102      
  76               1.77827941E+00   1.96253309E+00   3418.24180569    1.41437772E-05   4.15853199E+18   1.63017648E+09   2.96109924E+09   5.97034607E+06   0.10036298      
  77               2.29086765E+00   2.23863762E+00   3464.56834249    1.58298778E-05   4.68015788E+18   1.35504488E+09   3.23602425E+09   5.78581579E+06   0.10079834      
  78               2.95120923E+00   2.55211933E+00   3510.14312472    1.77207744E-05   5.26625631E+18   1.11532806E+09   3.47567330E+09   5.59864183E+06   0.10132332      
  79               3.80189396E+00   2.90817776E+00   3557.82537747    1.98110670E-05   5.92055146E+18   9.13518410E+08   3.67751747E+09   5.40860332E+06   0.10198219      
  80               4.89778819E+00   3.31272288E+00   3604.93907900    2.21558641E-05   6.65599546E+18   7.45831951E+08   3.84520197E+09   5.21550333E+06   0.10270542      
  81               6.30957344E+00   3.77255934E+00   3654.35518364    2.47484561E-05   7.47740947E+18   6.07635489E+08   3.98346338E+09   5.01912163E+06   0.10352198      
  82               8.12830516E+00   4.29546160E+00   3703.35484049    2.76579790E-05   8.40118125E+18   4.92436266E+08   4.09875989E+09   4.81925040E+06   0.10433125      
  83               1.04712855E+01   4.89042746E+00   3754.79569676    3.08773891E-05   9.43379316E+18   3.97654365E+08   4.19366846E+09   4.61565026E+06   0.10515175      
  84               1.34896288E+01   5.56778915E+00   3805.90704550    3.44943062E-05   1.05962072E+19   3.19243810E+08   4.27206201E+09   4.40809147E+06   0.10605864      
  85               1.73780083E+01   6.33949258E+00   3859.70306512    3.84986930E-05   1.18966982E+19   2.56531558E+08   4.33482467E+09   4.19631838E+06   0.10700903      
  86               2.23872114E+01   7.21927271E+00   3913.29701673    4.30021020E-05   1.33621541E+19   2.06030690E+08   4.38539958E+09   3.98008579E+06   0.10803605      
  87               2.88403150E+01   8.22307279E+00   3969.82755949    4.79916953E-05   1.50033532E+19   1.67035162E+08   4.42450646E+09   3.75911409E+06   0.10911855      
  88               3.71535229E+01   9.36926524E+00   4026.31073944    5.36090334E-05   1.68548186E+19   1.35838485E+08   4.45563747E+09   3.53313385E+06   0.11019145      
  89               4.78630092E+01   1.06792883E+01   4085.91523977    5.98416243E-05   1.89312285E+19   1.11545055E+08   4.47990352E+09   3.30183389E+06   0.11125074      
  90               6.16595002E+01   1.21779503E+01   4145.57264039    6.68700923E-05   2.12772505E+19   9.15232880E+07   4.49998282E+09   3.06491434E+06   0.11239593      
  91               7.94328235E+01   1.38941525E+01   4208.65746849    7.46774312E-05   2.39119129E+19   7.57036452E+07   4.51599444E+09   2.82204362E+06   0.11375227      
  92               1.02329299E+02   1.58611344E+01   4272.15099335    8.34847882E-05   2.68914049E+19   6.24580067E+07   4.52930348E+09   2.57291864E+06   0.11528914      
  93               1.31825674E+02   1.81174876E+01   4339.50035597    9.32706137E-05   3.02401599E+19   5.19152550E+07   4.53988219E+09   2.31720780E+06   0.11699601      
  94               1.69824365E+02   2.07076215E+01   4407.58741618    1.04310592E-04   3.40294652E+19   4.29927762E+07   4.54883320E+09   2.05460347E+06   0.11876089      
  95               2.18776162E+02   2.36831200E+01   4479.84139850    1.16583532E-04   3.82914768E+19   3.57998316E+07   4.55602623E+09   1.78476973E+06   0.12050741      
  96               2.81838293E+02   2.71033698E+01   4552.95217766    1.30440408E-04   4.31177453E+19   2.96706055E+07   4.56206491E+09   1.50740550E+06   0.12216076      
  97               3.63078055E+02   3.10370061E+01   4630.35757103    1.45862557E-04   4.85502120E+19   2.47706047E+07   4.56706944E+09   1.22221414E+06   0.12404196      
  98               4.67735141E+02   3.55618175E+01   4709.01376287    1.63256196E-04   5.46990557E+19   2.06651718E+07   4.57146863E+09   9.28981637E+05   0.12621511      
  99               6.02559586E+02   4.07655523E+01   4792.52646758    1.82572132E-04   6.16104882E+19   1.73595612E+07   4.57505552E+09   6.27552828E+05   0.12860081      
  100              7.76247117E+02   4.67460839E+01   4877.60717889    2.04297639E-04   6.94167461E+19   1.45417033E+07   4.57811550E+09   3.17874428E+05   0.131037        
  101              1.00000000E+03   5.36115937E+01   4967.72018349    2.28358779E-04   7.81677177E+19   1.34176637E+07   4.57947548E+09   0.00000000E+00   0.13355945      
