# ATMO pressure-temperature profile
# Effective temperature = 1700.0K
# log(g) = 2.5cm/s^2
# M/H = 0.0
# Optical depth grid in band 17 (1.20-1.33microns)
# All parameters in cgs units
#
# Model Level      Optical Depth    Pressure         Temperature      Density          Number Density   Rad Flux         Conv Flux        Radial Extension Adiabatic Gradient
#                                   [Ba]             [K]              [g/cm^3]         [/cm^3]          [ergs/s/cm^2/sr] [ergs/s/cm^2/sr] [cm]             [K/Ba]          
  1                1.00000000E-04   1.00000000E-05   625.59910528     4.52750263E-10   1.15778980E+14   4.73559975E+08   0.00000000E+00   2.21869107E+09   0.29797958      
  2                1.17489755E-04   2.72069733E-05   702.72901778     1.09653209E-09   2.80425939E+14   4.73559978E+08   0.00000000E+00   2.14145935E+09   0.29717361      
  3                1.38038426E-04   4.75066241E-05   727.97020424     1.84829373E-09   4.72679106E+14   4.73559983E+08   0.00000000E+00   2.09636805E+09   0.29670842      
  4                1.62181010E-04   7.05410930E-05   756.70593572     2.64033464E-09   6.75213137E+14   4.73559983E+08   0.00000000E+00   2.06339451E+09   0.29602014      
  5                1.90546072E-04   9.68432593E-05   768.94044215     3.56714438E-09   9.12226185E+14   4.73559985E+08   0.00000000E+00   2.03629249E+09   0.29572284      
  6                2.23872114E-04   1.27024171E-04   790.94429582     4.54866528E-09   1.16323192E+15   4.73559986E+08   0.00000000E+00   2.01259893E+09   0.295943        
  7                2.63026799E-04   1.61749919E-04   799.52440795     5.73001749E-09   1.46533926E+15   4.73559989E+08   0.00000000E+00   1.99108937E+09   0.29579558      
  8                3.09029543E-04   2.01766031E-04   819.22971766     6.97566526E-09   1.78389050E+15   4.73559991E+08   0.00000000E+00   1.97107397E+09   0.29537684      
  9                3.63078055E-04   2.47915385E-04   826.39138182     8.49691078E-09   2.17291901E+15   4.73559994E+08   0.00000000E+00   1.95211816E+09   0.29524649      
  10               4.26579519E-04   3.01162199E-04   845.19086580     1.00922682E-08   2.58090195E+15   4.73559998E+08   0.00000000E+00   1.93393503E+09   0.2948126       
  11               5.01187234E-04   3.62604707E-04   851.69242544     1.20585153E-08   3.08373104E+15   4.73560004E+08   0.00000000E+00   1.91632226E+09   0.2946871       
  12               5.88843655E-04   4.33500158E-04   870.23012918     1.41090620E-08   3.60812010E+15   4.73560010E+08   0.00000000E+00   1.89913437E+09   0.29423017      
  13               6.91830971E-04   5.15276814E-04   876.54457578     1.66498238E-08   4.25787036E+15   4.73560019E+08   0.00000000E+00   1.88226203E+09   0.29410155      
  14               8.12830516E-04   6.09566997E-04   895.21297514     1.92858140E-08   4.93197558E+15   4.73560028E+08   0.00000000E+00   1.86562243E+09   0.29361273      
  15               9.54992586E-04   7.18216115E-04   901.66377674     2.25607461E-08   5.76947588E+15   4.73560040E+08   0.00000000E+00   1.84915103E+09   0.2934732       
  16               1.12201845E-03   8.43325575E-04   920.76976254     2.59410190E-08   6.63391743E+15   4.73560053E+08   0.00000000E+00   1.83279719E+09   0.2929459       
  17               1.31825674E-03   9.87295743E-04   927.56475115     3.01471225E-08   7.70954713E+15   4.73560067E+08   0.00000000E+00   1.81651712E+09   0.29279007      
  18               1.54881662E-03   1.15299136E-03   947.20823331     3.44765121E-08   8.81670739E+15   4.73560084E+08   0.00000000E+00   1.80026439E+09   0.29222034      
  19               1.81970086E-03   1.34366502E-03   954.47429109     3.98721387E-08   1.01965351E+16   4.73560103E+08   0.00000000E+00   1.78400163E+09   0.29204366      
  20               2.13796209E-03   1.56302941E-03   974.89380385     4.54101051E-08   1.16127661E+16   4.73560123E+08   0.00000000E+00   1.76769909E+09   0.29142494      
  21               2.51188643E-03   1.81525630E-03   982.88982409     5.23089249E-08   1.33770070E+16   4.73560141E+08   0.00000000E+00   1.75133367E+09   0.29121928      
  22               2.95120923E-03   2.10508946E-03   1004.28457003    5.93685406E-08   1.51823712E+16   4.73560156E+08   0.00000000E+00   1.73488685E+09   0.29054425      
  23               3.46736850E-03   2.43781864E-03   1013.18113406    6.81485956E-08   1.74277025E+16   4.73560163E+08   0.00000000E+00   1.71834499E+09   0.29030169      
  24               4.07380278E-03   2.81941351E-03   1035.74793793    7.70987336E-08   1.97165325E+16   4.73560160E+08   0.00000000E+00   1.70169743E+09   0.2895637       
  25               4.78630092E-03   3.25644517E-03   1045.79718162    8.81939607E-08   2.25539256E+16   4.73560144E+08   0.00000000E+00   1.68493759E+09   0.28927497      
  26               5.62341325E-03   3.75626004E-03   1069.80807065    9.94471314E-08   2.54317134E+16   4.73560109E+08   0.00000000E+00   1.66806066E+09   0.28846306      
  27               6.60693448E-03   4.32682656E-03   1081.26621955    1.13338985E-07   2.89842916E+16   4.73560040E+08   0.00000000E+00   1.65106568E+09   0.28811825      
  28               7.76247117E-03   4.97696203E-03   1106.97367185    1.27341345E-07   3.25651344E+16   4.73559928E+08   0.00000000E+00   1.63395255E+09   0.28722258      
  29               9.12010839E-03   5.71597620E-03   1120.23223274    1.44518923E-07   3.69579766E+16   4.73559749E+08   0.00000000E+00   1.61672571E+09   0.28680494      
  30               1.07151931E-02   6.55472050E-03   1147.99888551    1.61716754E-07   4.13560023E+16   4.73559518E+08   0.00000000E+00   1.59937609E+09   0.28581074      
  31               1.25892541E-02   7.50570216E-03   1163.41029368    1.82726135E-07   4.67287608E+16   4.73559189E+08   0.00000000E+00   1.58188189E+09   0.28530658      
  32               1.47910839E-02   8.58279645E-03   1193.56797939    2.03668554E-07   5.20843794E+16   4.73558748E+08   0.00000000E+00   1.56422592E+09   0.28419692      
  33               1.73780083E-02   9.80041419E-03   1211.57815490    2.29105324E-07   5.85893710E+16   4.73558140E+08   0.00000000E+00   1.54640084E+09   0.28370737      
  34               2.04173794E-02   1.11736628E-02   1244.71624581    2.54254686E-07   6.50206107E+16   4.73557362E+08   0.00000000E+00   1.52840810E+09   0.28129193      
  35               2.39883292E-02   1.27173223E-02   1266.21544519    2.84466704E-07   7.27468030E+16   4.73556354E+08   0.00000000E+00   1.51025706E+09   0.28117598      
  36               2.81838293E-02   1.44413337E-02   1303.42157838    3.13820965E-07   8.02505902E+16   4.73555108E+08   0.00000000E+00   1.49201026E+09   0.28136412      
  37               3.31131121E-02   1.63532473E-02   1330.03885165    3.48259983E-07   8.90564781E+16   4.73553338E+08   0.00000000E+00   1.47372184E+09   0.28101566      
  38               3.89045145E-02   1.84388436E-02   1375.50530455    3.79743398E-07   9.70950859E+16   4.73371729E+08   1.68251901E+05   1.45558577E+09   0.27874629      
  39               4.57088190E-02   2.06033369E-02   1418.51859908    4.11615235E-07   1.05203059E+17   4.71679274E+08   1.85264000E+06   1.43827219E+09   0.27617313      
  40               5.37031796E-02   2.28390785E-02   1459.29789377    4.43629497E-07   1.13360163E+17   4.68809717E+08   4.71787055E+06   1.42172672E+09   0.27399636      
  41               6.30957344E-02   2.50831595E-02   1497.15494121    4.75077225E-07   1.21350433E+17   4.64946193E+08   8.60592038E+06   1.40626851E+09   0.27177416      
  42               7.41310241E-02   2.72018084E-02   1530.38860349    5.04547658E-07   1.28742487E+17   4.60412011E+08   1.31891874E+07   1.39258292E+09   0.26957214      
  43               8.70963590E-02   2.91788336E-02   1559.55485925    5.31349830E-07   1.35516791E+17   4.55738401E+08   1.77859719E+07   1.38050819E+09   0.2675864       
  44               1.02329299E-01   3.10430634E-02   1585.54838491    5.56516617E-07   1.41811324E+17   4.51471025E+08   2.19589560E+07   1.36966579E+09   0.26584432      
  45               1.20226443E-01   3.28230192E-02   1609.21730198    5.79754031E-07   1.47737135E+17   4.47540148E+08   2.58775827E+07   1.35975636E+09   0.26435359      
  46               1.41253754E-01   3.48080978E-02   1634.36723788    6.05332048E-07   1.54261121E+17   4.43145858E+08   3.02718707E+07   1.34915994E+09   0.26278366      
  47               1.65958691E-01   3.70142404E-02   1660.96403762    6.33358837E-07   1.61411492E+17   4.38117454E+08   3.53033681E+07   1.33789283E+09   0.26094714      
  48               1.94984460E-01   3.94561361E-02   1688.83816524    6.63956841E-07   1.69220260E+17   4.32292919E+08   4.11296847E+07   1.32598499E+09   0.25862978      
  49               2.29086765E-01   4.21446076E-02   1717.81743138    6.97176852E-07   1.77701400E+17   4.25545980E+08   4.78755401E+07   1.31348916E+09   0.25598422      
  50               2.69153480E-01   4.50781787E-02   1747.57995770    7.32930948E-07   1.86833670E+17   4.17778578E+08   5.56388760E+07   1.30051155E+09   0.2530004       
  51               3.16227766E-01   4.82039287E-02   1777.37577375    7.70520251E-07   1.96439590E+17   4.09190526E+08   6.42149584E+07   1.28735833E+09   0.24971071      
  52               3.71535229E-01   5.15239174E-02   1807.06814429    8.09935316E-07   2.06519082E+17   4.00328107E+08   7.30768381E+07   1.27406845E+09   0.24616056      
  53               4.36515832E-01   5.51947621E-02   1837.81905374    8.52963945E-07   2.17530900E+17   3.90937822E+08   8.24846011E+07   1.26010227E+09   0.24230398      
  54               5.12861384E-01   5.92487744E-02   1869.48939505    8.99897447E-07   2.29552594E+17   3.80645039E+08   9.28060634E+07   1.24546954E+09   0.23802063      
  55               6.02559586E-01   6.37215757E-02   1901.96385458    9.51043197E-07   2.42666645E+17   3.69258213E+08   1.04232507E+08   1.23018030E+09   0.23324525      
  56               7.07945784E-01   6.86526443E-02   1935.07073902    1.00677121E-06   2.56972271E+17   3.56657589E+08   1.16883565E+08   1.21424432E+09   0.22807455      
  57               8.31763771E-01   7.40857929E-02   1968.71075336    1.06745391E-06   2.72570505E+17   3.42776121E+08   1.30826042E+08   1.19767077E+09   0.22260053      
  58               9.77237221E-01   8.00696803E-02   2002.72980173    1.13353699E-06   2.89582007E+17   3.27595370E+08   1.46078975E+08   1.18046811E+09   0.21683249      
  59               1.14815362E+00   8.66584721E-02   2037.02731284    1.20548733E-06   3.08134279E+17   3.11157782E+08   1.62593067E+08   1.16264385E+09   0.2106832       
  60               1.34896288E+00   9.39138062E-02   2071.42134166    1.28389752E-06   3.28387665E+17   2.93637221E+08   1.80182149E+08   1.14420149E+09   0.2043738       
  61               1.58489319E+00   1.01905397E-01   2105.88926006    1.36933916E-06   3.50499573E+17   2.75302596E+08   1.98572603E+08   1.12514167E+09   0.19819288      
  62               1.86208714E+00   1.10710238E-01   2140.34575996    1.46248071E-06   3.74653407E+17   2.56408568E+08   2.17511277E+08   1.10546609E+09   0.19216121      
  63               2.18776162E+00   1.20413167E-01   2174.77715347    1.56399995E-06   4.01037566E+17   2.37169440E+08   2.36785857E+08   1.08517775E+09   0.18615133      
  64               2.57039578E+00   1.31107855E-01   2209.05150601    1.67473353E-06   4.29881454E+17   2.17820396E+08   2.56162682E+08   1.06428072E+09   0.18030619      
  65               3.01995172E+00   1.42897292E-01   2243.20946752    1.79545355E-06   4.61402570E+17   1.98580979E+08   2.75421853E+08   1.04278059E+09   0.17474052      
  66               3.54813389E+00   1.55894194E-01   2277.16298649    1.92710521E-06   4.95862955E+17   1.79586476E+08   2.94424930E+08   1.02068485E+09   0.16919946      
  67               4.16869383E+00   1.70222460E-01   2310.85886825    2.07068972E-06   5.33542818E+17   1.60957471E+08   3.13048011E+08   9.98002296E+08   0.16381322      
  68               4.89778819E+00   1.85971176E-01   2344.16569480    2.22706071E-06   5.74623219E+17   1.42951640E+08   3.31034884E+08   9.74810072E+08   0.15878704      
  69               5.75439937E+00   2.03284733E-01   2377.14288101    2.39684957E-06   6.19405870E+17   1.26117424E+08   3.47840568E+08   9.51112230E+08   0.15429837      
  70               6.76082975E+00   2.22369971E-01   2409.93699021    2.58186161E-06   6.68338210E+17   1.10663925E+08   3.63257476E+08   9.26850611E+08   0.15014457      
  71               7.94328235E+00   2.43397816E-01   2442.50421364    2.78337909E-06   7.21783907E+17   9.65361455E+07   3.77338090E+08   9.02044923E+08   0.14622678      
  72               9.33254301E+00   2.66552404E-01   2474.85306242    3.00269644E-06   7.80115711E+17   8.37332100E+07   3.90096902E+08   8.76716720E+08   0.14261325      
  73               1.09647820E+01   2.92008322E-01   2506.94905640    3.24098438E-06   8.43675736E+17   7.23058190E+07   4.01487656E+08   8.50911724E+08   0.13933208      
  74               1.28824955E+01   3.19984083E-01   2538.83926292    3.49970676E-06   9.12891177E+17   6.23925418E+07   4.11350608E+08   8.24643130E+08   0.13631895      
  75               1.51356125E+01   3.50717158E-01   2570.51157202    3.78052842E-06   9.88241959E+17   5.39180012E+07   4.19761386E+08   7.97923953E+08   0.13352517      
  76               1.77827941E+01   3.84461706E-01   2601.99651770    4.08511752E-06   1.07021792E+18   4.67130638E+07   4.26894775E+08   7.70769930E+08   0.13092181      
  77               2.08929613E+01   4.21489305E-01   2633.26950923    4.41532769E-06   1.15935673E+18   4.06041468E+07   4.32930850E+08   7.43199042E+08   0.12856506      
  78               2.45470892E+01   4.62089407E-01   2664.39173039    4.77290867E-06   1.25618550E+18   3.54136813E+07   4.38051705E+08   7.15230941E+08   0.12646939      
  79               2.88403150E+01   5.06568595E-01   2695.34833961    5.15982855E-06   1.36128545E+18   3.09579879E+07   4.42439343E+08   6.86887250E+08   0.12456044      
  80               3.38844156E+01   5.55251918E-01   2726.16863092    5.57801940E-06   1.47524174E+18   2.71016352E+07   4.46235465E+08   6.58190600E+08   0.12278537      
  81               3.98107171E+01   6.08484761E-01   2756.81560306    6.02967691E-06   1.59870314E+18   2.37461302E+07   4.49540239E+08   6.29163671E+08   0.12113467      
  82               4.67735141E+01   6.66634637E-01   2787.32013287    6.51690986E-06   1.73231499E+18   2.08251829E+07   4.52420830E+08   5.99828459E+08   0.11961627      
  83               5.49540874E+01   7.30092937E-01   2817.65484590    7.04211479E-06   1.87679222E+18   1.82835853E+07   4.54932655E+08   5.70205792E+08   0.11825642      
  84               6.45654229E+01   7.99276460E-01   2847.87147612    7.60753312E-06   2.03283662E+18   1.60748455E+07   4.57113111E+08   5.40315018E+08   0.11705766      
  85               7.58577575E+01   8.74630165E-01   2877.95034574    8.21578024E-06   2.20123796E+18   1.41534283E+07   4.59015257E+08   5.10173436E+08   0.11599025      
  86               8.91250938E+01   9.56631781E-01   2907.93660306    8.86937447E-06   2.38278968E+18   1.24831082E+07   4.60675003E+08   4.79795438E+08   0.11504002      
  87               1.04712855E+02   1.04579234E+00   2937.80976531    9.57125639E-06   2.57838417E+18   1.10258205E+07   4.62130009E+08   4.49193477E+08   0.11419096      
  88               1.23026877E+02   1.14265997E+00   2967.61335427    1.03242454E-05   2.78891665E+18   9.75285933E+06   4.63408003E+08   4.18377756E+08   0.11342972      
  89               1.44543977E+02   1.24782421E+00   2997.32530122    1.11316798E-05   3.01540304E+18   8.63735911E+06   4.64529458E+08   3.87356047E+08   0.11274601      
  90               1.69824365E+02   1.36191761E+00   3026.98956437    1.19967411E-05   3.25886036E+18   7.65684049E+06   4.65517948E+08   3.56134420E+08   0.11213678      
  91               1.99526231E+02   1.48559448E+00   3056.58016541    1.29230031E-05   3.52038632E+18   6.79001472E+06   4.66400529E+08   3.24723409E+08   0.11159307      
  92               2.34422882E+02   1.61955982E+00   3086.13685171    1.39138796E-05   3.80108562E+18   6.02415503E+06   4.67188040E+08   2.93130232E+08   0.11111401      
  93               2.75422870E+02   1.76458248E+00   3115.64093602    1.49735118E-05   4.10223372E+18   5.34763942E+06   4.67891160E+08   2.61357362E+08   0.11069067      
  94               3.23593657E+02   1.92150351E+00   3145.13712402    1.61059624E-05   4.42514430E+18   4.75137853E+06   4.68517214E+08   2.29402834E+08   0.11032904      
  95               3.80189396E+02   2.09123874E+00   3174.61647320    1.73160713E-05   4.77131611E+18   4.22483473E+06   4.69070581E+08   1.97261771E+08   0.11003674      
  96               4.46683592E+02   2.27478376E+00   3204.13317660    1.86085086E-05   5.14227621E+18   3.75962786E+06   4.69557179E+08   1.64927110E+08   0.10982109      
  97               5.24807460E+02   2.47321925E+00   3233.68520433    1.99888100E-05   5.53975705E+18   3.34686006E+06   4.69990605E+08   1.32390211E+08   0.10966184      
  98               6.16595002E+02   2.68771982E+00   3263.31921523    2.14624447E-05   5.96554706E+18   2.98011012E+06   4.70377245E+08   9.96409594E+07   0.10954742      
  99               7.24435960E+02   2.91956274E+00   3293.02897200    2.30358753E-05   6.42167172E+18   2.65325819E+06   4.70722656E+08   6.66680112E+07   0.10946071      
  100              8.51138038E+02   3.17013884E+00   3322.85449187    2.47155472E-05   6.91023472E+18   2.36184207E+06   4.71031013E+08   3.34588418E+07   0.10939773      
  101              1.00000000E+03   3.44096274E+00   3352.78880478    2.65090066E-05   7.43360726E+18   2.22392445E+06   4.71182863E+08   0.00000000E+00   0.10935158      
