# ATMO pressure-temperature profile
# Effective temperature = 2900.0K
# log(g) = 3.0cm/s^2
# M/H = 0.0
# Optical depth grid in band 17 (1.20-1.33microns)
# All parameters in cgs units
#
# Model Level      Optical Depth    Pressure         Temperature      Density          Number Density   Rad Flux         Conv Flux        Radial Extension Adiabatic Gradient
#                                   [Ba]             [K]              [g/cm^3]         [/cm^3]          [ergs/s/cm^2/sr] [ergs/s/cm^2/sr] [cm]             [K/Ba]          
  1                1.00000000E-05   1.00000000E-05   1624.42675040    1.73252509E-10   4.45887920E+13   4.01025894E+09   0.00000000E+00   1.83540226E+09   0.27090774      
  2                1.20226443E-05   1.08608740E-05   1556.27036822    1.97468721E-10   5.05481852E+13   4.01025896E+09   0.00000000E+00   1.83074590E+09   0.27158813      
  3                1.44543977E-05   1.17798976E-05   1769.41247663    1.82604987E-10   4.82212285E+13   4.01025896E+09   0.00000000E+00   1.82587415E+09   0.2718487       
  4                1.73780083E-05   1.28053780E-05   1646.19596935    2.18700190E-10   5.63425770E+13   4.01025892E+09   0.00000000E+00   1.82072611E+09   0.27039828      
  5                2.08929613E-05   1.39856936E-05   1826.07666117    2.06623703E-10   5.54741740E+13   4.01025888E+09   0.00000000E+00   1.81513416E+09   0.27363777      
  6                2.51188643E-05   1.53476488E-05   1700.57333274    2.52223109E-10   6.53690733E+13   4.01025880E+09   0.00000000E+00   1.80914118E+09   0.27018439      
  7                3.01995172E-05   1.69348433E-05   1868.57667424    2.41156609E-10   6.56441606E+13   4.01025872E+09   0.00000000E+00   1.80265624E+09   0.27533614      
  8                3.63078055E-05   1.87835889E-05   1744.59823067    2.99123036E-10   7.79846247E+13   4.01025860E+09   0.00000000E+00   1.79573580E+09   0.27027214      
  9                4.36515832E-05   2.09485563E-05   1905.76767929    2.88943426E-10   7.96177649E+13   4.01025845E+09   0.00000000E+00   1.78831215E+09   0.27691648      
  10               5.24807460E-05   2.34804730E-05   1784.22328740    3.63444719E-10   9.53198779E+13   4.01025826E+09   0.00000000E+00   1.78045239E+09   0.27051038      
  11               6.30957344E-05   2.64527695E-05   1940.50024715    3.54417791E-10   9.87377634E+13   4.01025803E+09   0.00000000E+00   1.77210166E+09   0.27836508      
  12               7.58577575E-05   2.99356176E-05   1821.82642310    4.51071317E-10   1.19016470E+14   4.01025774E+09   0.00000000E+00   1.76333557E+09   0.27083992      
  13               9.12010839E-05   3.40298547E-05   1974.06033047    4.43755102E-10   1.24860627E+14   4.01025739E+09   0.00000000E+00   1.75410703E+09   0.2796758       
  14               1.09647820E-04   3.88316837E-05   1858.61832945    5.70031432E-10   1.51328889E+14   4.01025695E+09   0.00000000E+00   1.74449699E+09   0.27123411      
  15               1.31825674E-04   4.44806380E-05   2007.17052597    5.65337160E-10   1.60513874E+14   4.01025643E+09   0.00000000E+00   1.73446232E+09   0.2808554       
  16               1.58489319E-04   5.11076758E-05   1895.36073341    7.31081312E-10   1.95308027E+14   4.01025580E+09   0.00000000E+00   1.72408610E+09   0.27168557      
  17               1.90546072E-04   5.89061116E-05   2040.35382144    7.30391393E-10   2.09112844E+14   4.01025505E+09   0.00000000E+00   1.71332597E+09   0.28192931      
  18               2.29086765E-04   6.80532343E-05   1932.63038747    9.48472327E-10   2.55050281E+14   4.01025417E+09   0.00000000E+00   1.70226474E+09   0.2722027       
  19               2.75422870E-04   7.88163698E-05   2074.06812965    9.53803510E-10   2.75244880E+14   4.01025311E+09   0.00000000E+00   1.69085800E+09   0.28294113      
  20               3.31131121E-04   9.14343751E-05   1970.93446340    1.24088406E-09   3.36018475E+14   4.01025189E+09   0.00000000E+00   1.67918710E+09   0.27280893      
  21               3.98107171E-04   1.06277320E-04   2108.78054346    1.25508935E-09   3.65035455E+14   4.01025043E+09   0.00000000E+00   1.66720177E+09   0.059713391     
  22               4.78630092E-04   1.23670726E-04   2010.78168405    1.63261615E-09   4.45479607E+14   4.01024877E+09   0.00000000E+00   1.65497900E+09   0.069120345     
  23               5.75439937E-04   1.44125298E-04   2145.03927725    1.65965384E-09   4.86665780E+14   4.01024678E+09   0.00000000E+00   1.64246116E+09   0.059788255     
  24               6.91830971E-04   1.68079444E-04   2052.82181018    2.15477375E-09   5.93047103E+14   4.01024455E+09   0.00000000E+00   1.62972449E+09   0.06794694      
  25               8.31763771E-04   1.96233555E-04   2183.54017872    2.19974673E-09   6.50935449E+14   4.01024186E+09   0.00000000E+00   1.61670171E+09   0.060029426     
  26               1.00000000E-03   2.29172572E-04   2097.93056264    2.84575560E-09   7.91220205E+14   4.01023888E+09   0.00000000E+00   1.60347051E+09   0.066839906     
  27               1.20226443E-03   2.67855181E-04   2225.29582508    2.91444879E-09   8.71842705E+14   4.01023525E+09   0.00000000E+00   1.58994769E+09   0.060317629     
  28               1.44543977E-03   3.13048194E-04   2147.57412145    3.74951735E-09   1.05581756E+15   4.01023124E+09   0.00000000E+00   1.57621579E+09   0.065628984     
  29               1.73780083E-03   3.66063899E-04   2272.29735321    3.84526528E-09   1.16685684E+15   4.01022633E+09   0.00000000E+00   1.56216107E+09   0.060436322     
  30               2.08929613E-03   4.27852219E-04   2205.91734634    4.89939295E-09   1.40485141E+15   4.01022091E+09   0.00000000E+00   1.54787385E+09   0.064463326     
  31               2.51188643E-03   4.99627718E-04   2345.96118021    4.90370525E-09   1.54259366E+15   4.00910303E+09   0.00000000E+00   1.53309346E+09   0.060172542     
  32               3.01995172E-03   5.81827777E-04   2361.61047266    5.67133050E-09   1.78448140E+15   4.00109298E+09   9.05231618E+06   1.51750628E+09   0.060636182     
  33               3.63078055E-03   6.78616061E-04   2390.35945752    6.46327606E-09   2.05630134E+15   3.99263786E+09   1.75111728E+07   1.50151787E+09   0.060872644     
  34               4.36515832E-03   7.92467309E-04   2407.05944842    7.49240304E-09   2.38462657E+15   3.98326350E+09   2.68881383E+07   1.48515720E+09   0.06131845      
  35               5.24807460E-03   9.26358649E-04   2437.16297247    8.55143344E-09   2.75309013E+15   3.97261134E+09   3.75427006E+07   1.46842793E+09   0.061630734     
  36               6.30957344E-03   1.08362188E-03   2454.77229810    9.92691011E-09   3.19736628E+15   3.96050067E+09   4.96553935E+07   1.45135922E+09   0.06213264      
  37               7.58577575E-03   1.26803091E-03   2486.10440575    1.13354636E-08   3.69433537E+15   3.94660714E+09   6.35514529E+07   1.43397270E+09   0.062571644     
  38               9.12010839E-03   1.48355299E-03   2504.48507406    1.31581048E-08   4.29052517E+15   3.93078997E+09   7.93706471E+07   1.41632551E+09   0.063103196     
  39               1.09647820E-02   1.73552532E-03   2536.88069916    1.50150584E-08   4.95514936E+15   3.91266370E+09   9.74985588E+07   1.39839668E+09   0.063564397     
  40               1.31825674E-02   2.02981342E-03   2555.97679871    1.74207295E-08   5.75208177E+15   3.89209355E+09   1.18070086E+08   1.38020067E+09   0.064064778     
  41               1.58489319E-02   2.37353798E-03   2589.40385262    1.98654142E-08   6.63929912E+15   3.86865495E+09   1.41511105E+08   1.36172122E+09   0.064586635     
  42               1.90546072E-02   2.77439751E-03   2609.22849152    2.30313216E-08   7.70162581E+15   3.84225452E+09   1.67913590E+08   1.34298059E+09   0.065145229     
  43               2.29086765E-02   3.24168428E-03   2643.69470639    2.62373590E-08   8.88147819E+15   3.81241878E+09   1.97752915E+08   1.32396869E+09   0.065812138     
  44               2.75422870E-02   3.78525554E-03   2664.30360260    3.03806799E-08   1.02905203E+16   3.77909046E+09   2.31083364E+08   1.30471572E+09   0.066410402     
  45               3.31131121E-02   4.41688576E-03   2699.76557210    3.45591997E-08   1.18499345E+16   3.74174052E+09   2.68435085E+08   1.28521976E+09   0.067083029     
  46               3.98107171E-02   5.14876346E-03   2721.05528903    3.99435790E-08   1.37053905E+16   3.70038916E+09   3.09788232E+08   1.26552125E+09   0.067637632     
  47               4.78630092E-02   5.99525673E-03   2757.34158925    4.53450394E-08   1.57486399E+16   3.65447830E+09   3.55703420E+08   1.24562839E+09   0.068390546     
  48               5.75439937E-02   6.97090403E-03   2779.21604502    5.22722762E-08   1.81673940E+16   3.60410288E+09   4.06082139E+08   1.22558863E+09   0.069015692     
  49               6.91830971E-02   8.09264789E-03   2816.21022625    5.91734082E-08   2.08138017E+16   3.54863177E+09   4.61559942E+08   1.20541630E+09   0.069933823     
  50               8.31763771E-02   9.37730721E-03   2838.62364959    6.79712233E-08   2.39274362E+16   3.48815851E+09   5.22034571E+08   1.18515989E+09   0.070573906     
  51               1.00000000E-01   1.08443067E-02   2876.14801107    7.66727958E-08   2.73096668E+16   3.42206668E+09   5.88119095E+08   1.16483600E+09   0.072945751     
  52               1.20226443E-01   1.25132074E-02   2900.15911724    8.75891252E-08   3.12516288E+16   3.34905432E+09   6.61129749E+08   1.14447092E+09   0.07253592      
  53               1.44543977E-01   1.44055756E-02   2937.14358083    9.84957193E-08   3.55247703E+16   3.26878372E+09   7.41408887E+08   1.12409469E+09   0.072500351     
  54               1.73780083E-01   1.65428492E-02   2960.55484317    1.12086784E-07   4.04727804E+16   3.18181570E+09   8.28390635E+08   1.10375357E+09   0.072838485     
  55               2.08929613E-01   1.89502719E-02   2997.47135175    1.25519110E-07   4.57916448E+16   3.08724317E+09   9.22992003E+08   1.08345486E+09   0.07389367      
  56               2.51188643E-01   2.16533167E-02   3021.09037219    1.42132785E-07   5.19142460E+16   2.98508197E+09   1.02517181E+09   1.06321759E+09   0.0748211       
  57               3.01995172E-01   2.46809452E-02   3058.35637991    1.58428058E-07   5.84520216E+16   2.87421181E+09   1.13606906E+09   1.04303918E+09   0.076499125     
  58               3.63078055E-01   2.80624284E-02   3082.63626525    1.78440999E-07   6.59369427E+16   2.75450942E+09   1.25578810E+09   1.02292766E+09   0.077707261     
  59               4.36515832E-01   3.18330386E-02   3120.45177803    1.97983201E-07   7.38901351E+16   2.62504701E+09   1.38526182E+09   1.00286456E+09   0.079590798     
  60               5.24807460E-01   3.60292426E-02   3145.56917082    2.21862570E-07   8.29624813E+16   2.48600336E+09   1.52430446E+09   9.82842794E+08   0.080643676     
  61               6.30957344E-01   4.06954493E-02   3183.86820730    2.45187535E-07   9.25798783E+16   2.33706071E+09   1.67322141E+09   9.62834045E+08   0.081844824     
  62               7.58577575E-01   4.58781466E-02   3209.38001430    2.73673641E-07   1.03540572E+17   2.18003440E+09   1.83023204E+09   9.42826569E+08   0.082143145     
  63               9.12010839E-01   5.16341367E-02   3247.69915906    3.01607297E-07   1.15156105E+17   2.01660675E+09   1.99366554E+09   9.22789879E+08   0.082502262     
  64               1.09647820E+00   5.80233623E-02   3273.10211680    3.35735079E-07   1.28401228E+17   1.85133871E+09   2.15895837E+09   9.02711408E+08   0.082651859     
  65               1.31825674E+00   6.51182018E-02   3311.48483073    3.69254443E-07   1.42431310E+17   1.68774631E+09   2.32262248E+09   8.82559286E+08   0.083470885     
  66               1.58489319E+00   7.29950054E-02   3337.29829186    4.10060026E-07   1.58425089E+17   1.53058914E+09   2.47984742E+09   8.62316740E+08   0.084286995     
  67               1.90546072E+00   8.17451257E-02   3376.42121797    4.50170309E-07   1.75360221E+17   1.38329153E+09   2.62723636E+09   8.41949123E+08   0.086220542     
  68               2.29086765E+00   9.14653131E-02   3403.67377106    4.98680041E-07   1.94641004E+17   1.24726697E+09   2.76330738E+09   8.21433824E+08   0.087660478     
  69               2.75422870E+00   1.02271012E-01   3444.19443893    5.46555754E-07   2.15075396E+17   1.12434244E+09   2.88627686E+09   8.00734122E+08   0.090087414     
  70               3.31131121E+00   1.14285675E-01   3473.45909251    6.04114134E-07   2.38317233E+17   1.01192401E+09   2.99870775E+09   7.79824843E+08   0.091603293     
  71               3.98107171E+00   1.27655595E-01   3515.63179429    6.61340562E-07   2.63003973E+17   9.10874127E+08   3.09975831E+09   7.58670607E+08   0.093742938     
  72               4.78630092E+00   1.42538497E-01   3546.89177865    7.29862113E-07   2.91078465E+17   8.16011888E+08   3.19461048E+09   7.37248593E+08   0.09481912      
  73               5.75439937E+00   1.59118451E-01   3590.56822264    7.98621280E-07   3.20983862E+17   7.29554790E+08   3.28099527E+09   7.15529970E+08   0.096115408     
  74               6.91830971E+00   1.77594684E-01   3623.34920354    8.80764223E-07   3.55014106E+17   6.45968272E+08   3.36458704E+09   6.93499731E+08   0.096550694     
  75               8.31763771E+00   1.98194877E-01   3668.17721702    9.63898602E-07   3.91352359E+17   5.71791053E+08   3.43884695E+09   6.71140214E+08   0.097647239     
  76               1.00000000E+01   2.21167328E-01   3702.45869255    1.06267125E-06   4.32669805E+17   5.00445055E+08   3.51030904E+09   6.48441659E+08   0.098611403     
  77               1.20226443E+01   2.46790958E-01   3748.97809062    1.16301544E-06   4.76806516E+17   4.41138219E+08   3.56981186E+09   6.25391000E+08   0.10096885      
  78               1.44543977E+01   2.75374436E-01   3785.91515090    1.28107845E-06   5.26839808E+17   3.83651892E+08   3.62742231E+09   6.01973422E+08   0.1031201       
  79               1.73780083E+01   3.07256279E-01   3835.23543033    1.40138573E-06   5.80275958E+17   3.37703606E+08   3.67345941E+09   5.78176928E+08   0.10641761      
  80               2.08929613E+01   3.42812490E-01   3875.76630106    1.54171828E-06   6.40655993E+17   2.91759712E+08   3.71944331E+09   5.53986453E+08   0.10872205      
  81               2.51188643E+01   3.82438005E-01   3928.14344515    1.68561565E-06   7.05179283E+17   2.56017167E+08   3.75523500E+09   5.29403698E+08   0.11185989      
  82               3.01995172E+01   4.26569352E-01   3972.23283927    1.85215454E-06   7.77823019E+17   2.20358308E+08   3.79095647E+09   5.04426596E+08   0.11403303      
  83               3.63078055E+01   4.75643036E-01   4027.57424535    2.02373616E-06   8.55388539E+17   1.93460496E+08   3.81786792E+09   4.79077034E+08   0.11698954      
  84               4.36515832E+01   5.30139496E-01   4075.03268702    2.22060165E-06   9.42290698E+17   1.66403156E+08   3.84501448E+09   4.53368901E+08   0.11907161      
  85               5.24807460E+01   5.90513750E-01   4133.13878425    2.42393807E-06   1.03484634E+18   1.46828974E+08   3.86476962E+09   4.27343837E+08   0.12245347      
  86               6.30957344E+01   6.57265026E-01   4184.17490960    2.65444087E-06   1.13777538E+18   1.27167252E+08   3.88463353E+09   4.01027307E+08   0.1256662       
  87               7.58577575E+01   7.30836213E-01   4245.81147796    2.89183838E-06   1.24676669E+18   1.13270543E+08   3.89873413E+09   3.74470812E+08   0.13046041      
  88               9.12010839E+01   8.11702157E-01   4301.40850777    3.15721928E-06   1.36682165E+18   9.83838855E+07   3.91370934E+09   3.47707133E+08   0.13450368      
  89               1.09647820E+02   9.00254310E-01   4366.97416672    3.42998821E-06   1.49317402E+18   8.73373600E+07   3.92482934E+09   3.20795653E+08   0.13940321      
  90               1.31825674E+02   9.96915292E-01   4426.83744491    3.73157517E-06   1.63113731E+18   7.55785171E+07   3.93671158E+09   2.93775960E+08   0.14337707      
  91               1.58489319E+02   1.10203096E+00   4495.83861326    4.04096467E-06   1.77545195E+18   6.69752303E+07   3.94554133E+09   2.66704309E+08   0.14866332      
  92               1.90546072E+02   1.21597369E+00   4559.88464678    4.37881739E-06   1.93150644E+18   5.82753295E+07   3.95444279E+09   2.39615582E+08   0.15366076      
  93               2.29086765E+02   1.33904383E+00   4632.80992555    4.72374419E-06   2.09351535E+18   5.19161185E+07   3.96098022E+09   2.12553190E+08   0.16029399      
  94               2.75422870E+02   1.47154263E+00   4701.82625926    5.09555139E-06   2.26689868E+18   4.55528771E+07   3.96747065E+09   1.85544850E+08   0.16664063      
  95               3.31131121E+02   1.61371379E+00   4779.45965581    5.47327366E-06   2.44553313E+18   4.07620381E+07   3.97243123E+09   1.58621616E+08   0.17441703      
  96               3.98107171E+02   1.76578335E+00   4854.04855082    5.87584196E-06   2.63486968E+18   3.60120495E+07   3.97728348E+09   1.31804627E+08   0.18178355      
  97               4.78630092E+02   1.92793710E+00   4936.88644854    6.28304032E-06   2.82856108E+18   3.22992217E+07   3.98104636E+09   1.05115059E+08   0.19011536      
  98               5.75439937E+02   2.10033248E+00   5017.14792575    6.71320105E-06   3.03219398E+18   2.86416830E+07   3.98481518E+09   7.85688171E+07   0.1978021       
  99               6.91830971E+02   2.28308981E+00   5105.09743843    7.14687435E-06   3.23925247E+18   2.58347511E+07   3.98791973E+09   5.21821131E+07   0.20733036      
  100              8.31763771E+02   2.47617723E+00   5191.64459636    7.59949760E-06   3.45463851E+18   2.31780159E+07   3.99065577E+09   2.59803014E+07   0.21713976      
  101              1.00000000E+03   2.67939209E+00   5285.94168827    8.05199287E-06   3.67146796E+18   2.25604318E+07   3.99112621E+09   0.00000000E+00   0.22786968      
