# ATMO pressure-temperature profile
# Effective temperature = 3000.0K
# log(g) = 3.5cm/s^2
# M/H = 0.0
# Optical depth grid in band 17 (1.20-1.33microns)
# All parameters in cgs units
#
# Model Level      Optical Depth    Pressure         Temperature      Density          Number Density   Rad Flux         Conv Flux        Radial Extension Adiabatic Gradient
#                                   [Ba]             [K]              [g/cm^3]         [/cm^3]          [ergs/s/cm^2/sr] [ergs/s/cm^2/sr] [cm]             [K/Ba]          
  1                3.00000000E-06   1.00000000E-05   1712.80370912    1.62105485E-10   4.22881070E+13   4.59221657E+09   0.00000000E+00   5.95726323E+08   0.27079935      
  2                3.65048058E-06   1.07258637E-05   1695.63597706    1.76360121E-10   4.58168779E+13   4.59221655E+09   0.00000000E+00   5.94368650E+08   0.27150991      
  3                4.44200282E-06   1.15491967E-05   1805.55582976    1.73187641E-10   4.63304691E+13   4.59221652E+09   0.00000000E+00   5.92874264E+08   0.27272883      
  4                5.40514834E-06   1.25053325E-05   1760.88042374    1.95466856E-10   5.14388460E+13   4.59221650E+09   0.00000000E+00   5.91229615E+08   0.27329747      
  5                6.57712968E-06   1.36293130E-05   1854.23310974    1.95637165E-10   5.32396844E+13   4.59221648E+09   0.00000000E+00   5.89406771E+08   0.27464959      
  6                8.00322805E-06   1.49553553E-05   1806.43898652    2.25377022E-10   5.99651988E+13   4.59221644E+09   0.00000000E+00   5.87407440E+08   0.27500954      
  7                9.73854285E-06   1.65271349E-05   1892.68103982    2.29196990E-10   6.32478810E+13   4.59221641E+09   0.00000000E+00   5.85214389E+08   0.2763727       
  8                1.18501205E-05   1.83922146E-05   1844.49695672    2.68849667E-10   7.22240641E+13   4.59221636E+09   0.00000000E+00   5.82835081E+08   0.27651542      
  9                1.44195449E-05   2.06113002E-05   1926.48050522    2.77632776E-10   7.74937380E+13   4.59221631E+09   0.00000000E+00   5.80259608E+08   0.27782328      
  10               1.75460896E-05   2.32516258E-05   1878.83652930    3.30889766E-10   8.96375896E+13   4.59221625E+09   0.00000000E+00   5.77500554E+08   0.27775848      
  11               2.13505531E-05   2.63990584E-05   1957.96358553    3.46647528E-10   9.76584139E+13   4.59221617E+09   0.00000000E+00   5.74554159E+08   0.27897848      
  12               2.59799264E-05   3.01485854E-05   1911.33147642    4.18705475E-10   1.14250147E+14   4.59221608E+09   0.00000000E+00   5.71436744E+08   0.27873327      
  13               3.16130723E-05   3.46220563E-05   1988.40726338    4.44322111E-10   1.26116920E+14   4.59221597E+09   0.00000000E+00   5.68148966E+08   0.27985738      
  14               3.84676354E-05   3.99534004E-05   1943.08340842    5.42388283E-10   1.48932042E+14   4.59221584E+09   0.00000000E+00   5.64708951E+08   0.27946811      
  15               4.68084520E-05   4.63154502E-05   2018.58034152    5.81950159E-10   1.66190307E+14   4.59221568E+09   0.00000000E+00   5.61119753E+08   0.28050277      
  16               5.69577817E-05   5.38966192E-05   1974.79598413    7.15934060E-10   1.97681090E+14   4.59221549E+09   0.00000000E+00   5.57399478E+08   0.28000842      
  17               6.93077586E-05   6.29415882E-05   2048.98147515    7.75200786E-10   2.22497689E+14   4.59221526E+09   0.00000000E+00   5.53551807E+08   0.2809685       
  18               8.43355422E-05   7.37148664E-05   2006.97202868    9.58614570E-10   2.66035506E+14   4.59221499E+09   0.00000000E+00   5.49593492E+08   0.28040693      
  19               1.02621753E-04   8.65639838E-05   2079.96067155    1.04572039E-09   3.01444908E+14   4.59221466E+09   0.00000000E+00   5.45527061E+08   0.28131133      
  20               1.24872905E-04   1.01862151E-04   2039.99193428    1.29694428E-09   3.61668124E+14   4.59221428E+09   0.00000000E+00   5.41366782E+08   0.28071988      
  21               1.51948705E-04   1.20100352E-04   2111.84252871    1.42332877E-09   4.11915929E+14   4.59221381E+09   0.00000000E+00   5.37113978E+08   0.061150042     
  22               1.84895266E-04   1.41801084E-04   2074.23834720    1.76711223E-09   4.95161341E+14   4.59221327E+09   0.00000000E+00   5.32780962E+08   0.06178679      
  23               2.24985526E-04   1.67654818E-04   2144.99117004    1.94860307E-09   5.66130261E+14   4.59221264E+09   0.00000000E+00   5.28367533E+08   0.061544289     
  24               2.73768430E-04   1.98389518E-04   2110.14485659    2.41784438E-09   6.80976763E+14   4.59221191E+09   0.00000000E+00   5.23884267E+08   0.062145723     
  25               3.33128779E-04   2.34970845E-04   2179.90313216    2.67583997E-09   7.80733157E+14   4.59221107E+09   0.00000000E+00   5.19329060E+08   0.061990076     
  26               4.05360046E-04   2.78405473E-04   2148.34495534    3.31334105E-09   9.38641155E+14   4.59221014E+09   0.00000000E+00   5.14711125E+08   0.062164735     
  27               4.93252992E-04   3.30033310E-04   2217.40337230    3.67547931E-09   1.07805002E+15   4.59220910E+09   0.00000000E+00   5.10025739E+08   0.062129214     
  28               6.00203489E-04   3.91225232E-04   2190.13912901    4.53365981E-09   1.29384125E+15   4.59220798E+09   0.00000000E+00   5.05281036E+08   0.062317517     
  29               7.30343727E-04   4.63798672E-04   2260.06621901    5.02671793E-09   1.48639480E+15   4.59220683E+09   0.00000000E+00   5.00466367E+08   0.062269991     
  30               8.88701864E-04   5.48470571E-04   2281.31638548    5.86624738E-09   1.74138039E+15   4.59099454E+09   1.21057540E+06   4.95535491E+08   0.062517386     
  31               1.08139630E-03   6.48726814E-04   2308.12459958    6.80572144E-09   2.03576873E+15   4.58944745E+09   2.74793580E+06   4.90517595E+08   0.062631823     
  32               1.31587206E-03   7.66617925E-04   2329.88764935    7.93723364E-09   2.38325125E+15   4.58743325E+09   4.75148118E+06   4.85445023E+08   0.062977894     
  33               1.60118847E-03   9.05225724E-04   2357.35132693    9.19044008E-09   2.78136775E+15   4.58482481E+09   7.34770844E+06   4.80312708E+08   0.063160268     
  34               1.94836913E-03   1.06911456E-03   2379.68738780    1.07105910E-08   3.25409460E+15   4.58153333E+09   1.06262168E+07   4.75088971E+08   0.06349128      
  35               2.37082789E-03   1.26276053E-03   2408.09378732    1.24001632E-08   3.79816162E+15   4.57739322E+09   1.47531902E+07   4.69775022E+08   0.063691397     
  36               2.88488706E-03   1.49132252E-03   2431.10497718    1.44494764E-08   4.44317791E+15   4.57226113E+09   1.98709681E+07   4.64375306E+08   0.06409456      
  37               3.51040806E-03   1.76084557E-03   2460.43936854    1.67173167E-08   5.18363533E+15   4.56592397E+09   2.61915618E+07   4.58891062E+08   0.06442155      
  38               4.27155881E-03   2.07777060E-03   2484.11075459    1.94618211E-08   6.05832380E+15   4.55821224E+09   3.38861354E+07   4.53334730E+08   0.064894678     
  39               5.19774750E-03   2.44937814E-03   2514.24828517    2.24751123E-08   7.05624277E+15   4.54886615E+09   4.32117483E+07   4.47715553E+08   0.065262339     
  40               6.32475876E-03   2.88481056E-03   2538.45546779    2.61164435E-08   8.23139778E+15   4.53767581E+09   5.43932527E+07   4.42032009E+08   0.065720187     
  41               7.69613634E-03   3.39479342E-03   2569.36484787    3.01024048E-08   9.57003250E+15   4.52431747E+09   6.77426235E+07   4.36279871E+08   0.066125989     
  42               9.36486541E-03   3.99140711E-03   2594.16375200    3.49195419E-08   1.11443432E+16   4.50856607E+09   8.34857079E+07   4.30460654E+08   0.066653415     
  43               1.13954198E-02   4.68871207E-03   2625.90694148    4.01710786E-08   1.29330237E+16   4.49004328E+09   1.01994535E+08   4.24572712E+08   0.06716998      
  44               1.38662528E-02   5.50230390E-03   2651.36445982    4.65093511E-08   1.50314537E+16   4.46851019E+09   1.23516356E+08   4.18620397E+08   0.067750338     
  45               1.68728289E-02   6.45014772E-03   2683.94080882    5.33855323E-08   1.74069454E+16   4.44353909E+09   1.48502371E+08   4.12604684E+08   0.068288911     
  46               2.05313114E-02   7.55181440E-03   2710.00005017    6.16662150E-08   2.01840284E+16   4.41491639E+09   1.77159538E+08   4.06532837E+08   0.068854318     
  47               2.49830512E-02   8.82956740E-03   2743.29736907    7.05975465E-08   2.33126895E+16   4.38219610E+09   2.09906483E+08   4.00408477E+08   0.069448315     
  48               3.04000477E-02   1.03072155E-02   2769.87798538    8.13135925E-08   2.69529657E+16   4.34522345E+09   2.46323640E+08   3.94241099E+08   0.070649416     
  49               3.69915946E-02   1.20115808E-02   2804.30725840    9.27411063E-08   3.10241870E+16   4.30328463E+09   2.88819886E+08   3.88034129E+08   0.072119875     
  50               4.50123658E-02   1.39708423E-02   2832.01878992    1.06364432E-07   3.57315866E+16   4.25575464E+09   3.36485534E+08   3.81795840E+08   0.072557585     
  51               5.47722558E-02   1.62164164E-02   2866.76899896    1.20876463E-07   4.09720815E+16   4.20193960E+09   3.90444383E+08   3.75532708E+08   0.072755702     
  52               6.66483519E-02   1.87810841E-02   2894.35432255    1.38131542E-07   4.69996693E+16   4.14160666E+09   4.50891503E+08   3.69256174E+08   0.072932407     
  53               8.10995048E-02   2.17015239E-02   2929.04237172    1.56381255E-07   5.36649114E+16   4.07396510E+09   5.18571388E+08   3.62972120E+08   0.073108142     
  54               9.86840557E-02   2.50162107E-02   2956.34578510    1.77998748E-07   6.12903549E+16   3.99877185E+09   5.93749488E+08   3.56689416E+08   0.073484842     
  55               1.20081410E-01   2.87685339E-02   2991.03547460    2.00674187E-07   6.96661814E+16   3.91511543E+09   6.77267893E+08   3.50410649E+08   0.074293636     
  56               1.46118284E-01   3.30042024E-02   3018.51728176    2.27371048E-07   7.91956660E+16   3.82244817E+09   7.69901062E+08   3.44139987E+08   0.075371394     
  57               1.77800653E-01   3.77733612E-02   3053.73788882    2.55123675E-07   8.95941624E+16   3.71926806E+09   8.73089297E+08   3.37877776E+08   0.076884308     
  58               2.16352610E-01   4.31281820E-02   3081.92526795    2.87596240E-07   1.01359600E+17   3.60438086E+09   9.88041609E+08   3.31626285E+08   0.078185993     
  59               2.63263667E-01   4.91291022E-02   3117.82012751    3.21168344E-07   1.14133625E+17   3.47596586E+09   1.11655406E+09   3.25381897E+08   0.079568318     
  60               3.20346302E-01   5.58412798E-02   3146.60484937    3.60358975E-07   1.28540207E+17   3.33304660E+09   1.25956299E+09   3.19142599E+08   0.080435301     
  61               3.89805984E-01   6.33414963E-02   3182.86912862    4.00834284E-07   1.44143604E+17   3.17442861E+09   1.41826558E+09   3.12901613E+08   0.081090727     
  62               4.74326391E-01   7.17138213E-02   3211.75715342    4.48145911E-07   1.61728294E+17   3.00070186E+09   1.59200833E+09   3.06654782E+08   0.081334676     
  63               5.77173093E-01   8.10575867E-02   3248.01944854    4.97055257E-07   1.80759399E+17   2.81277568E+09   1.77990441E+09   3.00393881E+08   0.081688891     
  64               7.02319722E-01   9.14812983E-02   3276.92239438    5.54234534E-07   2.02205052E+17   2.61386209E+09   1.97877246E+09   2.94113611E+08   0.082171968     
  65               8.54601502E-01   1.03111547E-01   3313.53413415    6.13268423E-07   2.25393659E+17   2.40723703E+09   2.18536414E+09   2.87804874E+08   0.083145299     
  66               1.03990206E+00   1.16085582E-01   3343.10643085    6.82123393E-07   2.51509225E+17   2.19791046E+09   2.39470117E+09   2.81461453E+08   0.084275142     
  67               1.26538076E+00   1.30563263E-01   3380.74279844    7.53118364E-07   2.79727204E+17   1.99037552E+09   2.60231141E+09   2.75073494E+08   0.085922849     
  68               1.53974930E+00   1.46718086E-01   3411.68404472    8.35697852E-07   3.11487546E+17   1.78927157E+09   2.80349563E+09   2.68633991E+08   0.087312748     
  69               1.87360830E+00   1.64753680E-01   3450.72051901    9.20989925E-07   3.45820853E+17   1.59852702E+09   2.99433138E+09   2.62132605E+08   0.088927014     
  70               2.27985690E+00   1.84892803E-01   3483.18066863    1.02012088E-06   3.84476539E+17   1.42077422E+09   3.17214487E+09   2.55562159E+08   0.090052672     
  71               2.77419111E+00   2.07397158E-01   3523.58756361    1.12293703E-06   4.26327720E+17   1.25818079E+09   3.33480949E+09   2.48912626E+08   0.091294813     
  72               3.37571026E+00   2.32554057E-01   3557.45422479    1.24243058E-06   4.73489594E+17   1.11022076E+09   3.48282493E+09   2.42177409E+08   0.092123414     
  73               4.10765492E+00   2.60698655E-01   3599.17513493    1.36692952E-06   5.24640303E+17   9.77369842E+08   3.61573260E+09   2.35347522E+08   0.093044629     
  74               4.99830483E+00   2.92199403E-01   3634.36700004    1.51161112E-06   5.82339680E+17   8.56701520E+08   3.73648851E+09   2.28417478E+08   0.093830123     
  75               6.08207157E+00   3.27481867E-01   3677.53732873    1.66282502E-06   6.44994494E+17   7.50067879E+08   3.84326270E+09   2.21379589E+08   0.095198743     
  76               7.40082804E+00   3.67013949E-01   3714.59328023    1.83793884E-06   7.15644176E+17   6.52251241E+08   3.94121895E+09   2.14228541E+08   0.096637535     
  77               9.00552635E+00   4.11331703E-01   3759.92667022    2.02121732E-06   7.92389385E+17   5.67293431E+08   4.02634426E+09   2.06956889E+08   0.098770131     
  78               1.09581663E+01   4.61027082E-01   3799.67181230    2.23249269E-06   8.78832664E+17   4.87788214E+08   4.10598926E+09   1.99558708E+08   0.10057496      
  79               1.33341911E+01   5.16771294E-01   3847.66060841    2.45434602E-06   9.72808739E+17   4.19816375E+08   4.17403925E+09   1.92027484E+08   0.10258586      
  80               1.62254019E+01   5.79305964E-01   3890.16687034    2.70954710E-06   1.07861290E+18   3.56239682E+08   4.23764112E+09   1.84358876E+08   0.10405354      
  81               1.97435049E+01   6.49455626E-01   3940.66246994    2.97867286E-06   1.19372994E+18   3.04571377E+08   4.28937199E+09   1.76549891E+08   0.10590887      
  82               2.40244270E+01   7.28128207E-01   3985.91190795    3.28708143E-06   1.32314061E+18   2.57752121E+08   4.33631398E+09   1.68598930E+08   0.10760701      
  83               2.92335681E+01   8.16308843E-01   4039.20129322    3.61271401E-06   1.46381045E+18   2.21730634E+08   4.37253837E+09   1.60506474E+08   0.10992834      
  84               3.55721908E+01   9.15076689E-01   4087.67481133    3.98366171E-06   1.62146281E+18   1.89122700E+08   4.40527962E+09   1.52273210E+08   0.1121185       
  85               4.32851972E+01   1.02556586E+00   4144.22889375    4.37522227E-06   1.79244427E+18   1.64785746E+08   4.42968920E+09   1.43903534E+08   0.1151732       
  86               5.26705906E+01   1.14900376E+00   4196.59794049    4.81760317E-06   1.98312425E+18   1.41809834E+08   4.45264259E+09   1.35400970E+08   0.11797965      
  87               6.40909893E+01   1.28662626E+00   4256.92618589    5.28395750E-06   2.18918332E+18   1.23953254E+08   4.47050590E+09   1.26774635E+08   0.12111418      
  88               7.79876373E+01   1.43975165E+00   4313.13881126    5.80739000E-06   2.41779786E+18   1.06060415E+08   4.48841472E+09   1.18032931E+08   0.12339828      
  89               9.48974517E+01   1.60966263E+00   4376.52862184    6.35945373E-06   2.66397980E+18   9.20808517E+07   4.50243562E+09   1.09190889E+08   0.12602013      
  90               1.15473768E+02   1.79772789E+00   4435.81931081    6.97454936E-06   2.93545852E+18   7.86926509E+07   4.51592329E+09   1.00260714E+08   0.12856411      
  91               1.40511583E+02   2.00524165E+00   4502.19875198    7.62049807E-06   3.22602622E+18   6.87275096E+07   4.52614429E+09   9.12589455E+07   0.13237103      
  92               1.70978268E+02   2.23354591E+00   4565.37980846    8.33144514E-06   3.54359279E+18   5.92851286E+07   4.53577924E+09   8.21977978E+07   0.13635659      
  93               2.08050949E+02   2.48385261E+00   4635.78464679    9.07308414E-06   3.88086387E+18   5.20684426E+07   4.54304070E+09   7.30930761E+07   0.14136881      
  94               2.53161982E+02   2.75738470E+00   4703.64375673    9.88014869E-06   4.24608593E+18   4.50769501E+07   4.54994179E+09   6.39567266E+07   0.14601355      
  95               3.08054300E+02   3.05525115E+00   4778.30324171    1.07181786E-05   4.63125877E+18   3.94732703E+07   4.55549715E+09   5.48026996E+07   0.15096328      
  96               3.74848746E+02   3.37861967E+00   4850.37555982    1.16233227E-05   5.04533235E+18   3.40771459E+07   4.56091189E+09   4.56405586E+07   0.15518617      
  97               4.56126023E+02   3.72862964E+00   4928.51641029    1.25610807E-05   5.47972647E+18   2.97942265E+07   4.56521164E+09   3.64797553E+07   0.16000964      
  98               5.55026396E+02   4.10644822E+00   5004.37740327    1.35661716E-05   5.94349821E+18   2.58916478E+07   4.56914198E+09   2.73267000E+07   0.16505691      
  99               6.75371026E+02   4.51309306E+00   5086.51269663    1.46012456E-05   6.42658115E+18   2.28941283E+07   4.57227893E+09   1.81892938E+07   0.17172624      
  100              8.21809604E+02   4.94933373E+00   5167.60672718    1.56971942E-05   6.93718256E+18   2.01452047E+07   4.57505376E+09   9.07660123E+06   0.17867289      
  101              1.00000000E+03   5.41564960E+00   5255.11014091    1.68173030E-05   7.46439432E+18   1.93460709E+07   4.57597469E+09   0.00000000E+00   0.18630108      
