# ATMO pressure-temperature profile
# Effective temperature = 1900.0K
# log(g) = 3.0cm/s^2
# M/H = 0.0
# Optical depth grid in band 17 (1.20-1.33microns)
# All parameters in cgs units
#
# Model Level      Optical Depth    Pressure         Temperature      Density          Number Density   Rad Flux         Conv Flux        Radial Extension Adiabatic Gradient
#                                   [Ba]             [K]              [g/cm^3]         [/cm^3]          [ergs/s/cm^2/sr] [ergs/s/cm^2/sr] [cm]             [K/Ba]          
  1                1.00000000E-05   1.00000000E-05   622.02555275     4.55358163E-10   1.16444134E+14   7.38894246E+08   0.00000000E+00   7.86162270E+08   0.29798998      
  2                1.20226443E-05   1.62859982E-05   680.70793494     6.77614063E-10   1.73292357E+14   7.38894242E+08   0.00000000E+00   7.74844951E+08   0.29751077      
  3                1.44543977E-05   2.41314967E-05   704.29972931     9.70410034E-10   2.48171884E+14   7.38894239E+08   0.00000000E+00   7.65169922E+08   0.29716041      
  4                1.73780083E-05   3.33074410E-05   730.62597922     1.29115397E-09   3.30196143E+14   7.38894240E+08   0.00000000E+00   7.56972351E+08   0.29663854      
  5                2.08929613E-05   4.40481267E-05   744.90546801     1.67479799E-09   4.28303990E+14   7.38894240E+08   0.00000000E+00   7.49668330E+08   0.2963284       
  6                2.51188643E-05   5.66343256E-05   766.18584351     2.09357641E-09   5.35391472E+14   7.38894242E+08   0.00000000E+00   7.42946779E+08   0.29577968      
  7                3.01995172E-05   7.14156798E-05   777.57931316     2.60130956E-09   6.65234427E+14   7.38894244E+08   0.00000000E+00   7.36612841E+08   0.29548457      
  8                3.63078055E-05   8.88097930E-05   796.74027346     3.15709063E-09   8.07365016E+14   7.38894247E+08   0.00000000E+00   7.30543202E+08   0.29491601      
  9                4.36515832E-05   1.09298418E-04   806.83126085     3.83684366E-09   9.81198778E+14   7.38894251E+08   0.00000000E+00   7.24656361E+08   0.29563672      
  10               5.24807460E-05   1.33447320E-04   825.12710991     4.58069964E-09   1.17142594E+15   7.38894257E+08   0.00000000E+00   7.18896069E+08   0.29524472      
  11               6.30957344E-05   1.61913479E-04   834.71517912     5.49398542E-09   1.40498127E+15   7.38894263E+08   0.00000000E+00   7.13221679E+08   0.29505114      
  12               7.58577575E-05   1.95468563E-04   852.76933628     6.49214280E-09   1.66024119E+15   7.38894271E+08   0.00000000E+00   7.07603176E+08   0.29463083      
  13               9.12010839E-05   2.35009263E-04   862.21478589     7.71990987E-09   1.97421912E+15   7.38894281E+08   0.00000000E+00   7.02017906E+08   0.2944255       
  14               1.09647820E-04   2.81588797E-04   880.26335556     9.06035887E-09   2.31701363E+15   7.38894294E+08   0.00000000E+00   6.96448404E+08   0.29397564      
  15               1.31825674E-04   3.36429529E-04   889.70856723     1.07099880E-08   2.73887477E+15   7.38894307E+08   0.00000000E+00   6.90881213E+08   0.29375616      
  16               1.58489319E-04   4.00962869E-04   907.91656953     1.25083727E-08   3.19877766E+15   7.38894324E+08   0.00000000E+00   6.85305643E+08   0.29327244      
  17               1.90546072E-04   4.76844460E-04   917.51893416     1.47198811E-08   3.76432876E+15   7.38894341E+08   0.00000000E+00   6.79713428E+08   0.29303584      
  18               2.29086765E-04   5.66043399E-04   936.01486134     1.71281139E-08   4.38018875E+15   7.38894363E+08   0.00000000E+00   6.74095803E+08   0.29251681      
  19               2.75422870E-04   6.70922009E-04   945.85336580     2.00905017E-08   5.13776298E+15   7.38894389E+08   0.00000000E+00   6.68442051E+08   0.29226081      
  20               3.31131121E-04   7.94253029E-04   964.79778123     2.33165938E-08   5.96277502E+15   7.38894416E+08   0.00000000E+00   6.62743763E+08   0.29170201      
  21               3.98107171E-04   9.39249155E-04   975.10038094     2.72818620E-08   6.97681691E+15   7.38894449E+08   0.00000000E+00   6.56994835E+08   0.2914206       
  22               4.78630092E-04   1.10965648E-03   994.73736411     3.15953096E-08   8.07989959E+15   7.38894485E+08   0.00000000E+00   6.51190667E+08   0.29081546      
  23               5.75439937E-04   1.30979171E-03   1005.72930823    3.68861747E-08   9.43293782E+15   7.38894527E+08   0.00000000E+00   6.45328200E+08   0.29050076      
  24               6.91830971E-04   1.54465925E-03   1026.28080199    4.26293725E-08   1.09016522E+16   7.38894568E+08   0.00000000E+00   6.39405268E+08   0.28984146      
  25               8.31763771E-04   1.81998614E-03   1038.17969631    4.96521429E-08   1.26975926E+16   7.38894610E+08   0.00000000E+00   6.33420805E+08   0.28948649      
  26               1.00000000E-03   2.14237779E-03   1059.81010646    5.72546033E-08   1.46417787E+16   7.38894636E+08   0.00000000E+00   6.27374228E+08   0.28876707      
  27               1.20226443E-03   2.51933558E-03   1072.76464168    6.65156693E-08   1.70101212E+16   7.38894645E+08   0.00000000E+00   6.21265855E+08   0.28836489      
  28               1.44543977E-03   2.95945465E-03   1095.62157597    7.65056415E-08   1.95648694E+16   7.38894607E+08   0.00000000E+00   6.15096191E+08   0.28758064      
  29               1.73780083E-03   3.47241268E-03   1109.79141861    8.86201131E-08   2.26629172E+16   7.38894516E+08   0.00000000E+00   6.08866465E+08   0.28712413      
  30               2.08929613E-03   4.06929880E-03   1133.99417034    1.01636810E-07   2.59916948E+16   7.38894327E+08   0.00000000E+00   6.02577201E+08   0.28626811      
  31               2.51188643E-03   4.76342711E-03   1149.46097349    1.17372820E-07   3.00158836E+16   7.38894049E+08   0.00000000E+00   5.96221982E+08   0.28575405      
  32               3.01995172E-03   5.57039592E-03   1175.12164854    1.34259636E-07   3.43343695E+16   7.38893597E+08   0.00000000E+00   5.89793621E+08   0.28482357      
  33               3.63078055E-03   6.50769450E-03   1192.21468333    1.54601932E-07   3.95365282E+16   7.38892972E+08   0.00000000E+00   5.83287864E+08   0.28423476      
  34               4.36515832E-03   7.59501473E-03   1219.81737610    1.76350424E-07   4.50982453E+16   7.38892063E+08   0.00000000E+00   5.76702772E+08   0.28321019      
  35               5.24807460E-03   8.85417418E-03   1238.95926444    2.02410901E-07   5.17626942E+16   7.38890910E+08   0.00000000E+00   5.70038148E+08   0.28253361      
  36               6.30957344E-03   1.03083866E-02   1268.87783606    2.30100628E-07   5.88432598E+16   7.38889368E+08   0.00000000E+00   5.63299811E+08   0.28116643      
  37               7.58577575E-03   1.19828857E-02   1290.61081595    2.62974793E-07   6.72499485E+16   7.38887505E+08   0.00000000E+00   5.56492600E+08   0.28129424      
  38               9.12010839E-03   1.38937611E-02   1323.58477269    2.97336366E-07   7.60315607E+16   7.38885152E+08   0.00000000E+00   5.49658889E+08   0.281269        
  39               1.09647820E-02   1.60647132E-02   1348.74190025    3.37381352E-07   8.62720200E+16   7.38882481E+08   0.00000000E+00   5.42804535E+08   0.28028701      
  40               1.31825674E-02   1.84423219E-02   1385.51219475    3.77209324E-07   9.64119985E+16   7.38879338E+08   0.00000000E+00   5.36139139E+08   0.27801609      
  41               1.58489319E-02   2.10273375E-02   1415.09492866    4.21115353E-07   1.07627822E+17   7.38876477E+08   0.00000000E+00   5.29653161E+08   0.27628136      
  42               1.90546072E-02   2.38819154E-02   1457.79152286    4.64317830E-07   1.18658697E+17   7.38873603E+08   0.00000000E+00   5.23197540E+08   0.27399367      
  43               2.29086765E-02   2.67875299E-02   1504.14224148    5.05123617E-07   1.28994027E+17   7.37659147E+08   1.16123572E+06   5.17197279E+08   0.27130416      
  44               2.75422870E-02   2.93706852E-02   1541.97755731    5.40881925E-07   1.37962757E+17   7.35504846E+08   3.27459019E+06   5.12254827E+08   0.26881922      
  45               3.31131121E-02   3.16568699E-02   1573.25370882    5.71964761E-07   1.45745464E+17   7.33372162E+08   5.36681744E+06   5.08143746E+08   0.26676982      
  46               3.98107171E-02   3.37929559E-02   1600.80932378    6.00029960E-07   1.52901736E+17   7.31327561E+08   7.38833586E+06   5.04497483E+08   0.26498632      
  47               4.78630092E-02   3.62086012E-02   1630.31904323    6.31258215E-07   1.60866268E+17   7.28782373E+08   9.92443920E+06   5.00572446E+08   0.26318914      
  48               5.75439937E-02   3.89287106E-02   1661.60340115    6.65864447E-07   1.69694781E+17   7.25537232E+08   1.31640935E+07   4.96376878E+08   0.26106676      
  49               6.91830971E-02   4.19762486E-02   1694.53481094    7.03984984E-07   1.79423353E+17   7.21387108E+08   1.73060837E+07   4.91925694E+08   0.25834749      
  50               8.31763771E-02   4.53663568E-02   1728.70526552    7.45727450E-07   1.90081035E+17   7.16158517E+08   2.25207702E+07   4.87246800E+08   0.25519566      
  51               1.00000000E-01   4.90871523E-02   1763.68381496    7.90786039E-07   2.01591840E+17   7.09797780E+08   2.88606989E+07   4.82401530E+08   0.25160644      
  52               1.20226443E-01   5.30904515E-02   1798.58179836    8.38551052E-07   2.13802148E+17   7.02583850E+08   3.60464566E+07   4.77485372E+08   0.24760849      
  53               1.44543977E-01   5.74467200E-02   1833.84712068    8.89730646E-07   2.26896579E+17   6.94648082E+08   4.39706888E+07   4.72441976E+08   0.24331322      
  54               1.73780083E-01   6.23226443E-02   1870.27749083    9.46207025E-07   2.41360204E+17   6.85399912E+08   5.32315226E+07   4.67127779E+08   0.23849825      
  55               2.08929613E-01   6.77735794E-02   1907.75791701    1.00842853E-06   2.57313753E+17   6.74395083E+08   6.42656181E+07   4.61547459E+08   0.23303413      
  56               2.51188643E-01   7.38618118E-02   1945.97804691    1.07700769E-06   2.74920965E+17   6.61318132E+08   7.73901382E+07   4.55705430E+08   0.22711602      
  57               3.01995172E-01   8.06574672E-02   1984.87165457    1.15249519E-06   2.94332345E+17   6.45891555E+08   9.28852302E+07   4.49605741E+08   0.2207814       
  58               3.63078055E-01   8.82396998E-02   2024.12506516    1.23566569E-06   3.15756659E+17   6.27886040E+08   1.10976921E+08   4.43251946E+08   0.21402589      
  59               4.36515832E-01   9.66987738E-02   2063.66980213    1.32725423E-06   3.39395904E+17   6.07156582E+08   1.31785969E+08   4.36646498E+08   0.20688153      
  60               5.24807460E-01   1.06139668E-01   2103.20469385    1.42829453E-06   3.65529155E+17   5.83741076E+08   1.55260920E+08   4.29789485E+08   0.19982041      
  61               6.30957344E-01   1.16680320E-01   2142.85004916    1.53963811E-06   3.94395244E+17   5.57729892E+08   1.81319989E+08   4.22681313E+08   0.19294781      
  62               7.58577575E-01   1.28452365E-01   2182.33722887    1.66251868E-06   4.26330186E+17   5.29238272E+08   2.09860270E+08   4.15323162E+08   0.18609271      
  63               9.12010839E-01   1.41603171E-01   2221.72266036    1.79804727E-06   4.61645892E+17   4.98490280E+08   2.40664795E+08   4.07716772E+08   0.17949435      
  64               1.09647820E+00   1.56296659E-01   2260.83200155    1.94764607E-06   5.00734185E+17   4.65739299E+08   2.73479171E+08   3.99864779E+08   0.17316784      
  65               1.31825674E+00   1.72714719E-01   2299.73713347    2.11264148E-06   5.43972558E+17   4.31178564E+08   3.08094425E+08   3.91770745E+08   0.16686982      
  66               1.58489319E+00   1.91006317E-01   2338.04412056    2.29459096E-06   5.91726294E+17   3.95246925E+08   3.44068818E+08   3.83462497E+08   0.16097379      
  67               1.90546072E+00   2.11390663E-01   2376.03891207    2.49444965E-06   6.44403798E+17   3.58870121E+08   3.80478150E+08   3.74941932E+08   0.1557581       
  68               2.29086765E+00   2.34166663E-01   2413.68693852    2.71495297E-06   7.02700020E+17   3.22707186E+08   4.16667097E+08   3.66189662E+08   0.15096411      
  69               2.75422870E+00   2.59599045E-01   2451.13630084    2.95781015E-06   7.67116756E+17   2.87027929E+08   4.52353511E+08   3.57214697E+08   0.14652964      
  70               3.31131121E+00   2.87967615E-01   2488.19977860    3.22521789E-06   8.38270613E+17   2.52181972E+08   4.87211758E+08   3.48029578E+08   0.14243739      
  71               3.98107171E+00   3.19563175E-01   2525.01495527    3.51889926E-06   9.16681807E+17   2.18769318E+08   5.20630437E+08   3.38650607E+08   0.13884167      
  72               4.78630092E+00   3.54738304E-01   2561.52181702    3.84141097E-06   1.00308068E+18   1.87576544E+08   5.51766967E+08   3.29083098E+08   0.13548756      
  73               5.75439937E+00   3.93875074E-01   2597.78255154    4.19524752E-06   1.09820026E+18   1.59271234E+08   5.79962481E+08   3.19333813E+08   0.13243645      
  74               6.91830971E+00   4.37385310E-01   2633.77033512    4.58320100E-06   1.20285182E+18   1.34321540E+08   6.04768998E+08   3.09410882E+08   0.12967835      
  75               8.31763771E+00   4.85711939E-01   2669.54790741    5.00800581E-06   1.31785279E+18   1.12980031E+08   6.25954946E+08   2.99323435E+08   0.12726728      
  76               1.00000000E+01   5.39327394E-01   2705.12268029    5.47260504E-06   1.44408033E+18   9.51261750E+07   6.43654464E+08   2.89081736E+08   0.12507522      
  77               1.20226443E+01   5.98736991E-01   2740.49283421    5.98009744E-06   1.58246189E+18   8.04080334E+07   6.58231413E+08   2.78696492E+08   0.12305588      
  78               1.44543977E+01   6.64482372E-01   2775.64809905    6.53377045E-06   1.73398326E+18   6.83368477E+07   6.70182059E+08   2.68178321E+08   0.12120446      
  79               1.73780083E+01   7.37145085E-01   2810.59438959    7.13704901E-06   1.89968082E+18   5.84054161E+07   6.80016716E+08   2.57537353E+08   0.11955087      
  80               2.08929613E+01   8.17349770E-01   2845.35021005    7.79350288E-06   2.08064533E+18   5.01696479E+07   6.88172310E+08   2.46782993E+08   0.118123        
  81               2.51188643E+01   9.05769209E-01   2879.95035497    8.50684023E-06   2.27802450E+18   4.32676101E+07   6.95013716E+08   2.35923550E+08   0.1168743       
  82               3.01995172E+01   1.00313106E+00   2914.39918402    9.28113762E-06   2.49307004E+18   3.74363412E+07   7.00805583E+08   2.24965984E+08   0.11578569      
  83               3.63078055E+01   1.11022055E+00   2948.73250637    1.01205822E-05   2.72709160E+18   3.24757524E+07   7.05747745E+08   2.13916212E+08   0.11482184      
  84               4.36515832E+01   1.22788901E+00   2982.94387345    1.10298702E-05   2.98153471E+18   2.82350394E+07   7.09986780E+08   2.02778867E+08   0.11397586      
  85               5.24807460E+01   1.35706219E+00   3017.07619817    1.20137911E-05   3.25791172E+18   2.45889091E+07   7.13631049E+08   1.91557224E+08   0.11322494      
  86               6.30957344E+01   1.49872031E+00   3051.11211863    1.30776230E-05   3.55785518E+18   2.14329138E+07   7.16802859E+08   1.80255463E+08   0.11257346      
  87               7.58577575E+01   1.65390813E+00   3085.09674180    1.42264727E-05   3.88300932E+18   1.86924949E+07   7.19573918E+08   1.68877789E+08   0.11199645      
  88               9.12010839E+01   1.82378087E+00   3119.00665345    1.54665111E-05   4.23528065E+18   1.63161073E+07   7.21993224E+08   1.57425625E+08   0.1115031       
  89               1.09647820E+02   2.00961662E+00   3152.90957128    1.68038696E-05   4.61665624E+18   1.42566455E+07   7.24104101E+08   1.45898078E+08   0.11108068      
  90               1.31825674E+02   2.21282469E+00   3186.78547686    1.82460222E-05   5.02944448E+18   1.24693411E+07   7.25934921E+08   1.34292668E+08   0.11076439      
  91               1.58489319E+02   2.43495364E+00   3220.73271228    1.98000120E-05   5.47597998E+18   1.09152314E+07   7.27529830E+08   1.22605845E+08   0.11053236      
  92               1.90546072E+02   2.67770596E+00   3254.72239749    2.14747502E-05   5.95901903E+18   9.55895610E+06   7.28927511E+08   1.10833186E+08   0.11037916      
  93               2.29086765E+02   2.94295324E+00   3288.85557049    2.32785199E-05   6.48133395E+18   8.37237761E+06   7.30154718E+08   9.89695697E+07   0.11026286      
  94               2.75422870E+02   3.23275815E+00   3323.08003087    2.52221583E-05   7.04625335E+18   7.33089456E+06   7.31235046E+08   8.70091980E+07   0.11019026      
  95               3.31131121E+02   3.54939332E+00   3357.50607787    2.73154299E-05   7.65707956E+18   6.41819404E+06   7.32178255E+08   7.49457436E+07   0.11013463      
  96               3.98107171E+02   3.89537259E+00   3392.06646127    2.95714971E-05   8.31783864E+18   5.61878923E+06   7.32994977E+08   6.27722018E+07   0.11012388      
  97               4.78630092E+02   4.27346377E+00   3426.89317912    3.20017161E-05   9.03244444E+18   4.91890138E+06   7.33715300E+08   5.04813843E+07   0.11014561      
  98               5.75439937E+02   4.68671350E+00   3461.90979808    3.46217506E-05   9.80569764E+18   4.30408843E+06   7.34351589E+08   3.80660380E+07   0.11022207      
  99               6.91830971E+02   5.13847211E+00   3497.26483328    3.74446699E-05   1.06421977E+19   3.76422029E+06   7.34912524E+08   2.55189096E+07   0.11032747      
  100              8.31763771E+02   5.63243047E+00   3532.86340647    4.04892202E-05   1.15476824E+19   3.28916357E+06   7.35407192E+08   1.28326685E+07   0.11049235      
  101              1.00000000E+03   6.17264860E+00   3568.87656902    4.37703211E-05   1.25275420E+19   3.07027433E+06   7.35640018E+08   0.00000000E+00   0.11069498      
