# ATMO pressure-temperature profile
# Effective temperature = 2300.0K
# log(g) = 2.5cm/s^2
# M/H = 0.0
# Optical depth grid in band 17 (1.20-1.33microns)
# All parameters in cgs units
#
# Model Level      Optical Depth    Pressure         Temperature      Density          Number Density   Rad Flux         Conv Flux        Radial Extension Adiabatic Gradient
#                                   [Ba]             [K]              [g/cm^3]         [/cm^3]          [ergs/s/cm^2/sr] [ergs/s/cm^2/sr] [cm]             [K/Ba]          
  1                1.00000000E-04   1.00000000E-05   979.82180978     2.89064376E-10   7.39228560E+13   1.58665644E+09   0.00000000E+00   3.43800399E+09   0.29012597      
  2                1.17489755E-04   2.03190272E-05   1156.93147410    4.97446727E-10   1.27209959E+14   1.58665643E+09   0.00000000E+00   3.35194857E+09   0.28415916      
  3                1.38038426E-04   3.01312474E-05   1210.49788602    7.05130330E-10   1.80293021E+14   1.58665643E+09   0.00000000E+00   3.29955542E+09   0.28189585      
  4                1.62181010E-04   4.01740432E-05   1260.85103805    9.03285000E-10   2.30785012E+14   1.58665643E+09   0.00000000E+00   3.25975709E+09   0.28039563      
  5                1.90546072E-04   5.05509489E-05   1287.70418074    1.11301572E-09   2.84340712E+14   1.58665643E+09   0.00000000E+00   3.22702986E+09   0.27920987      
  6                2.23872114E-04   6.09656001E-05   1324.80153015    1.30690731E-09   3.33318848E+14   1.58665643E+09   0.00000000E+00   3.19971716E+09   0.27819596      
  7                2.63026799E-04   7.05916026E-05   1344.84731047    1.49201472E-09   3.80194564E+14   1.58665645E+09   0.00000000E+00   3.17791715E+09   0.2772987       
  8                3.09029543E-04   8.03217026E-05   1374.11964322    1.66141661E-09   4.23383762E+14   1.58665644E+09   0.00000000E+00   3.15837409E+09   0.27655811      
  9                3.63078055E-04   9.13296219E-05   1388.79453323    1.86909896E-09   4.76320750E+14   1.58665643E+09   0.00000000E+00   3.13862032E+09   0.2758901       
  10               4.26579519E-04   1.03811053E-04   1416.58129623    2.08270808E-09   5.30796354E+14   1.58665642E+09   0.00000000E+00   3.11861547E+09   0.27521631      
  11               5.01187234E-04   1.17974741E-04   1430.67722210    2.34346257E-09   5.97273447E+14   1.58665641E+09   0.00000000E+00   3.09834176E+09   0.26203299      
  12               5.88843655E-04   1.34057528E-04   1458.28792232    2.61223780E-09   6.65845958E+14   1.58665640E+09   0.00000000E+00   3.07778628E+09   0.25894162      
  13               6.91830971E-04   1.52310974E-04   1472.72554352    2.93867554E-09   7.49092095E+14   1.58665638E+09   0.00000000E+00   3.05695274E+09   0.25573585      
  14               8.12830516E-04   1.73012040E-04   1500.96945325    3.27477023E-09   8.34892025E+14   1.58665636E+09   0.00000000E+00   3.03585050E+09   0.25180793      
  15               9.54992586E-04   1.96430503E-04   1516.59612835    3.67942972E-09   9.38133891E+14   1.58665633E+09   0.00000000E+00   3.01451621E+09   0.24762753      
  16               1.12201845E-03   2.22814189E-04   1546.39058104    4.09229655E-09   1.04363705E+15   1.58665630E+09   0.00000000E+00   2.99301490E+09   0.24274501      
  17               1.31825674E-03   2.52260407E-04   1564.49153815    4.57887748E-09   1.16788939E+15   1.58665625E+09   0.00000000E+00   2.97150356E+09   0.23749018      
  18               1.54881662E-03   2.84228323E-04   1598.28494285    5.04815008E-09   1.28806857E+15   1.58665609E+09   0.00000000E+00   2.95047669E+09   0.23096948      
  19               1.81970086E-03   3.18191393E-04   1617.57522647    5.58270612E-09   1.42478646E+15   1.58665606E+09   0.00000000E+00   2.93024557E+09   0.22419915      
  20               2.13796209E-03   3.56561815E-04   1641.87678861    6.16116078E-09   1.57296880E+15   1.58665604E+09   0.00000000E+00   2.90955625E+09   0.21836726      
  21               2.51188643E-03   3.99919379E-04   1660.66430782    6.83026784E-09   1.74428095E+15   1.58665601E+09   0.00000000E+00   2.88842056E+09   0.21278999      
  22               2.95120923E-03   4.48907302E-04   1685.31764604    7.55133953E-09   1.92930434E+15   1.58665597E+09   0.00000000E+00   2.86684996E+09   0.20696142      
  23               3.46736850E-03   5.04252638E-04   1705.11163344    8.38070016E-09   2.14200856E+15   1.58665593E+09   0.00000000E+00   2.84484953E+09   0.20082953      
  24               4.07380278E-03   5.66764242E-04   1731.14642170    9.27223019E-09   2.37134356E+15   1.58665589E+09   0.00000000E+00   2.82242446E+09   0.19404923      
  25               4.78630092E-03   6.37293216E-04   1753.14100069    1.02895678E-08   2.63298441E+15   1.58665584E+09   0.00000000E+00   2.79959054E+09   0.18713346      
  26               5.62341325E-03   7.16722125E-04   1782.56873021    1.13703253E-08   2.91226149E+15   1.58665580E+09   0.00000000E+00   2.77636839E+09   0.17961521      
  27               6.60693448E-03   8.05297853E-04   1819.06990726    1.25008047E-08   3.20651290E+15   1.58591981E+09   7.31281617E+05   2.75287332E+09   0.16798725      
  28               7.76247117E-03   9.03803397E-04   1853.56926348    1.37461224E-08   3.53175842E+15   1.58401728E+09   2.63038274E+06   2.72910936E+09   0.15726073      
  29               9.12010839E-03   1.01371928E-03   1886.48635895    1.51211747E-08   3.89215276E+15   1.58095999E+09   5.68533853E+06   2.70499949E+09   0.14811042      
  30               1.07151931E-02   1.13667909E-03   1918.12548269    1.66422433E-08   4.29226666E+15   1.57666954E+09   9.97515550E+06   2.68048731E+09   0.14001862      
  31               1.25892541E-02   1.27450953E-03   1948.62922494    1.83283198E-08   4.73739628E+15   1.57103773E+09   1.56079445E+07   2.65553016E+09   0.13261971      
  32               1.47910839E-02   1.42927133E-03   1978.11430987    2.02006047E-08   5.23346276E+15   1.56395057E+09   2.26977922E+07   2.63009484E+09   0.12612976      
  33               1.73780083E-02   1.60327968E-03   2006.80574972    2.22808554E-08   5.78668433E+15   1.55528205E+09   3.13718792E+07   2.60415671E+09   0.12065424      
  34               2.04173794E-02   1.79912571E-03   2034.86407968    2.45932611E-08   6.40400914E+15   1.54487946E+09   4.17848376E+07   2.57769869E+09   0.1158041       
  35               2.39883292E-02   2.01977866E-03   2062.34376869    2.71666400E-08   7.09363044E+15   1.53258436E+09   5.40932969E+07   2.55070266E+09   0.11143449      
  36               2.81838293E-02   2.26863819E-03   2089.35203683    3.00326168E-08   7.86465105E+15   1.51824178E+09   6.84514337E+07   2.52315049E+09   0.10753259      
  37               3.31131121E-02   2.54953738E-03   2115.94174231    3.32270378E-08   8.72737258E+15   1.50170231E+09   8.50086840E+07   2.49502994E+09   0.10414592      
  38               3.89045145E-02   2.86678583E-03   2142.24560645    3.67874796E-08   9.69285750E+15   1.48281410E+09   1.03926166E+08   2.46633408E+09   0.10121505      
  39               4.57088190E-02   3.22522406E-03   2168.28825228    4.07575158E-08   1.07737952E+16   1.46142872E+09   1.25345172E+08   2.43706051E+09   0.098616924     
  40               5.37031796E-02   3.63028917E-03   2194.14525971    4.51837347E-08   1.19839968E+16   1.43741011E+09   1.49399560E+08   2.40721046E+09   0.096278781     
  41               6.30957344E-02   4.08808313E-03   2219.80741147    5.01198891E-08   1.33392146E+16   1.41064345E+09   1.76203360E+08   2.37678838E+09   0.094176864     
  42               7.41310241E-02   4.60544162E-03   2245.34289014    5.56225683E-08   1.48564296E+16   1.38103957E+09   2.05846978E+08   2.34580166E+09   0.092310518     
  43               8.70963590E-02   5.19000322E-03   2270.74480756    6.17564563E-08   1.65548457E+16   1.34853756E+09   2.38409773E+08   2.31426048E+09   0.090707936     
  44               1.02329299E-01   5.85027598E-03   2296.09952627    6.85881236E-08   1.84548910E+16   1.31309354E+09   2.73915461E+08   2.28217770E+09   0.08931162      
  45               1.20226443E-01   6.59572010E-03   2321.37120797    7.61953866E-08   2.05799096E+16   1.27468278E+09   3.12387717E+08   2.24956849E+09   0.088074739     
  46               1.41253754E-01   7.43222335E-03   2346.49376606    8.46206935E-08   2.29416784E+16   1.23327808E+09   3.53852500E+08   2.21662342E+09   0.086961241     
  47               1.65958691E-01   8.37067364E-03   2371.44160700    9.39359106E-08   2.55666493E+16   1.18910230E+09   3.98086236E+08   2.18333675E+09   0.085956503     
  48               1.94984460E-01   9.42858574E-03   2396.41621236    1.04290535E-07   2.84977220E+16   1.14246588E+09   4.44813735E+08   2.14953616E+09   0.085088387     
  49               2.29086765E-01   1.06200467E-02   2421.37602241    1.15792667E-07   3.17680112E+16   1.09351215E+09   4.93798548E+08   2.11524915E+09   0.084376285     
  50               2.69153480E-01   1.19605103E-02   2446.39069182    1.28549210E-07   3.54119413E+16   1.04244764E+09   5.44952631E+08   2.08050415E+09   0.084047338     
  51               3.16227766E-01   1.34667676E-02   2471.55440217    1.42668279E-07   3.94656291E+16   9.89343854E+08   5.98181527E+08   2.04533083E+09   0.083617378     
  52               3.71535229E-01   1.51535115E-02   2496.60156073    1.58264988E-07   4.39632597E+16   9.34236186E+08   6.53434541E+08   2.00983272E+09   0.083057333     
  53               4.36515832E-01   1.70409513E-02   2521.63316221    1.75471222E-07   4.89483174E+16   8.77484712E+08   7.10352684E+08   1.97401568E+09   0.082384567     
  54               5.12861384E-01   1.91519402E-02   2546.46703825    1.94474345E-07   5.44754164E+16   8.19603031E+08   7.68405312E+08   1.93787776E+09   0.081806773     
  55               6.02559586E-01   2.15115066E-02   2571.33370680    2.15417680E-07   6.05952001E+16   7.61111572E+08   8.26992494E+08   1.90142155E+09   0.081393502     
  56               7.07945784E-01   2.41468982E-02   2596.08484951    2.38511044E-07   6.73702731E+16   7.02517474E+08   8.85624789E+08   1.86465433E+09   0.081175635     
  57               8.31763771E-01   2.70876552E-02   2620.97095344    2.63905537E-07   7.48574526E+16   6.44281218E+08   9.43866091E+08   1.82758701E+09   0.081092879     
  58               9.77237221E-01   3.03657216E-02   2645.80043464    2.91843471E-07   8.31289628E+16   5.86836553E+08   1.00128654E+09   1.79023373E+09   0.081093262     
  59               1.14815362E+00   3.40156033E-02   2670.79477659    3.22492152E-07   9.22493893E+16   5.30619655E+08   1.05747234E+09   1.75261064E+09   0.08113733      
  60               1.34896288E+00   3.80745071E-02   2695.73278878    3.56132101E-07   1.02301803E+17   4.76103786E+08   1.11199056E+09   1.71473557E+09   0.081255554     
  61               1.58489319E+00   4.25824484E-02   2720.85712616    3.92936508E-07   1.13357623E+17   4.23749038E+08   1.16433342E+09   1.67662711E+09   0.081378844     
  62               1.86208714E+00   4.75824721E-02   2745.89973682    4.33236217E-07   1.25512843E+17   3.74066852E+08   1.21398195E+09   1.63830424E+09   0.081488959     
  63               2.18776162E+00   5.31209323E-02   2771.09869551    4.77220823E-07   1.38847970E+17   3.27606033E+08   1.26038848E+09   1.59978511E+09   0.081568541     
  64               2.57039578E+00   5.92477327E-02   2796.17264346    5.25276782E-07   1.53473569E+17   2.84912199E+08   1.30301054E+09   1.56108707E+09   0.081636676     
  65               3.01995172E+00   6.60166120E-02   2821.37897197    5.77605482E-07   1.69479685E+17   2.46449548E+08   1.34139318E+09   1.52222588E+09   0.081695006     
  66               3.54813389E+00   7.34854140E-02   2846.43493032    6.34654274E-07   1.86993162E+17   2.12550487E+08   1.37526223E+09   1.48321594E+09   0.08179183      
  67               4.16869383E+00   8.17163783E-02   2871.63456757    6.96624686E-07   2.06113186E+17   1.83339569E+08   1.40440690E+09   1.44406960E+09   0.081962044     
  68               4.89778819E+00   9.07763073E-02   2896.71345239    7.64016768E-07   2.26982730E+17   1.58651962E+08   1.42901032E+09   1.40479768E+09   0.08222387      
  69               5.75439937E+00   1.00736937E-01   2921.98439978    8.37027289E-07   2.49710433E+17   1.38071110E+08   1.44950211E+09   1.36540879E+09   0.082543124     
  70               6.76082975E+00   1.11675396E-01   2947.15937083    9.16237551E-07   2.74460417E+17   1.20987257E+08   1.46649774E+09   1.32590942E+09   0.082898067     
  71               7.94328235E+00   1.23674859E-01   2972.54624607    1.00185761E-06   3.01355167E+17   1.06748366E+08   1.48065344E+09   1.28630326E+09   0.083255746     
  72               9.33254301E+00   1.36825156E-01   2997.83481010    1.09457565E-06   3.30585722E+17   9.47002148E+07   1.49264598E+09   1.24659167E+09   0.083590005     
  73               1.09647820E+01   1.51223339E-01   3023.32527911    1.19463021E-06   3.62292871E+17   8.43481236E+07   1.50296467E+09   1.20677401E+09   0.083883821     
  74               1.28824955E+01   1.66971299E-01   3048.68908308    1.30281676E-06   3.96692994E+17   7.52788443E+07   1.51199347E+09   1.16685560E+09   0.084135867     
  75               1.51356125E+01   1.84179704E-01   3074.23051479    1.41938207E-06   4.33941495E+17   6.73019302E+07   1.51992158E+09   1.12683749E+09   0.084371196     
  76               1.77827941E+01   2.02969546E-01   3099.63717016    1.54525680E-06   4.74292065E+17   6.02317270E+07   1.52693683E+09   1.08671572E+09   0.08462461      
  77               2.08929613E+01   2.23473119E-01   3125.24572944    1.68070333E-06   5.17925102E+17   5.39996083E+07   1.53310912E+09   1.04648195E+09   0.084913921     
  78               2.45470892E+01   2.45834657E-01   3150.75332149    1.82680545E-06   5.65138045E+17   4.84587404E+07   1.53858764E+09   1.00612516E+09   0.085262107     
  79               2.88403150E+01   2.70211363E-01   3176.51863626    1.98383277E-06   6.16138066E+17   4.35675553E+07   1.54343178E+09   9.65631864E+08   0.085684835     
  80               3.38844156E+01   2.96774111E-01   3202.24440656    2.15302959E-06   6.71270214E+17   3.92081394E+07   1.54775873E+09   9.24987350E+08   0.086212108     
  81               3.98107171E+01   3.25708475E-01   3228.31344509    2.33464342E-06   7.30767467E+17   3.53457254E+07   1.55159028E+09   8.84175583E+08   0.0868268       
  82               4.67735141E+01   3.57215862E-01   3254.41318752    2.53011777E-06   7.95030672E+17   3.18645092E+07   1.55504375E+09   8.43179890E+08   0.087494238     
  83               5.49540874E+01   3.91515717E-01   3280.91231436    2.73974153E-06   8.64331652E+17   2.87422307E+07   1.55814161E+09   8.01982098E+08   0.088165135     
  84               6.45654229E+01   4.28847663E-01   3307.46464429    2.96525589E-06   9.39147219E+17   2.58974868E+07   1.56096645E+09   7.60562933E+08   0.088801821     
  85               7.58577575E+01   4.69474618E-01   3334.42419196    3.20704908E-06   1.01980493E+18   2.33329091E+07   1.56351453E+09   7.18901206E+08   0.089389513     
  86               8.91250938E+01   5.13684921E-01   3361.43228297    3.46720845E-06   1.10687427E+18   2.09835220E+07   1.56586063E+09   6.76974827E+08   0.089896596     
  87               1.04712855E+02   5.61796159E-01   3388.83159524    3.74627182E-06   1.20075559E+18   1.88539242E+07   1.56799590E+09   6.34760120E+08   0.090308194     
  88               1.23026877E+02   6.14158130E-01   3416.25032518    4.04677061E-06   1.30213604E+18   1.69055986E+07   1.56994155E+09   5.92232743E+08   0.09065442      
  89               1.44543977E+02   6.71156241E-01   3444.05644172    4.36934308E-06   1.41149457E+18   1.51536072E+07   1.57168320E+09   5.49367547E+08   0.090980909     
  90               1.69824365E+02   7.33213451E-01   3471.90020021    4.71691081E-06   1.52963929E+18   1.35679681E+07   1.57325083E+09   5.06139886E+08   0.09135559      
  91               1.99526231E+02   8.00793017E-01   3500.19651693    5.09008966E-06   1.65711897E+18   1.21563206E+07   1.57463629E+09   4.62525427E+08   0.09181244      
  92               2.34422882E+02   8.74400710E-01   3528.60950753    5.49218826E-06   1.79486894E+18   1.08859009E+07   1.57587364E+09   4.18500954E+08   0.092373318     
  93               2.75422870E+02   9.54589296E-01   3557.57321117    5.92381936E-06   1.94351794E+18   9.75920743E+06   1.57696659E+09   3.74043390E+08   0.09304718      
  94               3.23593657E+02   1.04196148E+00   3586.75085094    6.38874558E-06   2.10414806E+18   8.74333954E+06   1.57796405E+09   3.29130492E+08   0.093818981     
  95               3.80189396E+02   1.13717651E+00   3616.57366715    6.88764690E-06   2.27748961E+18   7.83855244E+06   1.57885443E+09   2.83739543E+08   0.094679006     
  96               4.46683592E+02   1.24095492E+00   3646.69337246    7.42486594E-06   2.46480517E+18   7.01792364E+06   1.57966371E+09   2.37847842E+08   0.095584683     
  97               5.24807460E+02   1.35408792E+00   3677.52225502    8.00129039E-06   2.66696547E+18   6.28140283E+06   1.58039096E+09   1.91431345E+08   0.096495031     
  98               6.16595002E+02   1.47744496E+00   3708.68139059    8.62211952E-06   2.88547705E+18   5.60914370E+06   1.58105581E+09   1.44465279E+08   0.097359825     
  99               7.24435960E+02   1.61198598E+00   3740.55940627    9.28864669E-06   3.12140804E+18   5.00359328E+06   1.58165505E+09   9.69230898E+07   0.098152036     
  100              8.51138038E+02   1.75877050E+00   3772.75496272    1.00071542E-05   3.37657509E+18   4.45255185E+06   1.58221017E+09   4.87775342E+07   0.098867703     
  101              1.00000000E+03   1.91897087E+00   3805.66204056    1.07793452E-05   3.65227949E+18   4.20579711E+06   1.58246639E+09   0.00000000E+00   0.099514095     
