# ATMO pressure-temperature profile
# Effective temperature = 350.0K
# log(g) = 3.5cm/s^2
# M/H = 0.0
# Optical depth grid in band 17 (1.20-1.33microns)
# All parameters in cgs units
#
# Model Level      Optical Depth    Pressure         Temperature      Density          Number Density   Rad Flux         Conv Flux        Radial Extension Adiabatic Gradient
#                                   [Ba]             [K]              [g/cm^3]         [/cm^3]          [ergs/s/cm^2/sr] [ergs/s/cm^2/sr] [cm]             [K/Ba]          
  1                5.00000000E-05   1.00000000E-05   45.35319104      6.21441397E-09   1.59704808E+15   8.50825820E+05   0.00000000E+00   8.75114541E+07   0.34582131      
  2                5.91534807E-05   1.54145563E-04   61.20569600      7.09818343E-08   1.82416882E+16   8.50825820E+05   0.00000000E+00   8.53411150E+07   0.31479403      
  3                6.99826855E-05   3.24287082E-04   65.86777923      1.38760117E-07   3.56600927E+16   8.50825820E+05   0.00000000E+00   8.47989839E+07   0.31482263      
  4                8.27943887E-05   5.25124486E-04   73.62660259      2.01018273E-07   5.16598747E+16   8.50825865E+05   0.00000000E+00   8.44187117E+07   0.31484422      
  5                9.79515255E-05   7.57872250E-04   77.95571406      2.74003481E-07   7.04164118E+16   8.50825805E+05   0.00000000E+00   8.41051019E+07   0.31486078      
  6                1.15883473E-04   1.02460141E-03   82.73328033      3.49046055E-07   8.97016733E+16   8.50825800E+05   0.00000000E+00   8.38323605E+07   0.31487453      
  7                1.37098216E-04   1.32902197E-03   87.32467941      4.28946560E-07   1.10235379E+17   8.50825783E+05   0.00000000E+00   8.35835716E+07   0.31488664      
  8                1.62196734E-04   1.67818880E-03   92.57396252      5.10928342E-07   1.31303954E+17   8.50825706E+05   0.00000000E+00   8.33477131E+07   0.31489775      
  9                1.91890027E-04   2.07822586E-03   99.88400093      5.86414019E-07   1.50703262E+17   8.50824829E+05   9.70341866E-01   8.31166035E+07   0.31490816      
  10               2.27019260E-04   2.53204880E-03   105.37590386     6.77226090E-07   1.74043015E+17   8.50822403E+05   3.44140622E+00   8.28888746E+07   0.31532641      
  11               2.68579588E-04   2.96673136E-03   111.74827985     7.48343062E-07   1.92292885E+17   8.50817257E+05   6.72344957E+00   8.26957789E+07   0.31893856      
  12               3.17748350E-04   3.29476243E-03   114.60738924     8.10272629E-07   2.08227135E+17   8.50810802E+05   1.64224242E+01   8.25625651E+07   0.32092417      
  13               3.75918418E-04   3.52312380E-03   118.08582600     8.41528775E-07   2.16100600E+17   8.50805116E+05   1.95439130E+01   8.24750992E+07   0.3218655       
  14               4.44737657E-04   3.65854685E-03   118.53662014     8.70552402E-07   2.23553730E+17   8.50801645E+05   2.36497594E+01   8.24250657E+07   0.32252957      
  15               5.26155608E-04   3.81833541E-03   121.19060841     8.88677014E-07   2.28208044E+17   8.50800071E+05   2.67556018E+01   8.23676175E+07   0.32311924      
  16               6.22478712E-04   4.00680966E-03   122.07101981     9.25816629E-07   2.37745321E+17   8.50799897E+05   2.54585041E+01   8.23019096E+07   0.32374451      
  17               7.36435649E-04   4.22903761E-03   125.26585793     9.52242735E-07   2.44531420E+17   8.50800973E+05   2.58978994E+01   8.22270647E+07   0.32433444      
  18               8.71254639E-04   4.49095979E-03   126.67189745     9.99994769E-07   2.56793916E+17   8.50803280E+05   2.21934928E+01   8.21421858E+07   0.3248877       
  19               1.03075489E-03   4.79954289E-03   130.52329515     1.03717177E-06   2.66340792E+17   8.50806800E+05   2.00469706E+01   8.20463676E+07   0.32536289      
  20               1.21945479E-03   5.16297714E-03   132.55149061     1.09863751E-06   2.82124905E+17   8.50811553E+05   1.40652506E+01   8.19387029E+07   0.32573903      
  21               1.44269991E-03   5.59086197E-03   137.17585419     1.14958195E-06   2.95207194E+17   8.50817180E+05   9.53891080E+00   8.18183021E+07   0.32595386      
  22               1.70681442E-03   6.09445645E-03   139.91511888     1.22859621E-06   3.15497681E+17   8.50823065E+05   2.77271995E+00   8.16843016E+07   0.32600068      
  23               2.01928028E-03   6.68694460E-03   145.41991715     1.29700809E-06   3.33065517E+17   8.50825895E+05   0.00000000E+00   8.15358777E+07   0.32589612      
  24               2.38894914E-03   7.38399146E-03   147.85408392     1.40862925E-06   3.61729310E+17   8.50825856E+05   0.00000000E+00   8.13728009E+07   0.32566658      
  25               2.82629313E-03   8.20415143E-03   152.45952984     1.51781206E-06   3.89766879E+17   8.50826335E+05   0.00000000E+00   8.11954263E+07   0.32534503      
  26               3.34370152E-03   9.16885817E-03   154.90497188     1.66950903E-06   4.28721968E+17   8.50826391E+05   0.00000000E+00   8.10037838E+07   0.32492263      
  27               3.95583167E-03   1.03033191E-02   159.30470771     1.82426395E-06   4.68462013E+17   8.50827074E+05   0.00000000E+00   8.07982177E+07   0.32439775      
  28               4.68002425E-03   1.16369389E-02   161.85920722     2.02787114E-06   5.20747491E+17   8.50827282E+05   0.00000000E+00   8.05789534E+07   0.32396579      
  29               5.53679448E-03   1.32042219E-02   166.32615214     2.23919688E-06   5.75013596E+17   8.50828616E+05   0.00000000E+00   8.03463686E+07   0.32347207      
  30               6.55041330E-03   1.50454195E-02   169.11402599     2.50936707E-06   6.44392551E+17   8.50829545E+05   0.00000000E+00   8.01007439E+07   0.32286859      
  31               7.74959494E-03   1.72074769E-02   173.80784872     2.79248643E-06   7.17089974E+17   8.50832023E+05   0.00000000E+00   7.98424642E+07   0.32205424      
  32               9.16831029E-03   1.97448397E-02   176.94285958     3.14747322E-06   8.08251299E+17   8.50834495E+05   0.00000000E+00   7.95718155E+07   0.32125557      
  33               1.08467493E-02   2.27205885E-02   181.99925440     3.52131810E-06   9.04223536E+17   8.50839182E+05   0.00000000E+00   7.92891552E+07   0.32025036      
  34               1.28324595E-02   2.62073575E-02   185.49361779     3.98512523E-06   1.02334036E+18   8.50846033E+05   0.00000000E+00   7.89948150E+07   0.31931918      
  35               1.51816929E-02   3.02880620E-02   190.91319221     4.47550282E-06   1.14910942E+18   8.50854226E+05   0.00000000E+00   7.86892503E+07   0.31829446      
  36               1.79609996E-02   3.50521035E-02   195.54344135     5.05661439E-06   1.29836461E+18   8.50881329E+05   0.00000000E+00   7.83725674E+07   0.31721495      
  37               2.12491128E-02   4.05957819E-02   202.96679427     5.64303617E-06   1.44871100E+18   8.51001186E+05   0.00000000E+00   7.80443753E+07   0.31602019      
  38               2.51391797E-02   4.69733639E-02   212.56595160     6.23841547E-06   1.60060364E+18   8.50195802E+05   6.55692517E+02   7.77044078E+07   0.31413601      
  39               2.97413996E-02   5.39367110E-02   221.91700873     6.89120720E-06   1.76043385E+18   8.47800919E+05   2.95415211E+03   7.73683404E+07   0.31228556      
  40               3.51861462E-02   6.14328725E-02   231.14821709     7.53549372E-06   1.92502385E+18   8.45886672E+05   4.83216602E+03   7.70393862E+07   0.31073406      
  41               4.16276604E-02   7.01649466E-02   240.81736728     8.26102302E-06   2.11036820E+18   8.45496311E+05   5.21427552E+03   7.66894051E+07   0.30921074      
  42               4.92484201E-02   8.03335572E-02   251.13814702     9.06955022E-06   2.31691527E+18   8.45357681E+05   5.35119276E+03   7.63179111E+07   0.3078711       
  43               5.82643093E-02   9.21714088E-02   261.91682620     9.97778780E-06   2.54893444E+18   8.44747101E+05   5.96164749E+03   7.59243946E+07   0.30657112      
  44               6.89307339E-02   1.05947171E-01   273.37603380     1.09882964E-05   2.80707984E+18   8.43050075E+05   7.65836331E+03   7.55083563E+07   0.30544819      
  45               8.15498567E-02   1.21967965E-01   285.31282738     1.21206502E-05   3.09635195E+18   8.39694705E+05   1.10130401E+04   7.50693650E+07   0.30435315      
  46               9.64791575E-02   1.40592821E-01   297.95986031     1.33784814E-05   3.41767862E+18   8.33923356E+05   1.67834339E+04   7.46068493E+07   0.30342918      
  47               1.14141560E-01   1.62244656E-01   311.11718909     1.47859023E-05   3.77721961E+18   8.24759216E+05   2.59463999E+04   7.41200304E+07   0.30264187      
  48               1.35037411E-01   1.87414908E-01   325.04261862     1.63480239E-05   4.17628054E+18   8.11168252E+05   3.95359505E+04   7.36080763E+07   0.30206327      
  49               1.59758657E-01   2.16669745E-01   339.52525957     1.80937100E-05   4.62223500E+18   7.92729221E+05   5.79735767E+04   7.30701767E+07   0.30156214      
  50               1.89005613E-01   2.50655499E-01   354.82980831     2.00289684E-05   5.11661782E+18   7.70145504E+05   8.05562116E+04   7.25056249E+07   0.30111861      
  51               2.23606798E-01   2.90130306E-01   370.72599765     2.21891942E-05   5.66847054E+18   7.44764739E+05   1.05936285E+05   7.19134909E+07   0.30070409      
  52               2.64542408E-01   3.35967077E-01   387.50404403     2.45822620E-05   6.27980736E+18   7.17673505E+05   1.33026995E+05   7.12928616E+07   0.30041244      
  53               3.12972084E-01   3.89165943E-01   404.91971055     2.72501719E-05   6.96132242E+18   6.89596335E+05   1.61103648E+05   7.06428698E+07   0.30021349      
  54               3.70267763E-01   4.50866883E-01   423.28196391     3.02010401E-05   7.71515069E+18   6.61543118E+05   1.89156389E+05   6.99627331E+07   0.30006076      
  55               4.38052539E-01   5.22387215E-01   442.31815097     3.34858313E-05   8.55428307E+18   6.35056141E+05   2.15642875E+05   6.92515391E+07   0.29989602      
  56               5.18246648E-01   6.05274242E-01   462.36863217     3.71165088E-05   9.48177552E+18   6.10435681E+05   2.40262537E+05   6.85080536E+07   0.29974208      
  57               6.13121862E-01   7.01293652E-01   483.14189055     4.11562135E-05   1.05135904E+19   5.86125474E+05   2.64571449E+05   6.77311648E+07   0.29961095      
  58               7.25365844E-01   8.12593697E-01   505.02822435     4.56240341E-05   1.16542314E+19   5.63095456E+05   2.87600324E+05   6.69189119E+07   0.29951276      
  59               8.58158289E-01   9.41795643E-01   527.75210218     5.06013538E-05   1.29256545E+19   5.43938923E+05   3.06756894E+05   6.60685743E+07   0.29939268      
  60               1.01526100E+00   1.09219810E+00   551.78087446     5.61266801E-05   1.43370769E+19   5.22325989E+05   3.28371152E+05   6.51761125E+07   0.29923114      
  61               1.20112443E+00   1.26814694E+00   576.89271941     6.23315095E-05   1.59221005E+19   4.95025458E+05   3.55675114E+05   6.42354180E+07   0.29902679      
  62               1.42101382E+00   1.47541183E+00   603.70339567     6.92979568E-05   1.77017207E+19   4.61826487E+05   3.88879905E+05   6.32381480E+07   0.2988237       
  63               1.68115827E+00   1.72159007E+00   632.07331693     7.72306641E-05   1.97282305E+19   4.26169105E+05   4.24545292E+05   6.21740150E+07   0.29859791      
  64               1.98892727E+00   2.01685912E+00   662.76940617     8.62852008E-05   2.20413886E+19   3.93888494E+05   4.56834058E+05   6.10301980E+07   0.29831543      
  65               2.35303941E+00   2.37377844E+00   695.64239692     9.67548006E-05   2.47161020E+19   3.68636691E+05   4.82090356E+05   5.97949125E+07   0.29787691      
  66               2.78380943E+00   2.80581331E+00   731.26273600     1.08792452E-04   2.77914476E+19   3.50470818E+05   5.00254866E+05   5.84632788E+07   0.29735316      
  67               3.29344035E+00   3.32541633E+00   768.98999737     1.22612384E-04   3.13221218E+19   3.39066273E+05   5.11652568E+05   5.70406013E+07   0.29673542      
  68               3.89636920E+00   3.94406081E+00   809.01481960     1.38227652E-04   3.53112397E+19   3.35826888E+05   5.14880354E+05   5.55378803E+07   0.29603375      
  69               4.60967600E+00   4.67341557E+00   850.49420748     1.55801083E-04   3.98005323E+19   3.41600466E+05   5.09089510E+05   5.39662237E+07   0.29513251      
  70               5.45356761E+00   5.52209105E+00   893.49743690     1.75232664E-04   4.47647426E+19   3.56641379E+05   4.94027025E+05   5.23419864E+07   0.29410948      
  71               6.45195012E+00   6.49521274E+00   936.95165975     1.96552820E-04   5.02113658E+19   3.80301931E+05   4.70344830E+05   5.06838492E+07   0.29291258      
  72               7.63310614E+00   7.59754775E+00   981.03017025     2.19580627E-04   5.60940651E+19   4.11050165E+05   4.39577185E+05   4.90059050E+07   0.29168305      
  73               9.03049593E+00   8.83951891E+00   1025.07304943    2.44501095E-04   6.24596654E+19   4.46706979E+05   4.03902311E+05   4.73108841E+07   0.29031666      
  74               1.06837053E+01   1.02322364E+01   1069.59558631    2.71247753E-04   6.92909958E+19   4.85111244E+05   3.65483265E+05   4.56007087E+07   0.28895073      
  75               1.26395671E+01   1.17867846E+01   1113.94601194    3.00016071E-04   7.66402731E+19   5.25458593E+05   3.25126051E+05   4.38774537E+07   0.28744641      
  76               1.49534878E+01   1.35158618E+01   1158.68196243    3.30742692E-04   8.44900052E+19   5.65068475E+05   2.85512139E+05   4.21416603E+07   0.28596446      
  77               1.76910170E+01   1.54369620E+01   1203.28820600    3.63746866E-04   9.29218855E+19   6.03297481E+05   2.47283381E+05   4.03901740E+07   0.28434925      
  78               2.09297047E+01   1.75775287E+01   1248.56900695    3.99159862E-04   1.01969692E+20   6.39452371E+05   2.11131333E+05   3.86137040E+07   0.28279659      
  79               2.47612977E+01   1.99671742E+01   1294.11708328    4.37458384E-04   1.11755492E+20   6.71947721E+05   1.78640822E+05   3.68053038E+07   0.28112643      
  80               2.92943389E+01   2.26356501E+01   1340.57201300    4.78724259E-04   1.22300621E+20   6.98284468E+05   1.52310354E+05   3.49613247E+07   0.2795412       
  81               3.46572422E+01   2.56121501E+01   1387.39532964    5.23376123E-04   1.33712389E+20   7.17880482E+05   1.32730432E+05   3.30808792E+07   0.27786354      
  82               4.10019301E+01   2.89344042E+01   1435.21319355    5.71541817E-04   1.46023907E+20   7.32066551E+05   1.18566206E+05   3.11599686E+07   0.27625897      
  83               4.85081376E+01   3.26504524E+01   1483.64455261    6.23861408E-04   1.59398847E+20   7.42405212E+05   1.08239667E+05   2.91919968E+07   0.2744864       
  84               5.73885036E+01   3.68149955E+01   1533.31192277    6.80613405E-04   1.73908207E+20   7.48209923E+05   1.02434348E+05   2.71709378E+07   0.27282356      
  85               6.78945948E+01   4.14618704E+01   1583.57255435    7.42157753E-04   1.89642976E+20   7.44908719E+05   1.05718119E+05   2.51033281E+07   0.27105748      
  86               8.03240320E+01   4.65941042E+01   1634.41142831    8.08055018E-04   2.06488284E+20   7.28923429E+05   1.21652874E+05   2.30075543E+07   0.26942711      
  87               9.50289215E+01   5.21719486E+01   1684.70403277    8.77802528E-04   2.24305169E+20   6.97803882E+05   1.52694683E+05   2.09131685E+07   0.2677112       
  88               1.12425830E+02   5.81260776E+01   1734.09305699    9.50464871E-04   2.42786457E+20   6.54681077E+05   1.95702506E+05   1.88516921E+07   0.26615289      
  89               1.33007583E+02   6.43969229E+01   1781.79390909    1.02479895E-03   2.61778205E+20   6.01994288E+05   2.48140666E+05   1.68424031E+07   0.26453314      
  90               1.57357229E+02   7.08662684E+01   1827.42850800    1.09969524E-03   2.80882711E+20   5.39474485E+05   3.10177919E+05   1.49152686E+07   0.26310938      
  91               1.86164557E+02   7.72505574E+01   1869.18690039    1.17224441E-03   2.99346878E+20   4.89350828E+05   3.59948263E+05   1.31370923E+07   0.26165284      
  92               2.20245630E+02   8.40921422E+01   1911.10857737    1.24868249E-03   3.18710149E+20   4.37135723E+05   4.11892092E+05   1.13488140E+07   0.26037174      
  93               2.60565913E+02   9.04821362E+01   1947.73640775    1.31955870E-03   3.36479417E+20   3.66842951E+05   4.81557538E+05   9.77452085E+06   0.25907341      
  94               3.08267614E+02   9.61276145E+01   1978.49819560    1.38005295E-03   3.51915460E+20   3.25074088E+05   5.23157042E+05   8.45158422E+06   0.25803535      
  95               3.64702046E+02   1.02361738E+02   2010.73290714    1.44594908E-03   3.68730536E+20   3.08087611E+05   5.40553589E+05   7.05601444E+06   0.25685882      
  96               4.31467909E+02   1.09223549E+02   2044.48130455    1.51734366E-03   3.86953678E+20   2.74096306E+05   5.74689991E+05   5.59107117E+06   0.25565282      
  97               5.10456573E+02   1.15160491E+02   2072.21632214    1.57874992E-03   4.02526298E+20   2.26975556E+05   6.21853475E+05   4.37802284E+06   0.25468078      
  98               6.03905660E+02   1.20031272E+02   2094.20644207    1.62820799E-03   4.15145902E+20   2.00797778E+05   6.48623006E+05   3.41732430E+06   0.25378817      
  99               7.14462436E+02   1.25524424E+02   2118.03459422    1.68352308E-03   4.29260598E+20   1.92050745E+05   6.58222213E+05   2.36812651E+06   0.25291563      
  100              8.45258798E+02   1.31698072E+02   2143.91817599    1.74494840E-03   4.44935491E+20   1.83068588E+05   6.68092247E+05   1.22908037E+06   0.25200586      
  101              1.00000000E+03   1.38611069E+02   2171.63517210    1.81296840E-03   4.62313829E+20   1.78116306E+05   6.73510961E+05   0.00000000E+00   0.25108167      
