# ATMO pressure-temperature profile
# Effective temperature = 2700.0K
# log(g) = 3.5cm/s^2
# M/H = 0.0
# Optical depth grid in band 17 (1.20-1.33microns)
# All parameters in cgs units
#
# Model Level      Optical Depth    Pressure         Temperature      Density          Number Density   Rad Flux         Conv Flux        Radial Extension Adiabatic Gradient
#                                   [Ba]             [K]              [g/cm^3]         [/cm^3]          [ergs/s/cm^2/sr] [ergs/s/cm^2/sr] [cm]             [K/Ba]          
  1                3.00000000E-06   1.00000000E-05   1171.72049787    2.41727382E-10   6.18161299E+13   3.01294361E+09   0.00000000E+00   4.48254606E+08   0.28289414      
  2                3.65048058E-06   1.22429930E-05   1360.21767474    2.55780048E-10   6.51936097E+13   3.01294359E+09   0.00000000E+00   4.45398591E+08   0.2771582       
  3                4.44200282E-06   1.39568790E-05   1344.95824277    2.94921715E-10   7.51632156E+13   3.01294358E+09   0.00000000E+00   4.43425275E+08   0.27708366      
  4                5.40514834E-06   1.59306876E-05   1428.33287882    3.16807008E-10   8.07850370E+13   3.01294356E+09   0.00000000E+00   4.41383134E+08   0.27499653      
  5                6.57712968E-06   1.82189552E-05   1403.93884062    3.68706651E-10   9.39942135E+13   3.01294353E+09   0.00000000E+00   4.39265872E+08   0.27521573      
  6                8.00322805E-06   2.08908663E-05   1480.57815918    4.00558790E-10   1.02200013E+14   3.01294347E+09   0.00000000E+00   4.37067062E+08   0.27341957      
  7                9.73854285E-06   2.39950834E-05   1458.02712794    4.67386920E-10   1.19201714E+14   3.01294334E+09   0.00000000E+00   4.34798304E+08   0.27350396      
  8                1.18501205E-05   2.75242283E-05   1544.63969524    5.05259843E-10   1.29066579E+14   3.01294314E+09   0.00000000E+00   4.32501361E+08   0.27166448      
  9                1.44195449E-05   3.11802612E-05   1559.20549315    5.66871032E-10   1.44844574E+14   3.01294312E+09   0.00000000E+00   4.30341072E+08   0.27117049      
  10               1.75460896E-05   3.54797959E-05   1584.48552699    6.34320368E-10   1.62187984E+14   3.01294308E+09   0.00000000E+00   4.28073652E+08   0.2706934       
  11               2.13505531E-05   4.05460521E-05   1596.41026332    7.19323275E-10   1.83962754E+14   3.01294304E+09   0.00000000E+00   4.25701889E+08   0.27029323      
  12               2.59799264E-05   4.65215165E-05   1620.53285017    8.12435986E-10   2.07932255E+14   3.01294299E+09   0.00000000E+00   4.23230041E+08   0.26986561      
  13               3.16130723E-05   5.35698792E-05   1632.07079440    9.28709379E-10   2.37742877E+14   3.01294293E+09   0.00000000E+00   4.20664056E+08   0.26949544      
  14               3.84676354E-05   6.18857246E-05   1655.88596487    1.05654574E-09   2.70698528E+14   3.01294286E+09   0.00000000E+00   4.18009272E+08   0.26909709      
  15               4.68084520E-05   7.16944192E-05   1667.45501248    1.21523738E-09   3.11427575E+14   3.01294278E+09   0.00000000E+00   4.15271881E+08   0.26874697      
  16               5.69577817E-05   8.32703934E-05   1691.20097769    1.39030382E-09   3.56632760E+14   3.01294268E+09   0.00000000E+00   4.12455579E+08   0.26837233      
  17               6.93077586E-05   9.69354726E-05   1702.97407354    1.60688686E-09   4.12287849E+14   3.01294256E+09   0.00000000E+00   4.09564467E+08   0.26803841      
  18               8.43355422E-05   1.13074334E-04   1726.80975280    1.84657147E-09   4.74291547E+14   3.01294243E+09   0.00000000E+00   4.06601652E+08   0.15121079      
  19               1.02621753E-04   1.32134478E-04   1738.93420450    2.14223619E-09   5.50375184E+14   3.01294227E+09   0.00000000E+00   4.03571183E+08   0.14783477      
  20               1.24872905E-04   1.54650087E-04   1762.97287908    2.47014851E-09   6.35375370E+14   3.01294209E+09   0.00000000E+00   4.00475931E+08   0.14377987      
  21               1.51948705E-04   1.81241164E-04   1775.59108859    2.87347029E-09   7.39332376E+14   3.01294188E+09   0.00000000E+00   3.97319680E+08   0.14108211      
  22               1.84895266E-04   2.12646699E-04   1799.93867853    3.32140048E-09   8.55710330E+14   3.01294163E+09   0.00000000E+00   3.94104908E+08   0.1376628       
  23               2.24985526E-04   2.49722504E-04   1813.17196907    3.87073697E-09   9.97572630E+14   3.01294134E+09   0.00000000E+00   3.90835015E+08   0.13502805      
  24               2.73768430E-04   2.93485707E-04   1837.95480303    4.48115644E-09   1.15658610E+15   3.01294101E+09   0.00000000E+00   3.87512050E+08   0.13156294      
  25               3.33128779E-04   3.45109667E-04   1851.98067116    5.22736725E-09   1.34972880E+15   3.01294062E+09   0.00000000E+00   3.84139058E+08   0.12896038      
  26               4.05360046E-04   4.05984199E-04   1877.37710886    6.05626943E-09   1.56633067E+15   3.01294018E+09   0.00000000E+00   3.80717682E+08   0.12582049      
  27               4.93252992E-04   4.77703996E-04   1892.44667107    7.06576597E-09   1.82835727E+15   3.01293969E+09   0.00000000E+00   3.77250651E+08   0.12361992      
  28               6.00203489E-04   5.62149353E-04   1918.72037743    8.18556466E-09   2.12210011E+15   3.01293916E+09   0.00000000E+00   3.73739235E+08   0.12072619      
  29               7.30343727E-04   6.61461628E-04   1935.19965206    9.54303634E-09   2.47573820E+15   3.01293859E+09   0.00000000E+00   3.70185896E+08   0.11834743      
  30               8.88701864E-04   7.78146252E-04   1962.79254087    1.10442445E-08   2.87152546E+15   3.01293802E+09   0.00000000E+00   3.66591592E+08   0.11528529      
  31               1.08139630E-03   9.15011736E-04   1981.41846590    1.28516363E-08   3.34484731E+15   3.01293749E+09   0.00000000E+00   3.62958728E+08   0.11273449      
  32               1.31587206E-03   1.07525296E-03   2011.68694646    1.48330944E-08   3.87147171E+15   3.01293707E+09   0.00000000E+00   3.59288470E+08   0.10963164      
  33               1.60118847E-03   1.26096017E-03   2046.33967393    1.70349301E-08   4.46323221E+15   3.01245965E+09   4.69191190E+05   3.55593840E+08   0.10455759      
  34               1.94836913E-03   1.47587775E-03   2079.50316826    1.95434611E-08   5.14063346E+15   3.01128676E+09   1.63297099E+06   3.51868833E+08   0.10029537      
  35               2.37082789E-03   1.72510633E-03   2111.85863601    2.24020562E-08   5.91666344E+15   3.00932766E+09   3.58263692E+06   3.48101983E+08   0.096673942     
  36               2.88488706E-03   2.01453833E-03   2143.25370795    2.56705547E-08   6.80812923E+15   3.00645555E+09   6.44653849E+06   3.44285104E+08   0.093762151     
  37               3.51040806E-03   2.35096196E-03   2174.37186864    2.94011752E-08   7.83136779E+15   3.00250663E+09   1.03885283E+07   3.40412442E+08   0.091276591     
  38               4.27155881E-03   2.74221302E-03   2204.82538165    3.36728543E-08   9.00850716E+15   2.99729100E+09   1.55981524E+07   3.36480067E+08   0.089169241     
  39               5.19774750E-03   3.19731919E-03   2235.26010875    3.85507930E-08   1.03605728E+16   2.99058764E+09   2.22963682E+07   3.32485425E+08   0.087276226     
  40               6.32475876E-03   3.72667579E-03   2265.14747015    4.41388994E-08   1.19165618E+16   2.98215860E+09   3.07270531E+07   3.28427153E+08   0.085735535     
  41               7.69613634E-03   4.34218864E-03   2295.23457493    5.05143110E-08   1.37027410E+16   2.97172792E+09   4.11636267E+07   3.24304851E+08   0.084434142     
  42               9.36486541E-03   5.05746307E-03   2324.88938583    5.78105992E-08   1.57563734E+16   2.95899446E+09   5.39043291E+07   3.20119027E+08   0.083372856     
  43               1.13954198E-02   5.88334152E-03   2354.71790784    6.60804783E-08   1.80971844E+16   2.94357896E+09   6.93275796E+07   3.15893245E+08   0.082395464     
  44               1.38662528E-02   6.83646346E-03   2383.99290248    7.54780420E-08   2.07707596E+16   2.92518439E+09   8.77381743E+07   3.11625294E+08   0.081577922     
  45               1.68728289E-02   7.94145518E-03   2413.72036639    8.61629924E-08   2.38308193E+16   2.90354914E+09   1.09405602E+08   3.07292113E+08   0.080901716     
  46               2.05313114E-02   9.22066541E-03   2443.08945874    9.83519161E-08   2.73368666E+16   2.87831506E+09   1.34670881E+08   3.02897636E+08   0.080417451     
  47               2.49830512E-02   1.06991470E-02   2472.98345704    1.12160637E-07   3.13367377E+16   2.84909800E+09   1.63803129E+08   2.98445974E+08   0.080157604     
  48               3.04000477E-02   1.24003904E-02   2502.52635971    1.27809625E-07   3.58907502E+16   2.81547205E+09   1.97585702E+08   2.93952512E+08   0.079976893     
  49               3.69915946E-02   1.43554334E-02   2532.54306764    1.45434247E-07   4.10568201E+16   2.77698923E+09   2.36218630E+08   2.89417708E+08   0.079496801     
  50               4.50123658E-02   1.66002737E-02   2561.96725420    1.65405322E-07   4.69318327E+16   2.73333216E+09   2.79992859E+08   2.84840584E+08   0.07894542      
  51               5.47722558E-02   1.91753444E-02   2591.82085745    1.87875937E-07   5.35875662E+16   2.68424515E+09   3.29078154E+08   2.80221086E+08   0.078565837     
  52               6.66483519E-02   2.21255344E-02   2621.18343906    2.13281198E-07   6.11395436E+16   2.62953101E+09   3.83737645E+08   2.75560374E+08   0.078522725     
  53               8.10995048E-02   2.55003016E-02   2651.21440034    2.41749446E-07   6.96668713E+16   2.56893000E+09   4.44276663E+08   2.70860351E+08   0.078662773     
  54               9.86840557E-02   2.93539349E-02   2680.84458272    2.73815482E-07   7.93086448E+16   2.50222366E+09   5.10996542E+08   2.66123689E+08   0.078952431     
  55               1.20081410E-01   3.37459281E-02   2711.22808259    3.09589235E-07   9.01532032E+16   2.42912091E+09   5.84186541E+08   2.61353290E+08   0.079294401     
  56               1.46118284E-01   3.87412197E-02   2741.19068585    3.49727352E-07   1.02366978E+17   2.34934015E+09   6.64073852E+08   2.56552456E+08   0.079617055     
  57               1.77800653E-01   4.44109102E-02   2771.85876622    3.94326402E-07   1.16049805E+17   2.26256409E+09   7.50936108E+08   2.51724300E+08   0.079824856     
  58               2.16352610E-01   5.08327730E-02   2801.96189227    4.44212840E-07   1.31403646E+17   2.16861881E+09   8.44925992E+08   2.46871969E+08   0.079990349     
  59               2.63263667E-01   5.80920929E-02   2832.71453296    4.99440622E-07   1.48538848E+17   2.06738545E+09   9.46232053E+08   2.41998116E+08   0.080104082     
  60               3.20346302E-01   6.62821032E-02   2862.81670494    5.61028750E-07   1.67698268E+17   1.95893800E+09   1.05475288E+09   2.37105265E+08   0.080280999     
  61               3.89805984E-01   7.55048685E-02   2893.60278684    6.28945725E-07   1.89000033E+17   1.84342031E+09   1.17024949E+09   2.32195337E+08   0.080560817     
  62               4.74326391E-01   8.58714933E-02   2923.77893786    7.04409105E-07   2.12730775E+17   1.72122972E+09   1.29239296E+09   2.27270071E+08   0.080996546     
  63               5.77173093E-01   9.75032967E-02   2954.75321802    7.87266561E-07   2.39014322E+17   1.59293627E+09   1.42065631E+09   2.22330533E+08   0.081489679     
  64               7.02319722E-01   1.10532753E-01   2985.13310548    8.79029377E-07   2.68196511E+17   1.45962550E+09   1.55395800E+09   2.17377461E+08   0.081993173     
  65               8.54601502E-01   1.25105852E-01   3016.32841540    9.79459548E-07   3.00417232E+17   1.32285070E+09   1.69081797E+09   2.12410745E+08   0.082461379     
  66               1.03990206E+00   1.41379347E-01   3046.88251898    1.09041531E-06   3.36090397E+17   1.18478389E+09   1.82894539E+09   2.07431056E+08   0.082892757     
  67               1.26538076E+00   1.59523985E-01   3078.23179756    1.21150851E-06   3.75362178E+17   1.04811546E+09   1.96563262E+09   2.02438753E+08   0.083245461     
  68               1.53974930E+00   1.79730149E-01   3108.86829759    1.34506198E-06   4.18740002E+17   9.16209098E+08   2.09750604E+09   1.97433115E+08   0.083596361     
  69               1.87360830E+00   2.02210842E-01   3140.33191330    1.49052755E-06   4.66395901E+17   7.92550518E+08   2.22110578E+09   1.92412236E+08   0.083997531     
  70               2.27985690E+00   2.27202518E-01   3171.13229376    1.65072767E-06   5.18948929E+17   6.80279934E+08   2.33332326E+09   1.87373785E+08   0.084511242     
  71               2.77419111E+00   2.54968230E-01   3202.89243443    1.82487282E-06   5.76593253E+17   5.81495094E+08   2.43207290E+09   1.82314773E+08   0.08513757      
  72               3.37571026E+00   2.85798785E-01   3234.09321176    2.01638242E-06   6.40079155E+17   4.96893888E+08   2.51662734E+09   1.77232151E+08   0.08589315      
  73               4.10765492E+00   3.20017220E-01   3266.40388192    2.22418259E-06   7.09625648E+17   4.25856360E+08   2.58762290E+09   1.72122404E+08   0.086748459     
  74               4.99830483E+00   3.57980792E-01   3298.25385527    2.45242612E-06   7.86142881E+17   3.66464804E+08   2.64698042E+09   1.66982046E+08   0.087617301     
  75               6.08207157E+00   4.00088994E-01   3331.28447863    2.69985923E-06   8.69902789E+17   3.16663832E+08   2.69675446E+09   1.61807059E+08   0.088410718     
  76               7.40082804E+00   4.46788314E-01   3363.83202066    2.97169499E-06   9.62040476E+17   2.74164327E+08   2.73922168E+09   1.56593341E+08   0.089069869     
  77               9.00552635E+00   4.98582877E-01   3397.53257147    3.26657284E-06   1.06291753E+18   2.37757887E+08   2.77559644E+09   1.51336232E+08   0.089603773     
  78               1.09581663E+01   5.56038405E-01   3430.69985342    3.59092740E-06   1.17394542E+18   2.06018277E+08   2.80730907E+09   1.46031154E+08   0.090064269     
  79               1.33341911E+01   6.19792675E-01   3465.04393787    3.94311337E-06   1.29557790E+18   1.78697384E+08   2.83461374E+09   1.40673222E+08   0.090512352     
  80               1.62254019E+01   6.90558515E-01   3498.89060520    4.33086812E-06   1.42953884E+18   1.54820402E+08   2.85848124E+09   1.35257882E+08   0.091038158     
  81               1.97435049E+01   7.69135039E-01   3534.05066580    4.75200741E-06   1.57636094E+18   1.34515366E+08   2.87879305E+09   1.29780443E+08   0.091739055     
  82               2.40244270E+01   8.56408929E-01   3568.88753084    5.21554076E-06   1.73809762E+18   1.16846269E+08   2.89647080E+09   1.24236670E+08   0.092629661     
  83               2.92335681E+01   9.53370995E-01   3605.25732970    5.71864272E-06   1.91536482E+18   1.01882946E+08   2.91144248E+09   1.18622095E+08   0.093684405     
  84               3.55721908E+01   1.06112247E+00   3641.46982328    6.27207716E-06   2.11064229E+18   8.87020096E+07   2.92462776E+09   1.12932505E+08   0.094800979     
  85               4.32851972E+01   1.18090184E+00   3679.34077872    6.87270747E-06   2.32471451E+18   7.74309668E+07   2.93590045E+09   1.07163189E+08   0.095974719     
  86               5.26705906E+01   1.31409358E+00   3717.14437537    7.53347360E-06   2.56060568E+18   6.73500736E+07   2.94598004E+09   1.01309544E+08   0.097089617     
  87               6.40909893E+01   1.46226377E+00   3756.64552124    8.25118683E-06   2.81936526E+18   5.86273540E+07   2.95470026E+09   9.53663823E+07   0.098110575     
  88               7.79876373E+01   1.62717403E+00   3796.05721957    9.04176173E-06   3.10475328E+18   5.07404908E+07   2.96256178E+09   8.93286482E+07   0.098932511     
  89               9.48974517E+01   1.81082614E+00   3837.09844416    9.90232085E-06   3.41821718E+18   4.39664100E+07   2.96932071E+09   8.31908382E+07   0.099694843     
  90               1.15473768E+02   2.01546980E+00   3878.05752374    1.08516280E-05   3.76433173E+18   3.79673122E+07   2.97531793E+09   7.69478391E+07   0.10051131      
  91               1.40511583E+02   2.24363974E+00   3920.78267917    1.18858398E-05   4.14482493E+18   3.29075537E+07   2.98039176E+09   7.05944060E+07   0.10148694      
  92               1.70978268E+02   2.49816541E+00   3963.61114567    1.30266839E-05   4.56515985E+18   2.84496788E+07   2.98487653E+09   6.41257996E+07   0.10262435      
  93               2.08050949E+02   2.78222348E+00   4008.43342051    1.42693901E-05   5.02739695E+18   2.47007726E+07   2.98864860E+09   5.75370920E+07   0.10398167      
  94               2.53161982E+02   3.09935341E+00   4053.60042199    1.56391256E-05   5.53803893E+18   2.13779470E+07   2.99197895E+09   5.08237327E+07   0.10542729      
  95               3.08054300E+02   3.45352663E+00   4100.93154889    1.71310097E-05   6.09966703E+18   1.85495354E+07   2.99480971E+09   4.39809696E+07   0.10690717      
  96               3.74848746E+02   3.84917528E+00   4148.69163468    1.87754138E-05   6.72020268E+18   1.60257530E+07   2.99733343E+09   3.70044983E+07   0.10829543      
  97               4.56126023E+02   4.29126449E+00   4198.62591108    2.05679150E-05   7.40293507E+18   1.38755591E+07   2.99948864E+09   2.98901659E+07   0.10966164      
  98               5.55026396E+02   4.78530813E+00   4249.01397798    2.25440312E-05   8.15732165E+18   1.19692516E+07   3.00139188E+09   2.26346666E+07   0.11098107      
  99               6.75371026E+02   5.33742477E+00   4301.60980660    2.46987388E-05   8.98724524E+18   1.03488767E+07   3.00302022E+09   1.52353396E+07   0.11232224      
  100              8.21809604E+02   5.95435167E+00   4354.70274554    2.70729788E-05   9.90379871E+18   8.92738559E+06   3.00446489E+09   7.69064629E+06   0.11377763      
  101              1.00000000E+03   6.64346566E+00   4410.16408510    2.96585914E-05   1.09110309E+19   8.35039412E+06   3.00508323E+09   0.00000000E+00   0.11548778      
