# ATMO pressure-temperature profile
# Effective temperature = 450.0K
# log(g) = 3.5cm/s^2
# M/H = 0.0
# Optical depth grid in band 17 (1.20-1.33microns)
# All parameters in cgs units
#
# Model Level      Optical Depth    Pressure         Temperature      Density          Number Density   Rad Flux         Conv Flux        Radial Extension Adiabatic Gradient
#                                   [Ba]             [K]              [g/cm^3]         [/cm^3]          [ergs/s/cm^2/sr] [ergs/s/cm^2/sr] [cm]             [K/Ba]          
  1                5.00000000E-05   1.00000000E-05   66.13137818      4.26189861E-09   1.09526262E+15   2.32505716E+06   0.00000000E+00   9.60448536E+07   0.34612403      
  2                5.91534807E-05   1.47488874E-04   76.82573039      5.41082202E-08   1.39052372E+16   2.32505716E+06   0.00000000E+00   9.31817678E+07   0.31479383      
  3                6.99826855E-05   2.97853183E-04   92.66023869      9.06097153E-08   2.32827712E+16   2.32505717E+06   0.00000000E+00   9.25026370E+07   0.31483381      
  4                8.27943887E-05   3.80418230E-04   97.90742599      1.09541142E-07   2.81430737E+16   2.32505718E+06   0.00000000E+00   9.22405467E+07   0.31485814      
  5                9.79515255E-05   4.43280063E-04   110.65499528     1.12954721E-07   2.90156975E+16   2.32505717E+06   0.00000000E+00   9.20618251E+07   0.31487645      
  6                1.15883473E-04   4.98007797E-04   113.87503767     1.23330486E-07   3.16762272E+16   2.32505657E+06   0.00000000E+00   9.19151856E+07   0.31489168      
  7                1.37098216E-04   5.49360663E-04   119.49623842     1.29670793E-07   3.32988445E+16   2.32505629E+06   3.59764598E+03   9.17867637E+07   0.31490512      
  8                1.62196734E-04   6.00420451E-04   120.78409573     1.40211801E-07   3.60057253E+16   2.32505638E+06   0.00000000E+00   9.16670164E+07   0.31583699      
  9                1.91890027E-04   6.59652703E-04   126.55093234     1.47024206E-07   3.77551184E+16   2.32505670E+06   0.00000000E+00   9.15365581E+07   0.32005108      
  10               2.27019260E-04   7.29360404E-04   128.43296770     1.60178606E-07   4.11331059E+16   2.32505707E+06   0.00000000E+00   9.13929153E+07   0.32133912      
  11               2.68579588E-04   8.11405724E-04   134.66024514     1.69956397E-07   4.36439959E+16   2.32505727E+06   0.00000000E+00   9.12356681E+07   0.32336891      
  12               3.17748350E-04   9.07999113E-04   136.38344555     1.87785743E-07   4.82224871E+16   2.32505721E+06   0.00000000E+00   9.10646873E+07   0.32374537      
  13               3.75918418E-04   1.02178811E-03   141.86564080     2.03152655E-07   5.21686334E+16   2.32505722E+06   0.00000000E+00   9.08804584E+07   0.32481993      
  14               4.44737657E-04   1.15582569E-03   143.72817589     2.26824167E-07   5.82473629E+16   2.32505717E+06   0.00000000E+00   9.06830023E+07   0.32495319      
  15               5.26155608E-04   1.31372899E-03   149.09026451     2.48539569E-07   6.38237528E+16   2.32505718E+06   0.00000000E+00   9.04726977E+07   0.32579388      
  16               6.22478712E-04   1.49972031E-03   151.11564354     2.79923893E-07   7.18830816E+16   2.32505708E+06   0.00000000E+00   9.02497130E+07   0.32592833      
  17               7.36435649E-04   1.71881830E-03   156.27897008     3.10219519E-07   7.96627452E+16   2.32505707E+06   0.00000000E+00   9.00145961E+07   0.32601095      
  18               8.71254639E-04   1.97690206E-03   158.19619816     3.52475668E-07   9.05138321E+16   2.32505691E+06   0.00000000E+00   8.97677867E+07   0.3260065       
  19               1.03075489E-03   2.28092075E-03   163.14661903     3.94342940E-07   1.01264671E+17   2.32505680E+06   0.00000000E+00   8.95099178E+07   0.32588763      
  20               1.21945479E-03   2.63894643E-03   165.24862538     4.50438888E-07   1.15669420E+17   2.32505672E+06   0.00000000E+00   8.92412847E+07   0.32566807      
  21               1.44269991E-03   3.06045830E-03   170.33284064     5.06800475E-07   1.30140933E+17   2.32505663E+06   0.00000000E+00   8.89623039E+07   0.32522376      
  22               1.70681442E-03   3.55661051E-03   172.30954979     5.82209553E-07   1.49503995E+17   2.32505642E+06   0.00000000E+00   8.86734637E+07   0.32468617      
  23               2.01928028E-03   4.14034375E-03   177.49590374     6.57988684E-07   1.68956111E+17   2.32505604E+06   0.00000000E+00   8.83752220E+07   0.32396269      
  24               2.38894914E-03   4.82654594E-03   179.43813735     7.58756503E-07   1.94826277E+17   2.32505585E+06   0.00000000E+00   8.80681118E+07   0.3232421       
  25               2.82629313E-03   5.63201108E-03   184.84294718     8.59605182E-07   2.20691932E+17   2.32505582E+06   0.00000000E+00   8.77527165E+07   0.32205214      
  26               3.34370152E-03   6.57507079E-03   187.39440082     9.89865726E-07   2.54138032E+17   2.32505603E+06   0.00000000E+00   8.74294131E+07   0.32115958      
  27               3.95583167E-03   7.67002951E-03   192.61828304     1.12455693E-06   2.88419996E+17   2.32505387E+06   0.00000000E+00   8.71011410E+07   0.31965941      
  28               4.68002425E-03   8.91221861E-03   196.20111903     1.28410616E-06   3.29010828E+17   2.32505391E+06   0.00000000E+00   8.67741698E+07   0.31868053      
  29               5.53679448E-03   1.03191080E-02   207.48978938     1.40735048E-06   3.60222858E+17   2.32505318E+06   0.00000000E+00   8.64431368E+07   0.31732821      
  30               6.55041330E-03   1.19124381E-02   213.04240878     1.58374302E-06   4.05005044E+17   2.32505215E+06   0.00000000E+00   8.61055631E+07   0.31646237      
  31               7.74959494E-03   1.37198944E-02   224.86945584     1.72990466E-06   4.41922526E+17   2.32505122E+06   0.00000000E+00   8.57601646E+07   0.31526203      
  32               9.16831029E-03   1.57854075E-02   230.50886003     1.94164596E-06   4.96014091E+17   2.32505039E+06   0.00000000E+00   8.54037694E+07   0.31446209      
  33               1.08467493E-02   1.81972534E-02   242.05999786     2.13149680E-06   5.44513507E+17   2.32504945E+06   0.00000000E+00   8.50288636E+07   0.31319097      
  34               1.28324595E-02   2.10137391E-02   247.15864208     2.41062359E-06   6.15819411E+17   2.32504831E+06   0.00000000E+00   8.46359469E+07   0.312331        
  35               1.51816929E-02   2.43028213E-02   258.58168217     2.66477660E-06   6.80745497E+17   2.32504674E+06   0.00000000E+00   8.42255731E+07   0.31112735      
  36               1.79609996E-02   2.81423354E-02   264.02789399     3.02212338E-06   7.72033530E+17   2.32504495E+06   0.00000000E+00   8.37977248E+07   0.31037521      
  37               2.12491128E-02   3.26238303E-02   275.79341574     3.35392174E-06   8.56794945E+17   2.32504296E+06   0.00000000E+00   8.33525912E+07   0.30925202      
  38               2.51391797E-02   3.78520275E-02   281.87755092     3.80741771E-06   9.72645310E+17   2.32504112E+06   0.00000000E+00   8.28899331E+07   0.30855822      
  39               2.97413996E-02   4.39492786E-02   294.38457422     4.23290547E-06   1.08134068E+18   2.32503912E+06   0.00000000E+00   8.24096475E+07   0.30744392      
  40               3.51861462E-02   5.10553635E-02   301.63973555     4.79904354E-06   1.22596666E+18   2.32503733E+06   0.00000000E+00   8.19110688E+07   0.30649883      
  41               4.16276604E-02   5.93323160E-02   315.65793744     5.32937717E-06   1.36144602E+18   2.32503555E+06   0.00000000E+00   8.13935157E+07   0.30525939      
  42               4.92484201E-02   6.89640199E-02   324.98263378     6.01678214E-06   1.53705092E+18   2.32503597E+06   0.00000000E+00   8.08556390E+07   0.30417892      
  43               5.82643093E-02   8.01619976E-02   341.64677760     6.65262522E-06   1.69948385E+18   2.32500753E+06   1.23193912E+01   8.02959317E+07   0.30322149      
  44               6.89307339E-02   9.31555928E-02   356.00553567     7.41915419E-06   1.89530026E+18   2.31831453E+06   6.61807693E+03   7.97110665E+07   0.30259443      
  45               8.15498567E-02   1.08234159E-01   374.14041992     8.20223642E-06   2.09534508E+18   2.30419675E+06   2.07123915E+04   7.90998192E+07   0.30202286      
  46               9.64791575E-02   1.25730000E-01   389.75317542     9.14644134E-06   2.33655008E+18   2.28202217E+06   4.28717071E+04   7.84610517E+07   0.30156326      
  47               1.14141560E-01   1.46027466E-01   409.50547917     1.01106255E-05   2.58285884E+18   2.24964631E+06   7.52426820E+04   7.77935890E+07   0.30103756      
  48               1.35037411E-01   1.69574790E-01   426.48334217     1.12735983E-05   2.87995071E+18   2.20801161E+06   1.16869122E+05   7.70961254E+07   0.30066083      
  49               1.59758657E-01   1.96931009E-01   448.03349830     1.24627304E-05   3.18368036E+18   2.15970193E+06   1.65179309E+05   7.63662971E+07   0.30037192      
  50               1.89005613E-01   2.28800043E-01   466.63800664     1.39024549E-05   3.55141833E+18   2.11070075E+06   2.14175022E+05   7.56006667E+07   0.30020515      
  51               2.23606798E-01   2.66123903E-01   490.42153737     1.53863304E-05   3.93043112E+18   2.06341218E+06   2.61468850E+05   7.47936614E+07   0.30001331      
  52               2.64542408E-01   3.10181861E-01   511.24759525     1.72032389E-05   4.39451508E+18   2.02135326E+06   3.03525804E+05   7.39373039E+07   0.29984253      
  53               3.12972084E-01   3.62811444E-01   538.18153227     1.91152724E-05   4.88290220E+18   1.98763168E+06   3.37257095E+05   7.30195239E+07   0.29968972      
  54               3.70267763E-01   4.26526180E-01   562.45584985     2.15021143E-05   5.49266478E+18   1.96566440E+06   3.59226232E+05   7.20256961E+07   0.29958726      
  55               4.38052539E-01   5.04630515E-01   594.09875480     2.40842633E-05   6.15234536E+18   1.95070135E+06   3.74202907E+05   7.09403448E+07   0.29946355      
  56               5.18246648E-01   6.01063459E-01   623.30708971     2.73420583E-05   6.98464116E+18   1.93325699E+06   3.91650918E+05   6.97519919E+07   0.29931441      
  57               6.13121862E-01   7.20261837E-01   660.85907360     3.09021667E-05   7.89418658E+18   1.90058220E+06   4.24337882E+05   6.84552232E+07   0.29911182      
  58               7.25365844E-01   8.66618421E-01   695.39925894     3.53343028E-05   9.02650303E+18   1.84923388E+06   4.75686469E+05   6.70546001E+07   0.29892237      
  59               8.58158289E-01   1.04381284E+00   738.37307716     4.00817527E-05   1.02393555E+19   1.77579951E+06   5.49128133E+05   6.55656502E+07   0.29869123      
  60               1.01526100E+00   1.25422999E+00   776.58643257     4.57915639E-05   1.16980432E+19   1.70191969E+06   6.23008803E+05   6.40124901E+07   0.29843606      
  61               1.20112443E+00   1.50000585E+00   822.75688525     5.16914082E-05   1.32052695E+19   1.64140171E+06   6.83536984E+05   6.24149994E+07   0.29803064      
  62               1.42101382E+00   1.78301914E+00   862.42896023     5.86177836E-05   1.49747132E+19   1.61613932E+06   7.08805915E+05   6.07891371E+07   0.29755055      
  63               1.68115827E+00   2.10505881E+00   910.04544205     6.55841973E-05   1.67543272E+19   1.62510458E+06   6.99854560E+05   5.91466720E+07   0.29696701      
  64               1.98892727E+00   2.46803151E+00   949.84786004     7.36709878E-05   1.88201245E+19   1.67306238E+06   6.51909174E+05   5.74953675E+07   0.2963048       
  65               2.35303941E+00   2.87542002E+00   998.14623846     8.16785017E-05   2.08656999E+19   1.74905202E+06   5.75934862E+05   5.58346017E+07   0.29540216      
  66               2.78380943E+00   3.33193650E+00   1037.90807888    9.10202166E-05   2.32521793E+19   1.86042244E+06   4.64579308E+05   5.41602912E+07   0.29435073      
  67               3.29344035E+00   3.84401306E+00   1087.19444321    1.00247437E-04   2.56096398E+19   1.99098777E+06   3.34028142E+05   5.24650419E+07   0.29303839      
  68               3.89636920E+00   4.42089713E+00   1127.58217422    1.11159914E-04   2.83980191E+19   2.15878593E+06   1.66245079E+05   5.07368851E+07   0.29167724      
  69               4.60967600E+00   5.07447102E+00   1178.92269058    1.22032467E-04   3.11767822E+19   2.31452620E+06   1.05181593E+04   4.89623288E+07   0.29007799      
  70               5.45356761E+00   5.81966061E+00   1221.18041169    1.35103953E-04   3.45178445E+19   2.32511644E+06   0.00000000E+00   4.71270486E+07   0.28851694      
  71               6.45195012E+00   6.67856199E+00   1265.46431097    1.49609501E-04   3.82260039E+19   2.32511177E+06   0.00000000E+00   4.52165894E+07   0.2867186       
  72               7.63310614E+00   7.67415536E+00   1304.34582782    1.66777908E-04   4.26151158E+19   2.32510692E+06   0.00000000E+00   4.32234387E+07   0.28501433      
  73               9.03049593E+00   8.83275198E+00   1347.34695576    1.85818981E-04   4.74834679E+19   2.32509977E+06   0.00000000E+00   4.11421870E+07   0.2831007       
  74               1.06837053E+01   1.01805183E+01   1386.79320865    2.08068020E-04   5.31721255E+19   2.32509446E+06   0.00000000E+00   3.89746205E+07   0.2814443       
  75               1.26395671E+01   1.17456839E+01   1431.24720601    2.32586407E-04   5.94414639E+19   2.32508672E+06   0.00000000E+00   3.67246811E+07   0.27949561      
  76               1.49534878E+01   1.35543040E+01   1473.23026594    2.60737804E-04   6.66396071E+19   2.32507932E+06   0.00000000E+00   3.44021696E+07   0.27793561      
  77               1.76910170E+01   1.56265089E+01   1520.79431072    2.91185482E-04   7.44247399E+19   2.32506934E+06   0.00000000E+00   3.20239547E+07   0.27605731      
  78               2.09297047E+01   1.79775022E+01   1566.33450997    3.25270547E-04   8.31324680E+19   2.32505873E+06   0.00000000E+00   2.96081873E+07   0.27452951      
  79               2.47612977E+01   2.06017515E+01   1617.72298772    3.60932105E-04   9.22413873E+19   2.32504583E+06   0.00000000E+00   2.71861475E+07   0.2726704       
  80               2.92943389E+01   2.34553658E+01   1666.97646813    3.98820019E-04   1.01915111E+20   2.32502842E+06   0.00000000E+00   2.48076337E+07   0.27111643      
  81               3.46572422E+01   2.64605986E+01   1722.00025524    4.35614973E-04   1.11299264E+20   2.31246653E+06   1.24786632E+04   2.25275459E+07   0.26922968      
  82               4.10019301E+01   2.95142937E+01   1773.35609638    4.71954153E-04   1.20548631E+20   2.07618934E+06   2.48828775E+05   2.03977427E+07   0.26760592      
  83               4.85081376E+01   3.25155755E+01   1819.62445279    5.06905355E-04   1.29430170E+20   1.82204540E+06   5.03267787E+05   1.84572835E+07   0.2656256       
  84               5.73885036E+01   3.53691149E+01   1860.68122240    5.39413176E-04   1.37682282E+20   1.60258576E+06   7.23228980E+05   1.67315660E+07   0.26393576      
  85               6.78945948E+01   3.81730477E+01   1898.31807546    5.70818795E-04   1.45651074E+20   1.40558953E+06   9.20891818E+05   1.51336038E+07   0.2620686       
  86               8.03240320E+01   4.07777063E+01   1931.37887893    5.99515494E-04   1.52925939E+20   1.20073065E+06   1.12663740E+06   1.37255749E+07   0.26055731      
  87               9.50289215E+01   4.30297208E+01   1958.48855377    6.23981316E-04   1.59137793E+20   1.03343879E+06   1.29487651E+06   1.25612019E+07   0.25898081      
  88               1.12425830E+02   4.51379263E+01   1982.86628053    6.46528551E-04   1.64882292E+20   9.24140070E+05   1.40497045E+06   1.15115692E+07   0.25759318      
  89               1.33007583E+02   4.72207815E+01   2005.94359641    6.68605215E-04   1.70506246E+20   8.41618548E+05   1.48819190E+06   1.05097614E+07   0.25635822      
  90               1.57357229E+02   4.93211659E+01   2028.43511975    6.90628215E-04   1.76115692E+20   7.76694930E+05   1.55372264E+06   9.53230873E+06   0.25515725      
  91               1.86164557E+02   5.15389581E+01   2051.23464520    7.13641295E-04   1.81989416E+20   7.16321377E+05   1.61407528E+06   8.53332390E+06   0.2539588       
  92               2.20245630E+02   5.37709733E+01   2073.42483406    7.36689281E-04   1.87838859E+20   6.39274153E+05   1.68960812E+06   7.55984669E+06   0.25288162      
  93               2.60565913E+02   5.57342212E+01   2092.23215902    7.56836513E-04   1.92946944E+20   5.63746383E+05   1.76276559E+06   6.72838412E+06   0.25183566      
  94               3.08267614E+02   5.75719458E+01   2109.39793212    7.75546417E-04   1.97687055E+20   5.09371628E+05   1.81549724E+06   5.96983057E+06   0.25089183      
  95               3.64702046E+02   5.93622050E+01   2125.59899268    7.93687489E-04   2.02280738E+20   4.67223444E+05   1.85646356E+06   5.24822813E+06   0.24992968      
  96               4.31467909E+02   6.11541374E+01   2141.46224001    8.11716553E-04   2.06843207E+20   4.35757598E+05   1.88708605E+06   4.54222700E+06   0.24897005      
  97               5.10456573E+02   6.30540545E+01   2157.76979986    8.30590003E-04   2.11657541E+20   4.15444543E+05   1.90707800E+06   3.81051661E+06   0.24803627      
  98               6.03905660E+02   6.52211635E+01   2175.93640780    8.51940804E-04   2.17104179E+20   4.00917222E+05   1.92163393E+06   2.99584454E+06   0.24731911      
  99               7.14462436E+02   6.76875577E+01   2195.94532370    8.76073608E-04   2.23261152E+20   3.86092157E+05   1.93649898E+06   2.09305268E+06   0.24673988      
  100              8.45258798E+02   7.04974000E+01   2218.10557654    9.03298147E-04   2.30206046E+20   3.70691297E+05   1.95194174E+06   1.09421479E+06   0.24613937      
  101              1.00000000E+03   7.36753576E+01   2242.24348077    9.33814037E-04   2.37993624E+20   3.62056665E+05   1.96055771E+06   0.00000000E+00   0.24547025      
