# ATMO pressure-temperature profile
# Effective temperature = 1200.0K
# log(g) = 2.5cm/s^2
# M/H = 0.0
# Optical depth grid in band 17 (1.20-1.33microns)
# All parameters in cgs units
#
# Model Level      Optical Depth    Pressure         Temperature      Density          Number Density   Rad Flux         Conv Flux        Radial Extension Adiabatic Gradient
#                                   [Ba]             [K]              [g/cm^3]         [/cm^3]          [ergs/s/cm^2/sr] [ergs/s/cm^2/sr] [cm]             [K/Ba]          
  1                1.00000000E-04   1.00000000E-05   495.67155391     5.71987306E-10   1.46127463E+14   1.17564397E+08   0.00000000E+00   1.77147305E+09   0.29745366      
  2                1.17489755E-04   1.51627981E-05   565.35223424     7.60269407E-10   1.94261205E+14   1.17564386E+08   0.00000000E+00   1.74670395E+09   0.29783149      
  3                1.38038426E-04   2.20130673E-05   595.93341382     1.04681437E-09   2.67552285E+14   1.17564375E+08   0.00000000E+00   1.72241466E+09   0.29791548      
  4                1.62181010E-04   3.14453377E-05   612.39616342     1.45501676E-09   3.71920092E+14   1.17564361E+08   0.00000000E+00   1.69824565E+09   0.29795673      
  5                1.90546072E-04   4.36155827E-05   628.69147454     1.96566824E-09   5.02492921E+14   1.17564345E+08   0.00000000E+00   1.67548835E+09   0.29794535      
  6                2.23872114E-04   5.86701246E-05   638.93266297     2.60172524E-09   6.65101244E+14   1.17564328E+08   0.00000000E+00   1.65443689E+09   0.29790482      
  7                2.63026799E-04   7.68887236E-05   651.50734847     3.34365833E-09   8.54809170E+14   1.17564308E+08   0.00000000E+00   1.63490357E+09   0.29786683      
  8                3.09029543E-04   9.87069625E-05   659.51159706     4.24037773E-09   1.08405469E+15   1.17564284E+08   0.00000000E+00   1.61658015E+09   0.29777955      
  9                3.63078055E-04   1.24653519E-04   670.55866701     5.26661917E-09   1.34646045E+15   1.17564257E+08   0.00000000E+00   1.59921762E+09   0.29772938      
  10               4.26579519E-04   1.55421718E-04   677.59140795     6.49845905E-09   1.66138259E+15   1.17564226E+08   0.00000000E+00   1.58258614E+09   0.29784997      
  11               5.01187234E-04   1.91807763E-04   687.97128004     7.89859530E-09   2.01939703E+15   1.17564189E+08   0.00000000E+00   1.56652575E+09   0.29779984      
  12               5.88843655E-04   2.34806746E-04   694.58380338     9.57729062E-09   2.44856568E+15   1.17564146E+08   0.00000000E+00   1.55089205E+09   0.29764888      
  13               6.91830971E-04   2.85549479E-04   704.70141374     1.14794681E-08   2.93495920E+15   1.17564095E+08   0.00000000E+00   1.53558848E+09   0.29759796      
  14               8.12830516E-04   3.45428486E-04   711.18019681     1.37602606E-08   3.51806884E+15   1.17564036E+08   0.00000000E+00   1.52052240E+09   0.29743593      
  15               9.54992586E-04   4.16049552E-04   721.31697025     1.63401731E-08   4.17777213E+15   1.17563966E+08   0.00000000E+00   1.50562901E+09   0.29738023      
  16               1.12201845E-03   4.99383556E-04   727.89323691     1.94359797E-08   4.96926769E+15   1.17563884E+08   0.00000000E+00   1.49084165E+09   0.2972033       
  17               1.31825674E-03   5.97678642E-04   738.20718333     2.29361035E-08   5.86428825E+15   1.17563787E+08   0.00000000E+00   1.47611955E+09   0.29714043      
  18               1.54881662E-03   7.13705164E-04   745.03614748     2.71377089E-08   6.93852783E+15   1.17563674E+08   0.00000000E+00   1.46141300E+09   0.2969468       
  19               1.81970086E-03   8.50667242E-04   755.72065967     3.18875382E-08   8.15312787E+15   1.17563540E+08   0.00000000E+00   1.44668974E+09   0.29687376      
  20               2.13796209E-03   1.01253742E-03   762.97434909     3.75945106E-08   9.61229265E+15   1.17563381E+08   0.00000000E+00   1.43190567E+09   0.29665747      
  21               2.51188643E-03   1.20391144E-03   774.14125509     4.40544234E-08   1.12641952E+16   1.17563194E+08   0.00000000E+00   1.41703512E+09   0.29657059      
  22               2.95120923E-03   1.43047577E-03   781.93807545     5.18230844E-08   1.32505524E+16   1.17562971E+08   0.00000000E+00   1.40204051E+09   0.29632956      
  23               3.46736850E-03   1.69876204E-03   793.71975242     6.06281236E-08   1.55021238E+16   1.17562706E+08   0.00000000E+00   1.38690488E+09   0.296225        
  24               4.07380278E-03   2.01682585E-03   802.17183220     7.12211374E-08   1.82107080E+16   1.17562391E+08   0.00000000E+00   1.37159849E+09   0.29595247      
  25               4.78630092E-03   2.39383078E-03   814.65695218     8.32383854E-08   2.12835721E+16   1.17562015E+08   0.00000000E+00   1.35611454E+09   0.2958244       
  26               5.62341325E-03   2.84113876E-03   823.88998282     9.76847274E-08   2.49775055E+16   1.17561565E+08   0.00000000E+00   1.34042784E+09   0.29551622      
  27               6.60693448E-03   3.37172596E-03   837.25738581     1.14076332E-07   2.91688376E+16   1.17561023E+08   0.00000000E+00   1.32453335E+09   0.29536097      
  28               7.76247117E-03   4.00162985E-03   847.45205653     1.33758729E-07   3.42016939E+16   1.17560377E+08   0.00000000E+00   1.30840776E+09   0.29501054      
  29               9.12010839E-03   4.74867559E-03   861.75207113     1.56092856E-07   3.99131501E+16   1.17559604E+08   0.00000000E+00   1.29205861E+09   0.29482066      
  30               1.07151931E-02   5.63447819E-03   872.89587497     1.82844521E-07   4.67538200E+16   1.17558679E+08   0.00000000E+00   1.27547784E+09   0.29442196      
  31               1.25892541E-02   6.68297745E-03   888.20605858     2.13127875E-07   5.44981932E+16   1.17557560E+08   0.00000000E+00   1.25868177E+09   0.29419406      
  32               1.47910839E-02   7.92355391E-03   900.52566586     2.49232963E-07   6.37308575E+16   1.17556221E+08   0.00000000E+00   1.24166016E+09   0.29374055      
  33               1.73780083E-02   9.38803983E-03   917.02590075     2.89980625E-07   7.41513668E+16   1.17554619E+08   0.00000000E+00   1.22443360E+09   0.29346499      
  34               2.04173794E-02   1.11149045E-02   930.64516864     3.38294366E-07   8.65062421E+16   1.17552717E+08   0.00000000E+00   1.20699842E+09   0.29295311      
  35               2.39883292E-02   1.31475267E-02   948.62178609     3.92571712E-07   1.00386845E+17   1.17550470E+08   0.00000000E+00   1.18936038E+09   0.29287412      
  36               2.81838293E-02   1.55382834E-02   963.92533820     4.56588708E-07   1.16757687E+17   1.17547870E+08   0.00000000E+00   1.17150317E+09   0.29234882      
  37               3.31131121E-02   1.83425299E-02   983.61822782     5.28194576E-07   1.35069877E+17   1.17544910E+08   0.00000000E+00   1.15344569E+09   0.29193246      
  38               3.89045145E-02   2.16245103E-02   1000.75261508    6.12038226E-07   1.56511188E+17   1.17541580E+08   0.00000000E+00   1.13519204E+09   0.29121342      
  39               4.57088190E-02   2.54506537E-02   1022.42344852    7.05056269E-07   1.80299275E+17   1.17537880E+08   0.00000000E+00   1.11677327E+09   0.29065502      
  40               5.37031796E-02   2.98961638E-02   1041.76411079    8.12830086E-07   2.07860473E+17   1.17533942E+08   0.00000000E+00   1.09820335E+09   0.28975084      
  41               6.30957344E-02   3.50360005E-02   1065.73584544    9.31142456E-07   2.38117213E+17   1.17530068E+08   0.00000000E+00   1.07952057E+09   0.28906619      
  42               7.41310241E-02   4.09508376E-02   1087.51280741    1.06654227E-06   2.72743399E+17   1.17526697E+08   0.00000000E+00   1.06075136E+09   0.28805966      
  43               8.70963590E-02   4.77180995E-02   1114.16443813    1.21305844E-06   3.10212780E+17   1.17523751E+08   0.00000000E+00   1.04193727E+09   0.28735275      
  44               1.02329299E-01   5.54196716E-02   1138.73114418    1.37844526E-06   3.52507684E+17   1.17521543E+08   0.00000000E+00   1.02310321E+09   0.28636445      
  45               1.20226443E-01   6.41537572E-02   1168.09644592    1.55556798E-06   3.97804080E+17   1.17519506E+08   0.00000000E+00   1.00424162E+09   0.28562276      
  46               1.41253754E-01   7.40299290E-02   1195.24532649    1.75426483E-06   4.48617404E+17   1.17516306E+08   0.00000000E+00   9.85335747E+08   0.28453032      
  47               1.65958691E-01   8.51590998E-02   1227.28106220    1.96531048E-06   5.02588872E+17   1.17512743E+08   0.00000000E+00   9.66381795E+08   0.28364452      
  48               1.94984460E-01   9.76536949E-02   1257.32492349    2.19980883E-06   5.62557599E+17   1.17508638E+08   0.00000000E+00   9.47379141E+08   0.28234059      
  49               2.29086765E-01   1.11622306E-01   1292.58017126    2.44589146E-06   6.25488519E+17   1.17504216E+08   0.00000000E+00   9.28335835E+08   0.28119579      
  50               2.69153480E-01   1.27166296E-01   1325.91330132    2.71645172E-06   6.94676705E+17   1.17500232E+08   0.00000000E+00   9.09266161E+08   0.2795515       
  51               3.16227766E-01   1.44353201E-01   1364.91684347    2.99551145E-06   7.66030504E+17   1.17497344E+08   0.00000000E+00   8.90213215E+08   0.27840162      
  52               3.71535229E-01   1.63178062E-01   1402.72290314    3.29503506E-06   8.42588878E+17   1.17496586E+08   0.00000000E+00   8.71264973E+08   0.27711155      
  53               4.36515832E-01   1.83467070E-01   1448.92368151    3.58698959E-06   9.17145955E+17   1.16829378E+08   7.18514702E+05   8.52602342E+08   0.27578226      
  54               5.12861384E-01   2.04551334E-01   1492.92866895    3.88290403E-06   9.92405351E+17   1.14141500E+08   3.41938060E+06   8.34735985E+08   0.27372164      
  55               6.02559586E-01   2.26229933E-01   1534.46176366    4.17853711E-06   1.06787356E+18   1.10281150E+08   7.29721043E+06   8.17716594E+08   0.27165657      
  56               7.07945784E-01   2.48145935E-01   1573.39613828    4.47153814E-06   1.14233879E+18   1.05330008E+08   1.22913061E+07   8.01682862E+08   0.26967119      
  57               8.31763771E-01   2.68901434E-01   1607.68027962    4.74479562E-06   1.21148843E+18   9.95229566E+07   1.81176365E+07   7.87433016E+08   0.26784376      
  58               9.77237221E-01   2.87378487E-01   1636.51191530    4.98722093E-06   1.27192330E+18   9.37556156E+07   2.38621263E+07   7.75420593E+08   0.2662879       
  59               1.14815362E+00   3.03579618E-01   1660.48125277    5.19224575E-06   1.32423321E+18   8.90187801E+07   2.85818943E+07   7.65352700E+08   0.26481496      
  60               1.34896288E+00   3.21693776E-01   1686.15859905    5.41794584E-06   1.38187919E+18   8.46459318E+07   3.29433673E+07   7.54552708E+08   0.26338004      
  61               1.58489319E+00   3.37401487E-01   1707.35029434    5.61715280E-06   1.43136436E+18   8.09566603E+07   3.65682597E+07   7.45547369E+08   0.262201        
  62               1.86208714E+00   3.49754142E-01   1723.56121589    5.76793659E-06   1.46981269E+18   7.81397977E+07   3.93356373E+07   7.38684716E+08   0.26122306      
  63               2.18776162E+00   3.63664982E-01   1741.13028529    5.93670369E-06   1.51285064E+18   7.53039582E+07   4.21860139E+07   7.31167265E+08   0.26020997      
  64               2.57039578E+00   3.79273570E-01   1760.30744012    6.12389758E-06   1.56059386E+18   7.23227867E+07   4.51816513E+07   7.22981163E+08   0.25909558      
  65               3.01995172E+00   3.96719325E-01   1780.84414909    6.33151435E-06   1.61355317E+18   6.91309009E+07   4.83882948E+07   7.14121397E+08   0.25791475      
  66               3.54813389E+00   4.16134992E-01   1802.95005078    6.55969810E-06   1.67176943E+18   6.56849668E+07   5.18500579E+07   7.04594381E+08   0.25668107      
  67               4.16869383E+00   4.37633684E-01   1826.30737298    6.81004268E-06   1.73565222E+18   6.19483644E+07   5.56040712E+07   6.94422632E+08   0.25535718      
  68               4.89778819E+00   4.61285021E-01   1851.03137300    7.08180269E-06   1.80501748E+18   5.79018915E+07   5.96605050E+07   6.83652789E+08   0.25384635      
  69               5.75439937E+00   4.86977302E-01   1876.54394622    7.37410641E-06   1.87964494E+18   5.37524858E+07   6.38001299E+07   6.72409932E+08   0.25213531      
  70               6.76082975E+00   5.14896241E-01   1903.09482305    7.68745926E-06   1.95967988E+18   5.00051253E+07   6.75413955E+07   6.60683834E+08   0.25022043      
  71               7.94328235E+00   5.45762719E-01   1930.85967136    8.03032987E-06   2.04728825E+18   4.66645065E+07   7.08916566E+07   6.48260739E+08   0.24812298      
  72               9.33254301E+00   5.79820536E-01   1960.03818390    8.40343075E-06   2.14266809E+18   4.34561233E+07   7.41094455E+07   6.35150130E+08   0.24577082      
  73               1.09647820E+01   6.17334991E-01   1990.26623446    8.80996569E-06   2.24665071E+18   4.03233174E+07   7.72502885E+07   6.21362664E+08   0.24312913      
  74               1.28824955E+01   6.58596566E-01   2021.73131679    9.25091226E-06   2.35951022E+18   3.72625597E+07   8.03180397E+07   6.06909334E+08   0.24014596      
  75               1.51356125E+01   7.03925089E-01   2054.03756485    9.73008529E-06   2.48224076E+18   3.42956962E+07   8.32882950E+07   5.91800786E+08   0.23690438      
  76               1.77827941E+01   7.53673932E-01   2087.39671797    1.02487287E-05   2.61519657E+18   3.14525191E+07   8.61310729E+07   5.76046752E+08   0.23339155      
  77               2.08929613E+01   8.08232011E-01   2121.39468532    1.08113732E-05   2.75956362E+18   2.87436996E+07   8.88377157E+07   5.59656485E+08   0.22965245      
  78               2.45470892E+01   8.68028169E-01   2156.26158130    1.14196179E-05   2.91580324E+18   2.61836608E+07   9.13948622E+07   5.42638433E+08   0.22568108      
  79               2.88403150E+01   9.33535677E-01   2191.56800915    1.20788505E-05   3.08533132E+18   2.37708392E+07   9.38025865E+07   5.25000178E+08   0.22153029      
  80               3.38844156E+01   1.00527441E+00   2227.56789475    1.27910728E-05   3.26873352E+18   2.15031358E+07   9.60631673E+07   5.06748999E+08   0.21713584      
  81               3.98107171E+01   1.08381559E+00   2263.79545593    1.35627815E-05   3.46772021E+18   1.93631187E+07   9.81963605E+07   4.87891962E+08   0.21249107      
  82               4.67735141E+01   1.16978707E+00   2300.50836335    1.43965650E-05   3.68306038E+18   1.73180579E+07   1.00234847E+08   4.68435904E+08   0.20756848      
  83               5.49540874E+01   1.26373712E+00   2337.15883743    1.53005051E-05   3.91646594E+18   1.53854746E+07   1.02160902E+08   4.48417403E+08   0.20264791      
  84               6.45654229E+01   1.36641461E+00   2374.12329781    1.62742291E-05   4.16874248E+18   1.36607637E+07   1.03879161E+08   4.27840636E+08   0.19781054      
  85               7.58577575E+01   1.47877842E+00   2410.97898822    1.73294165E-05   4.44258266E+18   1.21125037E+07   1.05421435E+08   4.06681913E+08   0.19300957      
  86               8.91250938E+01   1.60171085E+00   2448.08387814    1.84692179E-05   4.73896678E+18   1.07028636E+07   1.06826757E+08   3.84952107E+08   0.18822255      
  87               1.04712855E+02   1.73616633E+00   2484.93525769    1.97039143E-05   5.06060094E+18   9.41215989E+06   1.08114205E+08   3.62663459E+08   0.1836635       
  88               1.23026877E+02   1.88318772E+00   2521.99401673    2.10364770E-05   5.40848216E+18   8.25891636E+06   1.09262197E+08   3.39827259E+08   0.17925172      
  89               1.44543977E+02   2.04390891E+00   2558.72065023    2.24791252E-05   5.78581447E+18   7.24014428E+06   1.10274098E+08   3.16454872E+08   0.17496234      
  90               1.69824365E+02   2.21955429E+00   2595.58592680    2.40353346E-05   6.19378607E+18   6.34980304E+06   1.11156913E+08   2.92558700E+08   0.17080623      
  91               1.99526231E+02   2.41144085E+00   2632.04309025    2.57190732E-05   6.63604706E+18   5.56750063E+06   1.11932072E+08   2.68152610E+08   0.16697021      
  92               2.34422882E+02   2.62097437E+00   2668.66198865    2.75330453E-05   7.11369176E+18   4.88402424E+06   1.12609033E+08   2.43252266E+08   0.16327807      
  93               2.75422870E+02   2.84965777E+00   2704.80809045    2.94938438E-05   7.63101118E+18   4.27933986E+06   1.13209275E+08   2.17874794E+08   0.15975094      
  94               3.23593657E+02   3.09909595E+00   2741.08153820    3.16039711E-05   8.18915154E+18   3.75276843E+06   1.13735240E+08   1.92038328E+08   0.15639925      
  95               3.80189396E+02   3.37099749E+00   2776.84078183    3.38821476E-05   8.79292339E+18   3.29173285E+06   1.14199964E+08   1.65762169E+08   0.1534104       
  96               4.46683592E+02   3.66717506E+00   2812.79626098    3.63291298E-05   9.44320039E+18   2.89339050E+06   1.14606156E+08   1.39066188E+08   0.15066571      
  97               5.24807460E+02   3.98955808E+00   2848.24271571    3.89666362E-05   1.01455042E+19   2.54362343E+06   1.14965650E+08   1.11970221E+08   0.14816044      
  98               6.16595002E+02   4.34018072E+00   2883.91378330    4.17944235E-05   1.09006245E+19   2.24029215E+06   1.15281696E+08   8.44950149E+07   0.14580098      
  99               7.24435960E+02   4.72119587E+00   2919.04667290    4.48375701E-05   1.17148523E+19   1.97340111E+06   1.15564076E+08   5.66614801E+07   0.14369068      
  100              8.51138038E+02   5.13487842E+00   2954.45090846    4.80936005E-05   1.25886519E+19   1.74175633E+06   1.15813539E+08   2.84900421E+07   0.14173127      
  101              1.00000000E+03   5.58364503E+00   2989.30435216    5.15917125E-05   1.35292433E+19   1.62272406E+06   1.15944446E+08   0.00000000E+00   0.1399528       
