# ATMO pressure-temperature profile
# Effective temperature = 1100.0K
# log(g) = 4.5cm/s^2
# M/H = 0.0
# Optical depth grid in band 17 (1.20-1.33microns)
# All parameters in cgs units
#
# Model Level      Optical Depth    Pressure         Temperature      Density          Number Density   Rad Flux         Conv Flux        Radial Extension Adiabatic Gradient
#                                   [Ba]             [K]              [g/cm^3]         [/cm^3]          [ergs/s/cm^2/sr] [ergs/s/cm^2/sr] [cm]             [K/Ba]          
  1                5.00000000E-05   1.00000000E-05   363.36665063     7.80243947E-10   1.99333721E+14   8.30019726E+07   0.00000000E+00   1.89056863E+07   0.29834883      
  2                5.91534807E-05   3.19808912E-04   432.77966172     2.09508939E-08   5.35241228E+15   8.30019725E+07   0.00000000E+00   1.64825455E+07   0.29972627      
  3                6.99826855E-05   6.49877303E-04   450.88919947     4.08645612E-08   1.04396846E+16   8.30019733E+07   0.00000000E+00   1.61258237E+07   0.29952482      
  4                8.27943887E-05   1.02687444E-03   472.98811781     6.15534149E-08   1.57250833E+16   8.30019730E+07   0.00000000E+00   1.58881186E+07   0.29945537      
  5                9.79515255E-05   1.46168466E-03   479.53200757     8.64214280E-08   2.20781118E+16   8.30019739E+07   0.00000000E+00   1.56995962E+07   0.29936921      
  6                1.15883473E-04   1.96521864E-03   495.39918267     1.12471051E-07   2.87330301E+16   8.30019734E+07   0.00000000E+00   1.55380868E+07   0.29933538      
  7                1.37098216E-04   2.54973250E-03   498.86401180     1.44909861E-07   3.70201594E+16   8.30019748E+07   0.00000000E+00   1.53933012E+07   0.29927243      
  8                1.62196734E-04   3.22915978E-03   512.69873823     1.78571690E-07   4.56197735E+16   8.30019742E+07   0.00000000E+00   1.52597377E+07   0.29924885      
  9                1.91890027E-04   4.01978499E-03   515.14133338     2.21239199E-07   5.65200147E+16   8.30019763E+07   0.00000000E+00   1.51339514E+07   0.29919196      
  10               2.27019260E-04   4.94050291E-03   528.39192909     2.65094338E-07   6.77237228E+16   8.30019755E+07   0.00000000E+00   1.50137262E+07   0.299171        
  11               2.68579588E-04   6.01335228E-03   530.42709033     3.21422849E-07   8.21139209E+16   8.30019784E+07   0.00000000E+00   1.48975011E+07   0.29911288      
  12               3.17748350E-04   7.26380030E-03   543.60718730     3.78847398E-07   9.67842180E+16   8.30019770E+07   0.00000000E+00   1.47841840E+07   0.29909116      
  13               3.75918418E-04   8.72161770E-03   545.57811946     4.53237701E-07   1.15788637E+17   8.30019819E+07   0.00000000E+00   1.46729320E+07   0.29903034      
  14               4.44737657E-04   1.04211784E-02   558.81566761     5.28730035E-07   1.35074726E+17   8.30019798E+07   0.00000000E+00   1.45631435E+07   0.29901944      
  15               5.26155608E-04   1.24025660E-02   560.91051922     6.26908278E-07   1.60156217E+17   8.30019868E+07   0.00000000E+00   1.44543131E+07   0.29898163      
  16               6.22478712E-04   1.47120628E-02   574.58506389     7.25947265E-07   1.85457789E+17   8.30019839E+07   0.00000000E+00   1.43460544E+07   0.29893537      
  17               7.36435649E-04   1.74035301E-02   577.16305288     8.54918984E-07   2.18406051E+17   8.30019958E+07   0.00000000E+00   1.42380170E+07   0.29883249      
  18               8.71254639E-04   2.05388533E-02   591.48675149     9.84503069E-07   2.51511016E+17   8.30019907E+07   0.00000000E+00   1.41299454E+07   0.29877588      
  19               1.03075489E-03   2.41896068E-02   594.82464452     1.15299128E-06   2.94554522E+17   8.30020064E+07   0.00000000E+00   1.40215874E+07   0.29870821      
  20               1.21945479E-03   2.84378489E-02   610.15895608     1.32141634E-06   3.37582241E+17   8.30019995E+07   0.00000000E+00   1.39127505E+07   0.29867046      
  21               1.44269991E-03   3.33781763E-02   614.55253088     1.53989012E-06   3.93395540E+17   8.30020236E+07   0.00000000E+00   1.38032311E+07   0.29858018      
  22               1.70681442E-03   3.91190498E-02   631.02012078     1.75764426E-06   4.49025422E+17   8.30020139E+07   0.00000000E+00   1.36928822E+07   0.29850329      
  23               2.01928028E-03   4.57874239E-02   636.63673724     2.03910963E-06   5.20931181E+17   8.30020454E+07   0.00000000E+00   1.35814953E+07   0.29837804      
  24               2.38894914E-03   5.35285365E-02   654.52837851     2.31869023E-06   5.92355913E+17   8.30020324E+07   0.00000000E+00   1.34689152E+07   0.29828681      
  25               2.82629313E-03   6.25082005E-02   661.75939383     2.67807561E-06   6.84167942E+17   8.30020727E+07   0.00000000E+00   1.33549618E+07   0.29814168      
  26               3.34370152E-03   7.29143121E-02   681.33162429     3.03417149E-06   7.75139869E+17   8.30020508E+07   0.00000000E+00   1.32395216E+07   0.29800569      
  27               3.95583167E-03   8.49576676E-02   690.32789055     3.48925803E-06   8.91400761E+17   8.30021007E+07   0.00000000E+00   1.31224744E+07   0.29779681      
  28               4.68002425E-03   9.88750346E-02   711.70356143     3.93889157E-06   1.00626728E+18   8.30020685E+07   0.00000000E+00   1.30037599E+07   0.2976125       
  29               5.53679448E-03   1.14927230E-01   722.79139644     4.50812965E-06   1.15169055E+18   8.30021059E+07   0.00000000E+00   1.28832982E+07   0.29733821      
  30               6.55041330E-03   1.33405823E-01   746.25489757     5.06846689E-06   1.29483202E+18   8.30020591E+07   0.00000000E+00   1.27610527E+07   0.29708778      
  31               7.74959494E-03   1.54624200E-01   759.59928444     5.77140833E-06   1.47441167E+18   8.30020628E+07   0.00000000E+00   1.26369923E+07   0.29675627      
  32               9.16831029E-03   1.78956020E-01   785.24249432     6.46149929E-06   1.65070079E+18   8.30019850E+07   0.00000000E+00   1.25109932E+07   0.29647611      
  33               1.08467493E-02   2.06820891E-01   801.09536059     7.31982694E-06   1.86997598E+18   8.30019146E+07   0.00000000E+00   1.23828664E+07   0.29607953      
  34               1.28324595E-02   2.38700264E-01   829.17196104     8.16203058E-06   2.08513478E+18   8.30017922E+07   0.00000000E+00   1.22524414E+07   0.29567455      
  35               1.51816929E-02   2.75108303E-01   847.62871597     9.20211169E-06   2.35084435E+18   8.30016210E+07   0.00000000E+00   1.21195936E+07   0.29510704      
  36               1.79609996E-02   3.16654312E-01   878.11956972     1.02239734E-05   2.61190629E+18   8.30014531E+07   0.00000000E+00   1.19841441E+07   0.29454483      
  37               2.12491128E-02   3.63983054E-01   899.21690101     1.14763461E-05   2.93185538E+18   8.30012240E+07   0.00000000E+00   1.18459740E+07   0.29382998      
  38               2.51391797E-02   4.17959469E-01   932.35909855     1.27097111E-05   3.24695893E+18   8.30011106E+07   0.00000000E+00   1.17046426E+07   0.29313128      
  39               2.97413996E-02   4.79615717E-01   956.52242612     1.42162993E-05   3.63181811E+18   8.30009611E+07   0.00000000E+00   1.15595922E+07   0.29227387      
  40               3.51861462E-02   5.50765645E-01   992.91572571     1.57261757E-05   4.01772580E+18   8.30010540E+07   0.00000000E+00   1.14091117E+07   0.29142819      
  41               4.16276604E-02   6.33613137E-01   1020.68704563    1.75987377E-05   4.49632205E+18   8.30011679E+07   0.00000000E+00   1.12516289E+07   0.29041578      
  42               4.92484201E-02   7.32193356E-01   1061.25273145    1.95575531E-05   4.99726986E+18   8.30016413E+07   0.00000000E+00   1.10835890E+07   0.28940312      
  43               5.82643093E-02   8.51352001E-01   1093.60165601    2.20659695E-05   5.63865914E+18   8.30021650E+07   0.00000000E+00   1.09021975E+07   0.28818891      
  44               6.89307339E-02   9.98830543E-01   1138.53047606    2.48634960E-05   6.35437723E+18   8.30030065E+07   0.00000000E+00   1.07030799E+07   0.28693558      
  45               8.15498567E-02   1.18277925E+00   1174.11618483    2.85477502E-05   7.29656512E+18   8.30037090E+07   0.00000000E+00   1.04847376E+07   0.28547113      
  46               9.64791575E-02   1.41294494E+00   1221.18943267    3.27848085E-05   8.38046353E+18   8.30045303E+07   0.00000000E+00   1.02468165E+07   0.28400431      
  47               1.14141560E-01   1.69779485E+00   1257.63326410    3.82505561E-05   9.77815767E+18   8.30049824E+07   0.00000000E+00   9.99244731E+06   0.28240015      
  48               1.35037411E-01   2.04527558E+00   1305.32471928    4.43922225E-05   1.13490396E+19   8.30056047E+07   0.00000000E+00   9.72578251E+06   0.28085733      
  49               1.59758657E-01   2.46298181E+00   1342.16986903    5.19891737E-05   1.32916703E+19   8.30058576E+07   0.00000000E+00   9.45082690E+06   0.27925123      
  50               1.89005613E-01   2.95661265E+00   1390.51772618    6.02359192E-05   1.54008163E+19   8.30064321E+07   0.00000000E+00   9.17187971E+06   0.27773732      
  51               2.23606798E-01   3.53224731E+00   1428.01421094    7.00725166E-05   1.79161386E+19   8.30065793E+07   0.00000000E+00   8.89169384E+06   0.27610475      
  52               2.64542408E-01   4.19458267E+00   1477.03974720    8.04498224E-05   2.05694375E+19   8.30068815E+07   0.00000000E+00   8.61273082E+06   0.27448393      
  53               3.12972084E-01   4.94946281E+00   1514.96651949    9.25498558E-05   2.36636030E+19   8.30072150E+07   0.00000000E+00   8.33608249E+06   0.27279485      
  54               3.70267763E-01   5.79558362E+00   1564.22416749    1.04964888E-04   2.68363856E+19   8.30073178E+07   0.00000000E+00   8.06460784E+06   0.27119126      
  55               4.38052539E-01   6.71454357E+00   1602.21484785    1.18772506E-04   3.03543952E+19   8.30069227E+07   0.00000000E+00   7.80432705E+06   0.26959085      
  56               5.18246648E-01   7.69305516E+00   1651.47047072    1.32025499E-04   3.37406833E+19   8.30051696E+07   0.00000000E+00   7.55722187E+06   0.26811498      
  57               6.13121862E-01   8.71884232E+00   1690.12792107    1.46217027E-04   3.73650086E+19   8.30039669E+07   0.00000000E+00   7.32375158E+06   0.26658154      
  58               7.25365844E-01   9.74419797E+00   1739.93920283    1.58788129E-04   4.05637283E+19   8.30098372E+07   0.00000000E+00   7.11094768E+06   0.26510696      
  59               8.58158289E-01   1.06838647E+01   1782.15025280    1.70078235E-04   4.34220081E+19   7.88989401E+07   4.10664588E+06   6.93012356E+06   0.2635992       
  60               1.01526100E+00   1.15025866E+01   1817.71784784    1.79689351E-04   4.58347514E+19   7.33850553E+07   9.62293622E+06   6.78201775E+06   0.26217969      
  61               1.20112443E+00   1.22135979E+01   1845.78562711    1.87892305E-04   4.79278777E+19   6.83641721E+07   1.46493251E+07   6.65965167E+06   0.26066869      
  62               1.42101382E+00   1.30015935E+01   1876.69925240    1.96713799E-04   5.01796633E+19   6.31020969E+07   1.99217864E+07   6.53003760E+06   0.25950546      
  63               1.68115827E+00   1.36552822E+01   1900.01272868    2.04126264E-04   5.20559060E+19   5.77441953E+07   2.52940975E+07   6.42687528E+06   0.25830401      
  64               1.98892727E+00   1.41671315E+01   1918.78344306    2.09702960E-04   5.34788185E+19   5.33234054E+07   2.97316374E+07   6.34864219E+06   0.25741491      
  65               2.35303941E+00   1.47454725E+01   1937.95495353    2.16101100E-04   5.51113255E+19   4.95774957E+07   3.34923898E+07   6.26273029E+06   0.25641024      
  66               2.78380943E+00   1.53962571E+01   1960.15878138    2.23078312E-04   5.68918089E+19   4.58904023E+07   3.71982256E+07   6.16899994E+06   0.25565772      
  67               3.29344035E+00   1.61253124E+01   1982.78780264    2.30961751E-04   5.89057564E+19   4.13259706E+07   4.17616017E+07   6.06743077E+06   0.25492198      
  68               3.89636920E+00   1.66635300E+01   2000.08597170    2.36807845E-04   6.03454019E+19   3.66041610E+07   4.64289257E+07   5.99464618E+06   0.25462606      
  69               4.60967600E+00   1.70508405E+01   2011.16660610    2.40973946E-04   6.14078061E+19   3.33260749E+07   4.96637423E+07   5.94337466E+06   0.25402552      
  70               5.45356761E+00   1.74952232E+01   2024.98670681    2.45562997E-04   6.25782119E+19   3.11178022E+07   5.18737541E+07   5.88560621E+06   0.2536598       
  71               6.45195012E+00   1.80032112E+01   2039.08700137    2.50941290E-04   6.39499279E+19   2.92629957E+07   5.37291679E+07   5.82089403E+06   0.25295324      
  72               7.63310614E+00   1.85820625E+01   2056.09599683    2.56861477E-04   6.54600554E+19   2.77033518E+07   5.52876620E+07   5.74879464E+06   0.25247561      
  73               9.03049593E+00   1.92391553E+01   2073.55940440    2.63698093E-04   6.72040365E+19   2.62603567E+07   5.67300140E+07   5.66895402E+06   0.25161176      
  74               1.06837053E+01   1.99846365E+01   2094.08963851    2.71221615E-04   6.91236760E+19   2.50117616E+07   5.79789032E+07   5.58080424E+06   0.25088967      
  75               1.26395671E+01   2.08274895E+01   2115.24291521    2.79823586E-04   7.13185518E+19   2.37542918E+07   5.92366068E+07   5.48405497E+06   0.24989124      
  76               1.49534878E+01   2.17772556E+01   2139.52982371    2.89249436E-04   7.37242977E+19   2.25704040E+07   6.04207145E+07   5.37848545E+06   0.24897183      
  77               1.76910170E+01   2.28440202E+01   2164.47870276    2.99905654E-04   7.64442913E+19   2.13258613E+07   6.16654869E+07   5.26394990E+06   0.247768        
  78               2.09297047E+01   2.40385391E+01   2192.54876076    3.11527399E-04   7.94117286E+19   2.01336573E+07   6.28579165E+07   5.14036853E+06   0.24663517      
  79               2.47612977E+01   2.53722412E+01   2221.24756088    3.24539701E-04   8.27347021E+19   1.88716511E+07   6.41201737E+07   5.00772769E+06   0.24516813      
  80               2.92943389E+01   2.68574291E+01   2252.97380105    3.38668785E-04   8.63443920E+19   1.76700649E+07   6.53219999E+07   4.86606336E+06   0.24375062      
  81               3.46572422E+01   2.85072882E+01   2285.23313709    3.54362915E-04   9.03548008E+19   1.64157024E+07   6.65766449E+07   4.71545959E+06   0.24195026      
  82               4.10019301E+01   3.03361618E+01   2320.35734711    3.71341610E-04   9.46959919E+19   1.52366885E+07   6.77559384E+07   4.55602827E+06   0.24024498      
  83               4.85081376E+01   3.23588792E+01   2355.88179016    3.90113466E-04   9.94868809E+19   1.40263989E+07   6.89665580E+07   4.38796721E+06   0.23817648      
  84               5.73885036E+01   3.45924111E+01   2394.06658527    4.10319433E-04   1.04657522E+20   1.29345267E+07   7.00587748E+07   4.21142973E+06   0.23611475      
  85               6.78945948E+01   3.70556246E+01   2432.49435013    4.32511519E-04   1.10338770E+20   1.18594129E+07   7.11342921E+07   4.02652691E+06   0.2337428       
  86               8.03240320E+01   3.97686858E+01   2473.38799093    4.56400522E-04   1.16459476E+20   1.08792476E+07   7.21148274E+07   3.83342377E+06   0.23161297      
  87               9.50289215E+01   4.27534385E+01   2514.42898299    4.82524794E-04   1.23156550E+20   9.89981175E+06   7.30945819E+07   3.63229359E+06   0.22900084      
  88               1.12425830E+02   4.60350800E+01   2557.67379523    5.10626038E-04   1.30367575E+20   9.02016064E+06   7.39744364E+07   3.42322829E+06   0.22664882      
  89               1.33007583E+02   4.96416884E+01   2601.02035501    5.41277192E-04   1.38238379E+20   8.15964390E+06   7.48351997E+07   3.20628816E+06   0.22377047      
  90               1.57357229E+02   5.36050195E+01   2646.30863167    5.74270662E-04   1.46720502E+20   7.38547326E+06   7.56096152E+07   2.98148894E+06   0.22113048      
  91               1.86164557E+02   5.79602405E+01   2691.67488762    6.10207907E-04   1.55967250E+20   6.64729141E+06   7.63481180E+07   2.74883216E+06   0.21825425      
  92               2.20245630E+02   6.27464853E+01   2738.83552359    6.48911539E-04   1.65939314E+20   5.98984006E+06   7.70059716E+07   2.50830373E+06   0.21542348      
  93               2.60565913E+02   6.80061387E+01   2785.97497064    6.91045436E-04   1.76805897E+20   5.38001852E+06   7.76163197E+07   2.25992502E+06   0.21238742      
  94               3.08267614E+02   7.37858662E+01   2834.75099815    7.36440039E-04   1.88531578E+20   4.84277389E+06   7.81541762E+07   2.00371915E+06   0.20963844      
  95               3.64702046E+02   8.01362780E+01   2883.50545086    7.85797530E-04   2.01295576E+20   4.33994494E+06   7.86577654E+07   1.73973267E+06   0.20666908      
  96               4.31467909E+02   8.71128465E+01   2933.71501139    8.38989998E-04   2.15075094E+20   3.89060659E+06   7.91079941E+07   1.46801844E+06   0.20388334      
  97               5.10456573E+02   9.47754652E+01   2983.85268420    8.96767366E-04   2.30061733E+20   3.47306718E+06   7.95266849E+07   1.18865906E+06   0.20106085      
  98               6.03905660E+02   1.03188915E+02   3035.33328286    9.59005977E-04   2.46236541E+20   3.09738258E+06   7.99041495E+07   9.01760544E+05   0.19836245      
  99               7.14462436E+02   1.12415068E+02   3086.61141548    1.02647754E-03   2.63796122E+20   2.74428480E+06   8.02596002E+07   6.07697779E+05   0.19546468      
  100              8.45258798E+02   1.22516293E+02   3138.92269998    1.09899956E-03   2.82708630E+20   2.43007048E+06   8.05763585E+07   3.06947735E+05   0.19279304      
  101              1.00000000E+03   1.33557264E+02   3190.88669296    1.17733040E-03   3.03167031E+20   2.26581561E+06   8.07418399E+07   0.00000000E+00   0.19028458      
