# ATMO pressure-temperature profile
# Effective temperature = 1900.0K
# log(g) = 4.0cm/s^2
# M/H = 0.0
# Optical depth grid in band 17 (1.20-1.33microns)
# All parameters in cgs units
#
# Model Level      Optical Depth    Pressure         Temperature      Density          Number Density   Rad Flux         Conv Flux        Radial Extension Adiabatic Gradient
#                                   [Ba]             [K]              [g/cm^3]         [/cm^3]          [ergs/s/cm^2/sr] [ergs/s/cm^2/sr] [cm]             [K/Ba]          
  1                1.00000000E-06   1.00000000E-05   616.19667850     4.59679698E-10   1.17545630E+14   7.38911466E+08   0.00000000E+00   8.01880443E+07   0.29800226      
  2                1.23026877E-06   1.65008170E-05   648.70374748     7.20449615E-10   1.84240405E+14   7.38911466E+08   0.00000000E+00   7.90583668E+07   0.29784077      
  3                1.51356125E-06   2.51498155E-05   670.99141219     1.06158655E-09   2.71483651E+14   7.38911466E+08   0.00000000E+00   7.80693854E+07   0.29763217      
  4                1.86208714E-06   3.58333096E-05   685.63076793     1.48024254E-09   3.78549314E+14   7.38911466E+08   0.00000000E+00   7.72171309E+07   0.29743869      
  5                2.29086765E-06   4.88752051E-05   701.24670044     1.97402462E-09   5.04828194E+14   7.38911466E+08   0.00000000E+00   7.64541768E+07   0.29720681      
  6                2.81838293E-06   6.47589339E-05   712.61938111     2.57380985E-09   6.58215190E+14   7.38911466E+08   0.00000000E+00   7.57495033E+07   0.29699615      
  7                3.46736850E-06   8.40702335E-05   726.35666087     3.27813704E-09   8.38336103E+14   7.38911466E+08   0.00000000E+00   7.50846742E+07   0.29673513      
  8                4.26579519E-06   1.07536098E-04   736.54995216     4.13510616E-09   1.05749399E+15   7.38911466E+08   0.00000000E+00   7.44473217E+07   0.29690454      
  9                5.24807460E-06   1.36024597E-04   749.60138776     5.13951827E-09   1.31435568E+15   7.38911466E+08   0.00000000E+00   7.38293548E+07   0.29670417      
  10               6.45654229E-06   1.70593256E-04   759.42711548     6.36234150E-09   1.62705262E+15   7.38911466E+08   0.00000000E+00   7.32248312E+07   0.29653089      
  11               7.94328235E-06   2.12533302E-04   772.31279944     7.79424313E-09   1.99324001E+15   7.38911466E+08   0.00000000E+00   7.26292602E+07   0.29631498      
  12               9.77237221E-06   2.63423998E-04   782.09543378     9.53988891E-09   2.43961574E+15   7.38911466E+08   0.00000000E+00   7.20390862E+07   0.29612725      
  13               1.20226443E-05   3.25161051E-04   795.04840587     1.15838263E-08   2.96231193E+15   7.38911467E+08   0.00000000E+00   7.14518020E+07   0.29589049      
  14               1.47910839E-05   4.00058028E-04   804.92614305     1.40771270E-08   3.59991956E+15   7.38911467E+08   0.00000000E+00   7.08652841E+07   0.29568396      
  15               1.81970086E-05   4.90880844E-04   818.08783662     1.69950596E-08   4.34612275E+15   7.38911467E+08   0.00000000E+00   7.02780968E+07   0.29542484      
  16               2.23872114E-05   6.00977579E-04   828.15058767     2.05539598E-08   5.25623526E+15   7.38911467E+08   0.00000000E+00   6.96890289E+07   0.29519883      
  17               2.75422870E-05   7.34361633E-04   841.57007956     2.47152951E-08   6.32041408E+15   7.38911467E+08   0.00000000E+00   6.90972312E+07   0.29491486      
  18               3.38844156E-05   8.95877802E-04   851.84443584     2.97875386E-08   7.61753265E+15   7.38911468E+08   0.00000000E+00   6.85019587E+07   0.29466739      
  19               4.16869383E-05   1.09132687E-03   865.57255039     3.57105995E-08   9.13223782E+15   7.38911468E+08   0.00000000E+00   6.79026953E+07   0.29435845      
  20               5.12861384E-05   1.32768998E-03   876.07586950     4.29240578E-08   1.09769276E+16   7.38911468E+08   0.00000000E+00   6.72989820E+07   0.2940905       
  21               6.30957344E-05   1.61331607E-03   890.11869521     5.13354112E-08   1.31279640E+16   7.38911469E+08   0.00000000E+00   6.66905122E+07   0.29375588      
  22               7.76247117E-05   1.95822921E-03   900.86343900     6.15673034E-08   1.57445554E+16   7.38911470E+08   0.00000000E+00   6.60769959E+07   0.29346622      
  23               9.54992586E-05   2.37439824E-03   915.23252310     7.34797097E-08   1.87909163E+16   7.38911471E+08   0.00000000E+00   6.54582519E+07   0.2931061       
  24               1.17489755E-04   2.87618985E-03   926.23074262     8.79516014E-08   2.24917992E+16   7.38911472E+08   0.00000000E+00   6.48340604E+07   0.2927951       
  25               1.44543977E-04   3.48116615E-03   941.02155260     1.04778060E-07   2.67948309E+16   7.38911474E+08   0.00000000E+00   6.42038562E+07   0.29240613      
  26               1.77827941E-04   4.21053369E-03   952.42858809     1.25213162E-07   3.20206810E+16   7.38911476E+08   0.00000000E+00   6.35670808E+07   0.29206802      
  27               2.18776162E-04   5.08966697E-03   967.78915362     1.48954516E-07   3.80920596E+16   7.38911480E+08   0.00000000E+00   6.29233520E+07   0.2916453       
  28               2.69153480E-04   6.14894907E-03   979.74033097     1.77760414E-07   4.54585678E+16   7.38911482E+08   0.00000000E+00   6.22723726E+07   0.29127587      
  29               3.31131121E-04   7.42458955E-03   995.91541772     2.11151876E-07   5.39977711E+16   7.38911489E+08   0.00000000E+00   6.16139370E+07   0.29081147      
  30               4.07380278E-04   8.95975376E-03   1008.63972348    2.51596750E-07   6.43407095E+16   7.38911494E+08   0.00000000E+00   6.09478900E+07   0.29040386      
  31               5.01187234E-04   1.08055889E-02   1025.79495400    2.98354580E-07   7.62980996E+16   7.38911503E+08   0.00000000E+00   6.02741784E+07   0.29021159      
  32               6.16595002E-04   1.30226247E-02   1039.54899745    3.54812110E-07   9.07359522E+16   7.38911510E+08   0.00000000E+00   5.95927705E+07   0.28964917      
  33               7.58577575E-04   1.56819804E-02   1058.13316800    4.19764048E-07   1.07346136E+17   7.38911521E+08   0.00000000E+00   5.89036826E+07   0.28889331      
  34               9.33254301E-04   1.88670789E-02   1073.31731543    4.97876003E-07   1.27321683E+17   7.38911535E+08   0.00000000E+00   5.82069604E+07   0.28820182      
  35               1.14815362E-03   2.26747695E-02   1093.64032201    5.87236172E-07   1.50173813E+17   7.38911538E+08   0.00000000E+00   5.75027626E+07   0.28739183      
  36               1.41253754E-03   2.72169745E-02   1110.74967753    6.94013679E-07   1.77480028E+17   7.38911560E+08   0.00000000E+00   5.67912603E+07   0.28673541      
  37               1.73780083E-03   3.26222815E-02   1133.42685093    8.15201474E-07   2.08471492E+17   7.38911560E+08   0.00000000E+00   5.60726326E+07   0.2859771       
  38               2.13796209E-03   3.90458411E-02   1153.00727451    9.59150485E-07   2.45283636E+17   7.38911596E+08   0.00000000E+00   5.53461924E+07   0.28533586      
  39               2.63026799E-03   4.66673897E-02   1178.71937694    1.12136457E-06   2.86766837E+17   7.38911536E+08   0.00000000E+00   5.46112953E+07   0.28458545      
  40               3.23593657E-03   5.56905790E-02   1201.72451792    1.31256371E-06   3.35662366E+17   7.38911532E+08   0.00000000E+00   5.38675462E+07   0.28389557      
  41               3.98107171E-03   6.63424041E-02   1231.51016200    1.52579657E-06   3.90192615E+17   7.38911353E+08   0.00000000E+00   5.31148571E+07   0.2829663       
  42               4.89778819E-03   7.88710722E-02   1258.88838248    1.77449102E-06   4.53791502E+17   7.38911287E+08   0.00000000E+00   5.23534451E+07   0.28197291      
  43               6.02559586E-03   9.35385370E-02   1293.67923447    2.04789391E-06   5.23708720E+17   7.38910736E+08   0.00000000E+00   5.15840232E+07   0.2806119       
  44               7.41310241E-03   1.10607234E-01   1326.58639857    2.36152912E-06   6.03912240E+17   7.38910477E+08   0.00000000E+00   5.08078648E+07   0.27923938      
  45               9.12010839E-03   1.30312434E-01   1367.40196707    2.69924389E-06   6.90264433E+17   7.38909585E+08   0.00000000E+00   5.00273803E+07   0.27792395      
  46               1.12201845E-02   1.52806929E-01   1406.79973781    3.07665864E-06   7.86749740E+17   7.38909014E+08   0.00000000E+00   4.92467984E+07   0.27665884      
  47               1.38038426E-02   1.77383359E-01   1455.25597011    3.45421423E-06   8.82875212E+17   7.38906767E+08   0.00000000E+00   4.84928409E+07   0.27471861      
  48               1.69824365E-02   2.03841334E-01   1511.63031343    3.82160163E-06   9.76725439E+17   7.37656498E+08   1.24190820E+06   4.77646207E+07   0.27220563      
  49               2.08929613E-02   2.31189758E-01   1564.08630580    4.19049008E-06   1.07061597E+18   7.34528731E+08   4.38373373E+06   4.70811863E+07   0.26981318      
  50               2.57039578E-02   2.57026373E-01   1609.22381581    4.53134021E-06   1.15687670E+18   7.30125192E+08   8.80220243E+06   4.64882420E+07   0.26775409      
  51               3.16227766E-02   2.80428107E-01   1647.09362450    4.83522464E-06   1.23318744E+18   7.25378027E+08   1.35142954E+07   4.59882585E+07   0.26602971      
  52               3.89045145E-02   3.02072819E-01   1679.88668959    5.10642134E-06   1.30243932E+18   7.21026989E+08   1.78066541E+07   4.55526609E+07   0.26432025      
  53               4.78630092E-02   3.21489613E-01   1707.69400230    5.35115179E-06   1.36358662E+18   7.17242559E+08   2.14941254E+07   4.51811588E+07   0.2628664       
  54               5.88843655E-02   3.37158009E-01   1729.13654175    5.54222456E-06   1.41230999E+18   7.14214621E+08   2.44454556E+07   4.48934461E+07   0.26168279      
  55               7.24435960E-02   3.55372048E-01   1753.08165738    5.76165787E-06   1.46827350E+18   7.10666538E+08   2.80031120E+07   4.45711234E+07   0.26027764      
  56               8.91250938E-02   3.76413272E-01   1779.44296203    6.01214752E-06   1.53216909E+18   7.06399765E+08   3.22824308E+07   4.42136178E+07   0.25863327      
  57               1.09647820E-01   4.00549484E-01   1808.21530127    6.29552671E-06   1.60447102E+18   7.01200132E+08   3.74999371E+07   4.38212993E+07   0.25676859      
  58               1.34896288E-01   4.27992490E-01   1839.12483503    6.61335559E-06   1.68558547E+18   6.94854854E+08   4.38600679E+07   4.33959894E+07   0.2546907       
  59               1.65958691E-01   4.58673083E-01   1871.74003485    6.96335444E-06   1.77493954E+18   6.87420936E+08   5.12843486E+07   4.29438789E+07   0.25229437      
  60               2.04173794E-01   4.92849651E-01   1905.81026037    7.34765307E-06   1.87309857E+18   6.79291582E+08   5.94104407E+07   4.24660790E+07   0.2495848       
  61               2.51188643E-01   5.31723431E-01   1942.10862516    7.77796402E-06   1.98307035E+18   6.70042520E+08   6.86814196E+07   4.19518566E+07   0.2465421       
  62               3.09029543E-01   5.75803340E-01   1980.36734880    8.25858395E-06   2.10598009E+18   6.59042805E+08   7.97088220E+07   4.14018640E+07   0.24308467      
  63               3.80189396E-01   6.25658949E-01   2020.49807093    8.79345789E-06   2.24287495E+18   6.45816193E+08   9.29683577E+07   4.08168262E+07   0.239097        
  64               4.67735141E-01   6.81933985E-01   2062.16328076    9.38813034E-06   2.39521843E+18   6.29948509E+08   1.08869336E+08   4.01974573E+07   0.23469895      
  65               5.75439937E-01   7.45359673E-01   2105.30091491    1.00475912E-05   2.56435149E+18   6.11087344E+08   1.27761189E+08   3.95444044E+07   0.22996124      
  66               7.07945784E-01   8.16762310E-01   2149.58166999    1.07787700E-05   2.75212134E+18   5.88964907E+08   1.49919262E+08   3.88582796E+07   0.22491769      
  67               8.70963590E-01   8.97077163E-01   2194.95294127    1.15880516E-05   2.96026389E+18   5.63418082E+08   1.75500942E+08   3.81396397E+07   0.2196303       
  68               1.07151931E+00   9.87361807E-01   2241.09899090    1.24840787E-05   3.19110521E+18   5.34369736E+08   2.04579868E+08   3.73889915E+07   0.21404358      
  69               1.31825674E+00   1.08880792E+00   2287.94243710    1.34751460E-05   3.44692647E+18   5.01751557E+08   2.37229726E+08   3.66068284E+07   0.20809926      
  70               1.62181010E+00   1.20258400E+00   2335.05420422    1.45722416E-05   3.73030460E+18   4.65730468E+08   2.73276538E+08   3.57948567E+07   0.20203433      
  71               1.99526231E+00   1.33018602E+00   2382.47776713    1.57824288E-05   4.04398338E+18   4.27113593E+08   3.11907720E+08   3.49534309E+07   0.19621969      
  72               2.45470892E+00   1.47345599E+00   2430.09054670    1.71210458E-05   4.39177974E+18   3.86581761E+08   3.52438476E+08   3.40818410E+07   0.19041247      
  73               3.01995172E+00   1.63423211E+00   2477.80152940    1.86006863E-05   4.77719601E+18   3.44647050E+08   3.94356776E+08   3.31808890E+07   0.1848272       
  74               3.71535229E+00   1.81454524E+00   2525.51976805    2.02350816E-05   5.20406686E+18   3.02121905E+08   4.36838928E+08   3.22514506E+07   0.17956841      
  75               4.57088190E+00   2.01666538E+00   2573.23011892    2.20388132E-05   5.67650542E+18   2.60437748E+08   4.78437865E+08   3.12943143E+07   0.17450776      
  76               5.62341325E+00   2.24308682E+00   2620.79203260    2.40288320E-05   6.19925305E+18   2.21057219E+08   5.17706879E+08   3.03103752E+07   0.16968318      
  77               6.91830971E+00   2.49653289E+00   2668.22014928    2.62217859E-05   6.77706220E+18   1.85309095E+08   5.53330155E+08   2.93006586E+07   0.16526966      
  78               8.51138038E+00   2.77994819E+00   2715.47789776    2.86357048E-05   7.41508731E+18   1.54021252E+08   5.84498998E+08   2.82663507E+07   0.16105881      
  79               1.04712855E+01   3.09652112E+00   2762.47242019    3.12904655E-05   8.11898866E+18   1.27634945E+08   6.10799771E+08   2.72087407E+07   0.15710331      
  80               1.28824955E+01   3.44969163E+00   2809.21044691    3.42058687E-05   8.89450616E+18   1.06106808E+08   6.32284448E+08   2.61291980E+07   0.15356372      
  81               1.58489319E+01   3.84316613E+00   2855.71144127    3.74025126E-05   9.74766682E+18   8.88415082E+07   6.49529924E+08   2.50291096E+07   0.15043868      
  82               1.94984460E+01   4.28092024E+00   2902.00341199    4.09016938E-05   1.06847670E+19   7.49113991E+07   6.63472065E+08   2.39098757E+07   0.14757873      
  83               2.39883292E+01   4.76720965E+00   2948.03234942    4.47270484E-05   1.17127223E+19   6.35072990E+07   6.74915835E+08   2.27729017E+07   0.14499433      
  84               2.95120923E+01   5.30660903E+00   2993.85320288    4.89015411E-05   1.28384451E+19   5.40469385E+07   6.84437511E+08   2.16195137E+07   0.14269779      
  85               3.63078055E+01   5.90402762E+00   3039.43920230    5.34508666E-05   1.40695679E+19   4.60656714E+07   6.92503877E+08   2.04509531E+07   0.14059871      
  86               4.46683592E+01   6.56448884E+00   3084.79132462    5.83994001E-05   1.54134892E+19   3.92737045E+07   6.99410895E+08   1.92687919E+07   0.13869002      
  87               5.49540874E+01   7.29345094E+00   3129.88773100    6.37742154E-05   1.68783561E+19   3.35066477E+07   7.05311566E+08   1.80742844E+07   0.13699352      
  88               6.76082975E+01   8.09701797E+00   3174.78544417    6.96040496E-05   1.84729631E+19   2.86339059E+07   7.10318826E+08   1.68681582E+07   0.13553705      
  89               8.31763771E+01   8.98195775E+00   3219.52020571    7.59213878E-05   2.02071792E+19   2.44928805E+07   7.14583236E+08   1.56507825E+07   0.13425877      
  90               1.02329299E+02   9.95578749E+00   3264.13760661    8.27620150E-05   2.20918964E+19   2.09566436E+07   7.18239850E+08   1.44222252E+07   0.13312899      
  91               1.25892541E+02   1.10268801E+01   3308.67730086    9.01659708E-05   2.41392670E+19   1.79271221E+07   7.21383173E+08   1.31822873E+07   0.13213393      
  92               1.54881662E+02   1.22045714E+01   3353.19542973    9.81771456E-05   2.63626769E+19   1.53278338E+07   7.24080928E+08   1.19305461E+07   0.13127582      
  93               1.90546072E+02   1.34992648E+01   3397.74855582    1.06844065E-04   2.87769472E+19   1.30945377E+07   7.26386887E+08   1.06664038E+07   0.13053091      
  94               2.34422882E+02   1.49225648E+01   3442.38892258    1.16220606E-04   3.13985344E+19   1.11837753E+07   7.28360267E+08   9.38911557E+06   0.1298931       
  95               2.88403150E+02   1.64874106E+01   3487.17864786    1.26365742E-04   3.42455461E+19   9.55592819E+06   7.30038323E+08   8.09782361E+06   0.12935852      
  96               3.54813389E+02   1.82082162E+01   3532.17428036    1.37344599E-04   3.73380057E+19   8.16611153E+06   7.31463989E+08   6.79159143E+06   0.12893173      
  97               4.36515832E+02   2.01010287E+01   3577.44633912    1.49227797E-04   4.06978058E+19   6.97610420E+06   7.32657519E+08   5.46942570E+06   0.12860633      
  98               5.37031796E+02   2.21837185E+01   3623.05084431    1.62093597E-04   4.43491965E+19   5.95546563E+06   7.33662027E+08   4.13028658E+06   0.12837087      
  99               6.60693448E+02   2.44762017E+01   3669.05404450    1.76027156E-04   4.83187571E+19   5.07985995E+06   7.34504819E+08   2.77309139E+06   0.12821173      
  100              8.12830516E+02   2.70006974E+01   3715.50556707    1.91123193E-04   5.26360031E+19   4.32945710E+06   7.35205738E+08   1.39671567E+06   0.12812804      
  101              1.00000000E+03   2.97820000E+01   3762.47443957    2.07484185E-04   5.73331945E+19   3.98355397E+06   7.35564630E+08   0.00000000E+00   0.12811197      
