# ATMO pressure-temperature profile
# Effective temperature = 500.0K
# log(g) = 2.5cm/s^2
# M/H = 0.0
# Optical depth grid in band 17 (1.20-1.33microns)
# All parameters in cgs units
#
# Model Level      Optical Depth    Pressure         Temperature      Density          Number Density   Rad Flux         Conv Flux        Radial Extension Adiabatic Gradient
#                                   [Ba]             [K]              [g/cm^3]         [/cm^3]          [ergs/s/cm^2/sr] [ergs/s/cm^2/sr] [cm]             [K/Ba]          
  1                5.00000000E-04   1.00000000E-05   84.15069325      3.35182338E-09   8.60732381E+14   3.54359481E+06   0.00000000E+00   9.69024559E+08   0.34612396      
  2                5.78069831E-04   2.62761182E-05   120.13097345     6.16942986E-09   1.58428040E+15   3.54359481E+06   0.00000000E+00   9.57706089E+08   0.34616305      
  3                6.68329458E-04   4.43070710E-05   133.27388231     9.37706251E-09   2.40798530E+15   3.54359481E+06   0.00000000E+00   9.50209516E+08   0.34355747      
  4                7.72682194E-04   6.48858862E-05   141.29949759     1.29523509E-08   3.32610123E+15   3.54359481E+06   0.00000000E+00   9.44304613E+08   0.34016445      
  5                8.93328530E-04   8.85108071E-05   146.09509830     1.70883239E-08   4.38820083E+15   3.54359489E+06   0.00000000E+00   9.39282964E+08   0.32294793      
  6                1.03281254E-03   1.15683591E-04   151.13597386     2.15897679E-08   5.54408335E+15   3.54359479E+06   0.00000000E+00   9.34809318E+08   0.32460061      
  7                1.19407555E-03   1.46936769E-04   155.64200676     2.66284687E-08   6.83800642E+15   3.54359476E+06   0.00000000E+00   9.30687421E+08   0.32553858      
  8                1.38051810E-03   1.82863589E-04   161.00837392     3.20350761E-08   8.22630135E+15   3.54359521E+06   0.00000000E+00   9.26797557E+08   0.32583367      
  9                1.59607173E-03   2.24172022E-04   164.68239324     3.84006366E-08   9.85961778E+15   3.54359427E+06   0.00000000E+00   9.23073070E+08   0.32585282      
  10               1.84528182E-03   2.71629067E-04   169.15591330     4.52969453E-08   1.16309422E+16   3.54359294E+06   0.00000000E+00   9.19474773E+08   0.32568231      
  11               2.13340350E-03   3.26063704E-04   172.51227412     5.33396535E-08   1.36901528E+16   3.54359196E+06   0.00000000E+00   9.15972546E+08   0.32521324      
  12               2.46651240E-03   3.88273018E-04   177.02927798     6.18834396E-08   1.58861242E+16   3.54359028E+06   0.00000000E+00   9.12548473E+08   0.32482511      
  13               2.85163282E-03   4.58823673E-04   179.34526340     7.22929878E-08   1.85302699E+16   3.54359123E+06   0.00000000E+00   9.09212171E+08   0.32404922      
  14               3.29688580E-03   5.37756575E-04   185.48026213     8.18858259E-08   2.09997376E+16   3.54359029E+06   0.00000000E+00   9.05967986E+08   0.32351861      
  15               3.81166043E-03   6.24825670E-04   188.73164993     9.38675721E-08   2.39794913E+16   3.54359396E+06   0.00000000E+00   9.02825923E+08   0.32250286      
  16               4.40681180E-03   7.18198319E-04   198.02947587     1.02829093E-07   2.62688092E+16   3.54359624E+06   0.00000000E+00   8.99820512E+08   0.32144487      
  17               5.09488990E-03   8.24974239E-04   204.91067114     1.14150356E-07   2.91609489E+16   3.54359758E+06   0.00000000E+00   8.96703943E+08   0.32092071      
  18               5.89040429E-03   9.47221454E-04   212.74618142     1.26238321E-07   3.22489510E+16   3.54359839E+06   0.00000000E+00   8.93483581E+08   0.31986248      
  19               6.81013002E-03   1.08728881E-03   218.45601201     1.41117988E-07   3.60501235E+16   3.54359893E+06   0.00000000E+00   8.90165017E+08   0.319441        
  20               7.87346142E-03   1.24785985E-03   225.46366888     1.56924481E-07   4.00880639E+16   3.54359923E+06   0.00000000E+00   8.86752847E+08   0.31844977      
  21               9.10282102E-03   1.43197598E-03   230.69347837     1.75995626E-07   4.49599951E+16   3.54359944E+06   0.00000000E+00   8.83249400E+08   0.31802565      
  22               1.05241324E-02   1.64313787E-03   237.38437438     1.96256177E-07   5.01357730E+16   3.54359952E+06   0.00000000E+00   8.79656436E+08   0.31663182      
  23               1.21673669E-02   1.88535937E-03   242.39204677     2.20534854E-07   5.63380249E+16   3.54359958E+06   0.00000000E+00   8.75974617E+08   0.31611523      
  24               1.40671754E-02   2.16323915E-03   248.97868198     2.46345043E-07   6.29315183E+16   3.54359956E+06   0.00000000E+00   8.72204573E+08   0.3149438       
  25               1.62636194E-02   2.48199258E-03   254.10571149     2.76941162E-07   7.07476294E+16   3.54359951E+06   0.00000000E+00   8.68345445E+08   0.31463447      
  26               1.88030155E-02   2.84755755E-03   261.01245648     3.09323371E-07   7.90200165E+16   3.54359939E+06   0.00000000E+00   8.64395742E+08   0.31309588      
  27               2.17389119E-02   3.26669402E-03   266.59149295     3.47427050E-07   8.87540153E+16   3.54359921E+06   0.00000000E+00   8.60352616E+08   0.31275328      
  28               2.51332183E-02   3.74713958E-03   273.96222541     3.87802534E-07   9.90683716E+16   3.54359900E+06   0.00000000E+00   8.56213505E+08   0.31149611      
  29               2.90575105E-02   4.29768153E-03   280.02715032     4.35146553E-07   1.11162916E+17   3.54359875E+06   0.00000000E+00   8.51975443E+08   0.31127797      
  30               3.35945403E-02   4.92835279E-03   287.90474202     4.85349323E-07   1.23987759E+17   3.54359848E+06   0.00000000E+00   8.47635760E+08   0.30926376      
  31               3.88399805E-02   5.65057054E-03   294.49698345     5.44017546E-07   1.38975194E+17   3.54359813E+06   0.00000000E+00   8.43191141E+08   0.30884947      
  32               4.49044419E-02   6.47740705E-03   302.96097871     6.06200026E-07   1.54860385E+17   3.54359774E+06   0.00000000E+00   8.38638062E+08   0.30708199      
  33               5.19158062E-02   7.42374507E-03   310.18695120     6.78579883E-07   1.73350606E+17   3.54359729E+06   0.00000000E+00   8.33972136E+08   0.3066412       
  34               6.00219227E-02   8.50653080E-03   319.33167889     7.55286860E-07   1.92946238E+17   3.54359685E+06   0.00000000E+00   8.29189294E+08   0.30527311      
  35               6.93937253E-02   9.74487567E-03   327.39054425     8.43940093E-07   2.15593672E+17   3.54359638E+06   0.00000000E+00   8.24284397E+08   0.30492105      
  36               8.02288381E-02   1.11603903E-02   337.61541165     9.37256725E-07   2.39432421E+17   3.54359589E+06   0.00000000E+00   8.19251370E+08   0.30388355      
  37               9.27557418E-02   1.27773808E-02   347.06041359     1.04385020E-06   2.66662899E+17   3.54359529E+06   0.00000000E+00   8.14081744E+08   0.30362783      
  38               1.07238592E-01   1.46239842E-02   358.90267924     1.15528842E-06   2.95131013E+17   3.54359471E+06   0.00000000E+00   8.08764221E+08   0.30285129      
  39               1.23982789E-01   1.67323459E-02   370.25315706     1.28132467E-06   3.27328562E+17   3.54359408E+06   0.00000000E+00   8.03284350E+08   0.30254417      
  40               1.43341420E-01   1.91408851E-02   384.46093403     1.41160642E-06   3.60608235E+17   3.54359363E+06   0.00000000E+00   7.97621056E+08   0.30192033      
  41               1.65722701E-01   2.18972008E-02   399.43685792     1.55433133E-06   3.97069294E+17   3.54032501E+06   3.26646895E+03   7.91736676E+08   0.30167174      
  42               1.91598587E-01   2.50742850E-02   417.08884632     1.70451714E-06   4.35437494E+17   3.52887250E+06   1.47183761E+04   7.85564228E+08   0.30122418      
  43               2.21514726E-01   2.87853672E-02   433.73991620     1.88165887E-06   4.80693470E+17   3.51125958E+06   3.23304963E+04   7.79011365E+08   0.30101038      
  44               2.56101960E-01   3.32332855E-02   454.00120216     2.07543280E-06   5.30202921E+17   3.48699053E+06   5.65995634E+04   7.71893733E+08   0.30065778      
  45               2.96089634E-01   3.87125387E-02   474.15453301     2.31499489E-06   5.91367680E+17   3.45863114E+06   8.49575258E+04   7.63988685E+08   0.30044745      
  46               3.42320969E-01   4.56537005E-02   499.44987703     2.59175455E-06   6.62079155E+17   3.42781562E+06   1.15772798E+05   7.55027513E+08   0.30017328      
  47               3.95770849E-01   5.45040706E-02   525.43818365     2.94110286E-06   7.51334183E+17   3.39370333E+06   1.49883324E+05   7.44890443E+08   0.29997621      
  48               4.57566375E-01   6.56601456E-02   556.97921940     3.34240879E-06   8.53863971E+17   3.35318505E+06   1.90400897E+05   7.33638450E+08   0.29978703      
  49               5.29010634E-01   7.93181818E-02   587.99455188     3.82465533E-06   9.77069121E+17   3.29280340E+06   2.50779853E+05   7.21558538E+08   0.29969694      
  50               6.11610175E-01   9.54889691E-02   623.14405783     4.34464884E-06   1.10991721E+18   3.19612687E+06   3.47454277E+05   7.09013880E+08   0.29958942      
  51               7.07106781E-01   1.14115476E-01   655.69742379     4.93434309E-06   1.26056983E+18   3.07049329E+06   4.73085347E+05   6.96292334E+08   0.29947604      
  52               8.17514195E-01   1.35211463E-01   691.56177514     5.54331626E-06   1.41614712E+18   2.91702885E+06   6.26547730E+05   6.83536736E+08   0.29929706      
  53               9.45160584E-01   1.58818944E-01   723.89150960     6.22036357E-06   1.58911256E+18   2.74078642E+06   8.02786765E+05   6.70823467E+08   0.29916989      
  54               1.09273764E+00   1.85001271E-01   759.57359458     6.90548186E-06   1.76413043E+18   2.54825495E+06   9.95316301E+05   6.58190536E+08   0.2989534       
  55               1.26335732E+00   2.13890513E-01   791.27671108     7.66397690E-06   1.95789311E+18   2.36935051E+06   1.17421873E+06   6.45632761E+08   0.29869757      
  56               1.46061751E+00   2.45754941E-01   826.81963748     8.42716786E-06   2.15286757E+18   2.22687298E+06   1.31669711E+06   6.33094455E+08   0.29833153      
  57               1.68867783E+00   2.80889495E-01   858.29616743     9.27870147E-06   2.37041378E+18   2.13061582E+06   1.41295460E+06   6.20529784E+08   0.29797996      
  58               1.95234742E+00   3.19661995E-01   894.21000194     1.01353245E-05   2.58926990E+18   2.08094072E+06   1.46263495E+06   6.07886363E+08   0.29734458      
  59               2.25718628E+00   3.62562620E-01   925.97568102     1.11011090E-05   2.83601998E+18   2.08037656E+06   1.46320228E+06   5.95096490E+08   0.29668609      
  60               2.60962258E+00   4.10508539E-01   963.09938348     1.20844730E-05   3.08728647E+18   2.13999161E+06   1.40359658E+06   5.82005682E+08   0.29575561      
  61               3.01708817E+00   4.65001365E-01   996.69938517     1.32263782E-05   3.37921541E+18   2.26955554E+06   1.27404134E+06   5.68375001E+08   0.2949463       
  62               3.48817529E+00   5.28863010E-01   1037.82248694    1.44451674E-05   3.69101623E+18   2.48672339E+06   1.05689297E+06   5.53763835E+08   0.29374904      
  63               4.03281780E+00   6.06263969E-01   1077.47623375    1.59478142E-05   4.07549063E+18   2.82561784E+06   7.18018713E+05   5.37636652E+08   0.29276817      
  64               4.66250061E+00   7.04422036E-01   1128.67983657    1.76861034E-05   4.52051595E+18   3.28213330E+06   2.61513557E+05   5.19152585E+08   0.29135662      
  65               5.39050188E+00   8.33153243E-01   1182.04453124    1.99707712E-05   5.10524855E+18   3.54358863E+06   0.00000000E+00   4.97490633E+08   0.29024747      
  66               6.23217301E+00   9.99416707E-01   1232.61988672    2.29708547E-05   5.87277381E+18   3.54358900E+06   0.00000000E+00   4.72942180E+08   0.28866483      
  67               7.20526240E+00   1.20375526E+00   1274.24550017    2.67622230E-05   6.84243890E+18   3.54358258E+06   0.00000000E+00   4.46880366E+08   0.28741231      
  68               8.33028963E+00   1.44600919E+00   1318.20709569    3.10745806E-05   7.94535393E+18   3.54357593E+06   0.00000000E+00   4.20315327E+08   0.28554258      
  69               9.63097823E+00   1.72669143E+00   1356.96283147    3.60456980E-05   9.21663990E+18   3.54356961E+06   0.00000000E+00   3.93794508E+08   0.28407288      
  70               1.11347559E+01   2.04651585E+00   1399.98350174    4.14083955E-05   1.05881000E+19   3.54356396E+06   0.00000000E+00   3.67616145E+08   0.28190989      
  71               1.28733329E+01   2.40772676E+00   1439.46737564    4.73802252E-05   1.21152174E+19   3.54355813E+06   0.00000000E+00   3.41828049E+08   0.28015333      
  72               1.48833708E+01   2.81121366E+00   1484.05677994    5.36580417E-05   1.37204760E+19   3.54355307E+06   0.00000000E+00   3.16522506E+08   0.27802926      
  73               1.72072553E+01   3.25561086E+00   1526.15350516    6.04284338E-05   1.54511251E+19   3.54354757E+06   0.00000000E+00   2.91842948E+08   0.27591459      
  74               1.98939903E+01   3.72720259E+00   1573.50391475    6.71296655E-05   1.71569865E+19   3.54354128E+06   0.00000000E+00   2.68426403E+08   0.27393198      
  75               2.30002312E+01   4.21759451E+00   1618.44277316    7.38536791E-05   1.88752762E+19   3.54353006E+06   0.00000000E+00   2.46402140E+08   0.27197375      
  76               2.65914795E+01   4.71770805E+00   1668.56179026    8.01409703E-05   2.04792764E+19   3.41635037E+06   1.27101417E+05   2.25845030E+08   0.27015728      
  77               3.07434641E+01   5.19173544E+00   1711.90034476    8.59880821E-05   2.19664519E+19   2.89603181E+06   6.47324034E+05   2.07787160E+08   0.26837338      
  78               3.55437382E+01   5.60158999E+00   1747.26092026    9.09578844E-05   2.32209185E+19   2.35768773E+06   1.18561801E+06   1.93131290E+08   0.26664775      
  79               4.10935254E+01   5.92244651E+00   1773.07788340    9.48458945E-05   2.41935264E+19   2.00021728E+06   1.54315656E+06   1.82206888E+08   0.26482031      
  80               4.75098546E+01   6.25867400E+00   1799.34542748    9.87659766E-05   2.51937970E+19   1.86306702E+06   1.68041854E+06   1.71221374E+08   0.2630239       
  81               5.49280272E+01   6.62608186E+00   1826.21470390    1.03022668E-04   2.62803292E+19   1.70459503E+06   1.83907024E+06   1.59703335E+08   0.26119498      
  82               6.35044707E+01   6.93512224E+00   1848.23242386    1.06571980E-04   2.71783680E+19   1.47813237E+06   2.06630763E+06   1.50376309E+08   0.25984915      
  83               7.34200373E+01   7.17991726E+00   1864.70852016    1.09357607E-04   2.78890887E+19   1.34490752E+06   2.20069461E+06   1.43205690E+08   0.25844914      
  84               8.48838171E+01   7.45139119E+00   1882.85098783    1.12397309E-04   2.86646902E+19   1.29731577E+06   2.25547667E+06   1.35462396E+08   0.25745949      
  85               9.81375475E+01   7.75155483E+00   1901.85131696    1.15755033E-04   2.95214783E+19   1.24352298E+06   2.30375230E+06   1.27140729E+08   0.25635344      
  86               1.13460711E+02   8.08240410E+00   1922.49906717    1.19392677E-04   3.04509091E+19   1.11784241E+06   2.43156096E+06   1.18241108E+08   0.25555894      
  87               1.31176428E+02   8.32355010E+00   1936.77186121    1.22154417E-04   3.11283407E+19   9.41107079E+05   2.60408464E+06   1.11925897E+08   0.25463411      
  88               1.51658271E+02   8.49346044E+00   1946.93772187    1.23995773E-04   3.15979166E+19   8.49193278E+05   2.69489352E+06   1.07560118E+08   0.25410531      
  89               1.75338142E+02   8.68476651E+00   1957.79242694    1.26084209E-04   3.21304895E+19   8.22992712E+05   2.72075649E+06   1.02721793E+08   0.25341159      
  90               2.02715380E+02   8.89958940E+00   1970.11983612    1.28392627E-04   3.27192369E+19   7.98718131E+05   2.74519047E+06   9.73825436E+07   0.25303804      
  91               2.34367291E+02   9.14005819E+00   1983.26990589    1.30985467E-04   3.33805108E+19   7.68835608E+05   2.77539901E+06   9.15187696E+07   0.25239658      
  92               2.70961321E+02   9.40840392E+00   1997.96128968    1.33836989E-04   3.41078798E+19   7.39769247E+05   2.80455613E+06   8.51096979E+07   0.25198359      
  93               3.13269130E+02   9.70681013E+00   2013.56478655    1.37009026E-04   3.49169875E+19   7.06034032E+05   2.83812523E+06   7.81411009E+07   0.25124034      
  94               3.62182865E+02   1.00374685E+01   2030.71540311    1.40475848E-04   3.58014792E+19   6.77712850E+05   2.86715825E+06   7.06040027E+07   0.25070844      
  95               4.18733975E+02   1.04047742E+01   2048.92506456    1.44317730E-04   3.67817529E+19   6.50795527E+05   2.89396509E+06   6.24463139E+07   0.24979123      
  96               4.84114957E+02   1.08117808E+01   2068.76262344    1.48519587E-04   3.78540551E+19   6.24823391E+05   2.92084075E+06   5.36550773E+07   0.24910853      
  97               5.59704502E+02   1.12616872E+01   2089.72055604    1.53141913E-04   3.90338227E+19   5.96590511E+05   2.94834996E+06   4.42213457E+07   0.24801763      
  98               6.47096573E+02   1.17578822E+01   2112.25569724    1.58175712E-04   4.03188796E+19   5.69197114E+05   2.97614054E+06   3.41395996E+07   0.24714498      
  99               7.48134013E+02   1.23039319E+01   2135.93811228    1.63676936E-04   4.17235348E+19   5.40238273E+05   3.00551225E+06   2.34078908E+07   0.2458399       
  100              8.64947405E+02   1.29036438E+01   2161.09765644    1.69644962E-04   4.32477795E+19   5.11757817E+05   3.03469273E+06   1.20269321E+07   0.24456436      
  101              1.00000000E+03   1.35610672E+01   2187.36663612    1.76132944E-04   4.49053541E+19   4.95727923E+05   3.05417155E+06   0.00000000E+00   0.24313176      
