# ATMO pressure-temperature profile
# Effective temperature = 2600.0K
# log(g) = 5.5cm/s^2
# M/H = 0.0
# Optical depth grid in band 17 (1.20-1.33microns)
# All parameters in cgs units
#
# Model Level      Optical Depth    Pressure         Temperature      Density          Number Density   Rad Flux         Conv Flux        Radial Extension Adiabatic Gradient
#                                   [Ba]             [K]              [g/cm^3]         [/cm^3]          [ergs/s/cm^2/sr] [ergs/s/cm^2/sr] [cm]             [K/Ba]          
  1                1.00000000E-08   1.00000000E-05   905.63289589     3.12744879E-10   7.99785729E+13   2.59101565E+09   0.00000000E+00   3.69969611E+06   0.29117678      
  2                1.28824955E-08   1.22119827E-05   888.25204180     3.89396801E-10   9.95808446E+13   2.59101565E+09   0.00000000E+00   3.67965183E+06   0.29251161      
  3                1.65958691E-08   1.50302854E-05   919.89324155     4.62777452E-10   1.18346560E+14   2.59101565E+09   0.00000000E+00   3.65865734E+06   0.29085336      
  4                2.13796209E-08   1.86179562E-05   903.02624798     5.83947821E-10   1.49333578E+14   2.59101565E+09   0.00000000E+00   3.63683308E+06   0.29204915      
  5                2.75422870E-08   2.31869783E-05   934.38099644     7.02849832E-10   1.79740521E+14   2.59101565E+09   0.00000000E+00   3.61428004E+06   0.29057056      
  6                3.54813389E-08   2.89983007E-05   918.87988787     8.93832640E-10   2.28580744E+14   2.59101565E+09   0.00000000E+00   3.59109459E+06   0.2915824       
  7                4.57088190E-08   3.63927809E-05   950.34836597     1.08461297E-09   2.77369210E+14   2.59101565E+09   0.00000000E+00   3.56734576E+06   0.29032348      
  8                5.88843655E-08   4.57874866E-05   936.55779373     1.38469659E-09   3.54109895E+14   2.59101565E+09   0.00000000E+00   3.54310376E+06   0.29111165      
  9                7.58577575E-08   5.77246610E-05   968.51971299     1.68808884E-09   4.31696737E+14   2.59101565E+09   0.00000000E+00   3.51841344E+06   0.29014147      
  10               9.77237221E-08   7.28653119E-05   956.73349889     2.15710974E-09   5.51639920E+14   2.59101565E+09   0.00000000E+00   3.49332286E+06   0.29065842      
  11               1.25892541E-07   9.20671406E-05   989.40680071     2.63555522E-09   6.73993338E+14   2.59101565E+09   0.00000000E+00   3.46785629E+06   0.28994722      
  12               1.62181010E-07   1.16373199E-04   979.65249055     3.36452148E-09   8.60412611E+14   2.59101565E+09   0.00000000E+00   3.44204457E+06   0.29156063      
  13               2.08929613E-07   1.47135981E-04   1012.98654078    4.11393615E-09   1.05206132E+15   2.59101565E+09   0.00000000E+00   3.41589677E+06   0.28975326      
  14               2.69153480E-07   1.85997106E-04   1005.05668703    5.24152895E-09   1.34042176E+15   2.59101565E+09   0.00000000E+00   3.38943264E+06   0.29079431      
  15               3.46736850E-07   2.35083442E-04   1038.85743926    6.40926728E-09   1.63904896E+15   2.59101565E+09   0.00000000E+00   3.36265159E+06   0.28893444      
  16               4.46683592E-07   2.96975607E-04   1032.38308213    8.14745978E-09   2.08355869E+15   2.59101565E+09   0.00000000E+00   3.33556712E+06   0.28994005      
  17               5.75439937E-07   3.75008158E-04   1066.47001605    9.95942624E-09   2.54693526E+15   2.59101565E+09   0.00000000E+00   3.30817362E+06   0.2880325       
  18               7.41310241E-07   4.73228520E-04   1061.09804696    1.26315803E-08   3.23028793E+15   2.59101565E+09   0.00000000E+00   3.28048154E+06   0.28902214      
  19               9.54992586E-07   5.96831413E-04   1095.53873445    1.54300068E-08   3.94593363E+15   2.59101565E+09   0.00000000E+00   3.25248420E+06   0.28705506      
  20               1.23026877E-06   7.52112349E-04   1091.17642983    1.95222544E-08   4.99244837E+15   2.59101565E+09   0.00000000E+00   3.22419178E+06   0.28803353      
  21               1.58489319E-06   9.47079962E-04   1126.29762003    2.38163726E-08   6.09058938E+15   2.59101565E+09   0.00000000E+00   3.19559877E+06   0.28598925      
  22               2.04173794E-06   1.19146830E-03   1122.99565971    3.00501474E-08   7.68475905E+15   2.59101564E+09   0.00000000E+00   3.16671065E+06   0.28696143      
  23               2.63026799E-06   1.49786734E-03   1159.09592173    3.66012582E-08   9.36008546E+15   2.59101564E+09   0.00000000E+00   3.13749496E+06   0.2848279       
  24               3.38844156E-06   1.88171212E-03   1156.83332075    4.60706659E-08   1.17817074E+16   2.59101564E+09   0.00000000E+00   3.10793557E+06   0.28579356      
  25               4.36515832E-06   2.36251994E-03   1194.08916354    5.60377933E-08   1.43306063E+16   2.59101564E+09   0.00000000E+00   3.07801162E+06   0.28355416      
  26               5.62341325E-06   2.96413771E-03   1192.85473836    7.03806353E-08   1.79985142E+16   2.59101564E+09   0.00000000E+00   3.04771784E+06   0.28452112      
  27               7.24435960E-06   3.71661569E-03   1231.21938711    8.54978418E-08   2.18644245E+16   2.59101564E+09   0.00000000E+00   3.01704246E+06   0.28218214      
  28               9.33254301E-06   4.65661408E-03   1230.94036551    1.07146045E-07   2.74005369E+16   2.59101563E+09   0.00000000E+00   2.98598532E+06   0.28314737      
  29               1.20226443E-05   5.82956177E-03   1270.28291813    1.29981795E-07   3.32400210E+16   2.59101563E+09   0.00000000E+00   2.95455491E+06   0.28070209      
  30               1.54881662E-05   7.29072781E-03   1270.93290255    1.62478214E-07   4.15502940E+16   2.59101562E+09   0.00000000E+00   2.92275977E+06   0.28167167      
  31               1.99526231E-05   9.10712936E-03   1311.21465368    1.96728011E-07   5.03075944E+16   2.59101562E+09   0.00000000E+00   2.89063185E+06   0.27912611      
  32               2.57039578E-05   1.13614288E-02   1312.78614946    2.45129985E-07   6.26851698E+16   2.59101561E+09   0.00000000E+00   2.85816947E+06   0.28142648      
  33               3.31131121E-05   1.41445901E-02   1354.00045249    2.95911814E-07   7.56654114E+16   2.59101561E+09   0.00000000E+00   2.82549091E+06   0.27927164      
  34               4.26579519E-05   1.75688656E-02   1356.49588286    3.66866932E-07   9.38104199E+16   2.59101558E+09   0.00000000E+00   2.79262593E+06   0.28030202      
  35               5.49540874E-05   2.16613159E-02   1398.79913868    4.38842159E-07   1.12164473E+17   2.59101557E+09   0.00000000E+00   2.76037008E+06   0.27637425      
  36               7.07945784E-05   2.65499741E-02   1402.18060681    5.36584569E-07   1.37146897E+17   2.59101555E+09   0.00000000E+00   2.72851223E+06   0.27755064      
  37               9.12010839E-05   3.25427620E-02   1445.35823238    6.38104729E-07   1.63081519E+17   2.59101554E+09   0.00000000E+00   2.69612537E+06   0.27404435      
  38               1.17489755E-04   3.98007725E-02   1449.86242054    7.77994992E-07   1.98833954E+17   2.59101544E+09   0.00000000E+00   2.66355046E+06   0.27515039      
  39               1.51356125E-04   4.85941645E-02   1494.51525281    9.21658298E-07   2.35510138E+17   2.59101530E+09   0.00000000E+00   2.63071152E+06   0.27151821      
  40               1.94984460E-04   5.92039590E-02   1501.09099613    1.11794659E-06   2.85673246E+17   2.59101545E+09   0.00000000E+00   2.59765848E+06   0.27270456      
  41               2.51188643E-04   7.09162513E-02   1547.58597717    1.29998887E-06   3.31907315E+17   2.59101726E+09   0.00000000E+00   2.56693271E+06   0.26880104      
  42               3.23593657E-04   8.30638000E-02   1554.81300398    1.51556401E-06   3.86954116E+17   2.59101515E+09   0.00000000E+00   2.53956543E+06   0.26998982      
  43               4.16869383E-04   9.65630734E-02   1601.69227116    1.71205804E-06   4.36674508E+17   2.59101275E+09   0.00000000E+00   2.51306260E+06   0.26608699      
  44               5.37031796E-04   1.11219959E-01   1612.76313015    1.95829610E-06   4.99502865E+17   2.59101488E+09   0.00000000E+00   2.48774962E+06   0.26704016      
  45               6.91830971E-04   1.26074227E-01   1653.33147569    2.16750223E-06   5.52321843E+17   2.59101443E+09   0.00000000E+00   2.46494562E+06   0.26366089      
  46               8.91250938E-04   1.39196937E-01   1658.93373379    2.38502817E-06   6.07752115E+17   2.59101510E+09   0.00000000E+00   2.44669418E+06   0.26488597      
  47               1.14815362E-03   1.55049372E-01   1694.30556276    2.60107951E-06   6.62832986E+17   2.59101513E+09   0.00000000E+00   2.42656746E+06   0.26113361      
  48               1.47910839E-03   1.74060013E-01   1704.28874170    2.90287693E-06   7.39744383E+17   2.59101480E+09   0.00000000E+00   2.40468956E+06   0.26234082      
  49               1.90546072E-03   1.96691821E-01   1744.90397011    3.20376956E-06   8.16470712E+17   2.59101473E+09   0.00000000E+00   2.38122161E+06   0.25814621      
  50               2.45470892E-03   2.23389770E-01   1760.62547100    3.60607733E-06   9.19014025E+17   2.59101512E+09   0.00000000E+00   2.35638285E+06   0.25912283      
  51               3.16227766E-03   2.54680909E-01   1806.24072569    4.00699570E-06   1.02128417E+18   2.59102407E+09   0.00000000E+00   2.33035155E+06   0.25391491      
  52               4.07380278E-03   2.90609182E-01   1833.19642328    4.50478399E-06   1.14822281E+18   2.59101323E+09   0.00000000E+00   2.30360976E+06   0.25425239      
  53               5.24807460E-03   3.31415418E-01   1884.26510476    4.99730838E-06   1.27396220E+18   2.59099309E+09   0.00000000E+00   2.27641257E+06   0.24832898      
  54               6.76082975E-03   3.77940906E-01   1910.79760662    5.61926730E-06   1.43263333E+18   2.59100796E+09   0.00000000E+00   2.24864847E+06   0.24815276      
  55               8.70963590E-03   4.32442683E-01   1953.57671675    6.28769861E-06   1.60333370E+18   2.59100760E+09   0.00000000E+00   2.21965321E+06   0.24277581      
  56               1.12201845E-02   4.96127174E-01   1982.27244009    7.10841651E-06   1.81282346E+18   2.59100612E+09   0.00000000E+00   2.18952994E+06   0.24239028      
  57               1.44543977E-02   5.70398191E-01   2027.78713195    7.98711262E-06   2.03742493E+18   2.59100778E+09   0.00000000E+00   2.15835964E+06   0.2361792       
  58               1.86208714E-02   6.56709805E-01   2061.04739402    9.04562213E-06   2.30787011E+18   2.59100695E+09   0.00000000E+00   2.12624845E+06   0.23518162      
  59               2.39883292E-02   7.56817159E-01   2110.47868939    1.01765879E-05   2.59738207E+18   2.59100869E+09   0.00000000E+00   2.09325332E+06   0.22829353      
  60               3.09029543E-02   8.72535098E-01   2149.31643346    1.15170507E-05   2.94041335E+18   2.59100768E+09   0.00000000E+00   2.05945218E+06   0.226531        
  61               3.98107171E-02   1.00604986E+00   2203.69180114    1.29444458E-05   3.30669766E+18   2.59100983E+09   0.00000000E+00   2.02487231E+06   0.21895425      
  62               5.12861384E-02   1.15954716E+00   2249.84314045    1.46057159E-05   3.73303462E+18   2.59100721E+09   0.00000000E+00   1.98957007E+06   0.21604396      
  63               6.60693448E-02   1.33525504E+00   2314.66625862    1.63320181E-05   4.17831988E+18   2.58980859E+09   1.36470681E+06   1.95359329E+06   0.20686051      
  64               8.51138038E-02   1.53384084E+00   2383.88160380    1.81945571E-05   4.66038134E+18   2.57827791E+09   1.27004634E+07   1.91716099E+06   0.19963483      
  65               1.09647820E-01   1.75909869E+00   2445.63708464    2.03124869E-05   5.20983577E+18   2.55637046E+09   3.46018359E+07   1.88010642E+06   0.19111768      
  66               1.41253754E-01   2.01569154E+00   2511.67391012    2.26247212E-05   5.81281710E+18   2.52299299E+09   6.79769252E+07   1.84225433E+06   0.18490513      
  67               1.81970086E-01   2.30830819E+00   2571.67716853    2.52608254E-05   6.50134454E+18   2.47608668E+09   1.14882488E+08   1.80354647E+06   0.17731142      
  68               2.34422882E-01   2.64242119E+00   2635.22279074    2.81601423E-05   7.26290804E+18   2.41387352E+09   1.77094594E+08   1.76393039E+06   0.17214633      
  69               3.01995172E-01   3.02379795E+00   2694.07284917    3.14535759E-05   8.12960179E+18   2.33372927E+09   2.57237662E+08   1.72340583E+06   0.16548803      
  70               3.89045145E-01   3.45910454E+00   2755.37789842    3.50938770E-05   9.09302439E+18   2.23436592E+09   3.56599399E+08   1.68197117E+06   0.16134936      
  71               5.01187234E-01   3.95526520E+00   2813.42370921    3.92016142E-05   1.01827787E+19   2.11328204E+09   4.77682831E+08   1.63966812E+06   0.15575123      
  72               6.45654229E-01   4.52028616E+00   2872.69282579    4.37555914E-05   1.13973157E+19   1.97103163E+09   6.19930619E+08   1.59652474E+06   0.15287579      
  73               8.31763771E-01   5.16221329E+00   2930.39793760    4.88457171E-05   1.27595449E+19   1.80605505E+09   7.84903427E+08   1.55261377E+06   0.14828732      
  74               1.07151931E+00   5.89047785E+00   2987.78968104    5.45022700E-05   1.42799387E+19   1.62256944E+09   9.68383766E+08   1.50797772E+06   0.14554719      
  75               1.38038426E+00   6.71488358E+00   3044.79920843    6.07765617E-05   1.59737053E+19   1.42458414E+09   1.16636243E+09   1.46267936E+06   0.14251745      
  76               1.77827941E+00   7.64592798E+00   3101.01964152    6.77318807E-05   1.78587692E+19   1.22099757E+09   1.36994675E+09   1.41678896E+06   0.14018242      
  77               2.29086765E+00   8.69511495E+00   3157.20123451    7.54044576E-05   1.99479790E+19   1.02217694E+09   1.56876893E+09   1.37036162E+06   0.13808422      
  78               2.95120923E+00   9.87552653E+00   3212.62080961    8.38813241E-05   2.22652016E+19   8.38686593E+08   1.75225866E+09   1.32342440E+06   0.1361728       
  79               3.80189396E+00   1.12021487E+01   3268.09003696    9.32110085E-05   2.48275097E+19   6.79337207E+08   1.91161139E+09   1.27597879E+06   0.13504934      
  80               4.89778819E+00   1.26915314E+01   3323.39728295    1.03480348E-04   2.76603460E+19   5.46027391E+08   2.04492898E+09   1.22802110E+06   0.13341987      
  81               6.30957344E+00   1.43633720E+01   3378.35615021    1.14797296E-04   3.07947595E+19   4.39049569E+08   2.15191564E+09   1.17951302E+06   0.13235711      
  82               8.12830516E+00   1.62397583E+01   3433.68621570    1.27236635E-04   3.42566425E+19   3.54165373E+08   2.23681123E+09   1.13041497E+06   0.13153226      
  83               1.04712855E+01   1.83457909E+01   3488.92426476    1.40941825E-04   3.80864713E+19   2.85855322E+08   2.30513458E+09   1.08068107E+06   0.13046804      
  84               1.34896288E+01   2.07108378E+01   3544.43225866    1.56035925E-04   4.23230373E+19   2.31376364E+08   2.35962663E+09   1.03024739E+06   0.13000639      
  85               1.73780083E+01   2.33675916E+01   3600.46047408    1.72654035E-04   4.70090793E+19   1.87027377E+08   2.40398016E+09   9.79059900E+05   0.1292472       
  86               2.23872114E+01   2.63543475E+01   3656.60679929    1.91003521E-04   5.22035270E+19   1.51681057E+08   2.43932986E+09   9.27047915E+05   0.12906138      
  87               2.88403150E+01   2.97138518E+01   3713.89632080    2.11196601E-04   5.79502104E+19   1.23517943E+08   2.46749447E+09   8.74151743E+05   0.12895212      
  88               3.71535229E+01   3.34949001E+01   3771.46420759    2.33517480E-04   6.43271835E+19   1.00933128E+08   2.49007638E+09   8.20309653E+05   0.12897363      
  89               4.78630092E+01   3.77532033E+01   3830.42003576    2.58101469E-04   7.13893202E+19   8.29037564E+07   2.50809618E+09   7.65457323E+05   0.12907951      
  90               6.16595002E+01   4.25525373E+01   3889.83408745    2.85308245E-04   7.92355766E+19   6.81487023E+07   2.52283916E+09   7.09527725E+05   0.12929111      
  91               7.94328235E+01   4.79661298E+01   3950.87764459    3.15306889E-04   8.79360468E+19   5.61548864E+07   2.53481814E+09   6.52448839E+05   0.12955914      
  92               1.02329299E+02   5.40781150E+01   4012.55290534    3.48556387E-04   9.76172599E+19   4.62221575E+07   2.54472852E+09   5.94145626E+05   0.12991122      
  93               1.31825674E+02   6.09854753E+01   4076.10237898    3.85270864E-04   1.08369525E+20   3.81574947E+07   2.55276655E+09   5.34537355E+05   0.13033294      
  94               1.69824365E+02   6.87995366E+01   4140.48773760    4.26030667E-04   1.20353812E+20   3.15225915E+07   2.55937336E+09   4.73543410E+05   0.13087555      
  95               2.18776162E+02   7.76484595E+01   4207.04500914    4.71098559E-04   1.33684644E+20   2.61476267E+07   2.56471857E+09   4.11079684E+05   0.13153536      
  96               2.81838293E+02   8.76800121E+01   4274.70701680    5.21203362E-04   1.48566224E+20   2.16854647E+07   2.56914130E+09   3.47058792E+05   0.13234849      
  97               3.63078055E+02   9.90652747E+01   4344.90353417    5.76673149E-04   1.65145654E+20   1.80306392E+07   2.57275071E+09   2.81385613E+05   0.13326229      
  98               4.67735141E+02   1.12002505E+02   4416.49363069    6.38439617E-04   1.83685962E+20   1.49701641E+07   2.57575976E+09   2.13959306E+05   0.13424799      
  99               6.02559586E+02   1.26723147E+02   4490.94349791    7.06943074E-04   2.04382731E+20   1.24641421E+07   2.57820429E+09   1.44666518E+05   0.13527257      
  100              7.76247117E+02   1.43496320E+02   4567.05534044    7.83385033E-04   2.27578027E+20   1.03848924E+07   2.58021277E+09   7.33897025E+04   0.13637194      
  101              1.00000000E+03   1.62636848E+02   4646.40129411    8.68339660E-04   2.53529250E+20   9.49875490E+06   2.58104212E+09   0.00000000E+00   0.13755102      
