# ATMO pressure-temperature profile
# Effective temperature = 250.0K
# log(g) = 4.5cm/s^2
# M/H = 0.0
# Optical depth grid in band 17 (1.20-1.33microns)
# All parameters in cgs units
#
# Model Level      Optical Depth    Pressure         Temperature      Density          Number Density   Rad Flux         Conv Flux        Radial Extension Adiabatic Gradient
#                                   [Ba]             [K]              [g/cm^3]         [/cm^3]          [ergs/s/cm^2/sr] [ergs/s/cm^2/sr] [cm]             [K/Ba]          
  1                5.00000000E-05   1.00000000E-05   41.21168577      6.83891219E-09   1.75754098E+15   2.21463939E+05   0.00000000E+00   6.88396348E+06   0.34612403      
  2                5.91534807E-05   1.46646646E-03   49.91179718      8.28087700E-07   2.12811340E+17   2.21463913E+05   0.00000000E+00   6.27193898E+06   0.31481548      
  3                6.99826855E-05   3.15114992E-03   58.20198183      1.52594437E-06   3.92154437E+17   2.21463827E+05   0.00000000E+00   6.22454635E+06   0.31484385      
  4                8.27943887E-05   5.10723911E-03   60.25185078      2.38903882E-06   6.13962208E+17   2.21463770E+05   0.00000000E+00   6.19214913E+06   0.31486363      
  5                9.79515255E-05   7.37468732E-03   65.41582519      3.17737295E-06   8.16557227E+17   2.21463719E+05   0.00000000E+00   6.16612407E+06   0.31487984      
  6                1.15883473E-04   1.00012305E-02   66.83086687      4.21777830E-06   1.08393236E+18   2.21463580E+05   0.00000000E+00   6.14343543E+06   0.31489416      
  7                1.37098216E-04   1.30355986E-02   71.09946808      5.16739946E-06   1.32797674E+18   2.21463411E+05   0.00000000E+00   6.12288171E+06   0.31490739      
  8                1.62196734E-04   1.65305612E-02   72.44974679      6.43069826E-06   1.65263355E+18   2.21463104E+05   0.00000000E+00   6.10370927E+06   0.31491995      
  9                1.91890027E-04   2.05425138E-02   76.35700449      7.58249462E-06   1.94863520E+18   2.21462707E+05   0.00000000E+00   6.08554070E+06   0.31493213      
  10               2.27019260E-04   2.51450866E-02   77.82089353      9.10676920E-06   2.34036052E+18   2.21462126E+05   0.00000000E+00   6.06802561E+06   0.31494412      
  11               2.68579588E-04   3.04318015E-02   81.64024952      1.05058391E-05   2.69990932E+18   2.21461394E+05   0.00000000E+00   6.05093379E+06   0.31495605      
  12               3.17748350E-04   3.65212319E-02   83.48018627      1.23301800E-05   3.16874906E+18   2.21460244E+05   0.00000000E+00   6.03401471E+06   0.31496805      
  13               3.75918418E-04   4.35678594E-02   87.33711794      1.40596585E-05   3.61321002E+18   2.21458741E+05   0.00000000E+00   6.01709047E+06   0.3149802       
  14               4.44737657E-04   5.17531261E-02   89.67764828      1.62652141E-05   4.18001863E+18   2.21456493E+05   0.00000000E+00   5.99997395E+06   0.3149926       
  15               5.26155608E-04   6.12856497E-02   93.81689067      1.84113302E-05   4.73155180E+18   2.21453333E+05   0.00000000E+00   5.98255446E+06   0.31500533      
  16               6.22478712E-04   7.24186581E-02   96.86170878      2.10719998E-05   5.41532077E+18   2.21448325E+05   0.00000000E+00   5.96468065E+06   0.31501846      
  17               7.36435649E-04   8.54602169E-02   101.41331360     2.37506999E-05   6.10372358E+18   2.21441097E+05   0.00000000E+00   5.94624585E+06   0.31503207      
  18               8.71254639E-04   1.00780419E-01   105.67065333     2.68799944E-05   6.90792488E+18   2.21429115E+05   0.00000000E+00   5.92707190E+06   0.31504624      
  19               1.03075489E-03   1.18757024E-01   111.49924680     3.00189178E-05   7.71459642E+18   2.21407439E+05   5.61945864E+01   5.90705966E+06   0.31506108      
  20               1.21945479E-03   1.39573695E-01   117.08807927     3.35969297E-05   8.63409321E+18   2.21364612E+05   9.92492325E+01   5.88633132E+06   0.31507671      
  21               1.44269991E-03   1.62395738E-01   123.05399148     3.71958452E-05   9.55883054E+18   2.21291461E+05   1.75791605E+02   5.86591586E+06   0.31509331      
  22               1.70681442E-03   1.84270277E-01   127.79952860     4.06399340E-05   1.04436396E+19   2.21189269E+05   2.83437402E+02   5.84812413E+06   0.31511111      
  23               2.01928028E-03   2.00757908E-01   131.55787182     4.30202727E-05   1.10530380E+19   2.21074707E+05   4.24486334E+02   5.83565435E+06   0.31513038      
  24               2.38894914E-03   2.14094417E-01   133.98618786     4.50430226E-05   1.15736715E+19   2.20967736E+05   5.24087747E+02   5.82607377E+06   0.31515143      
  25               2.82629313E-03   2.24559496E-01   136.28615298     4.64749079E-05   1.19345358E+19   2.20879842E+05   5.91842322E+02   5.81884018E+06   0.31517461      
  26               3.34370152E-03   2.32374111E-01   137.49113936     4.76707382E-05   1.22416193E+19   2.20820004E+05   6.31099502E+02   5.81359002E+06   0.3152004       
  27               3.95583167E-03   2.41590793E-01   139.46300735     4.88607579E-05   1.25472107E+19   2.20784142E+05   6.63495874E+02   5.80755097E+06   0.31781339      
  28               4.68002425E-03   2.52456965E-01   141.16137559     5.04440934E-05   1.29538038E+19   2.20768542E+05   6.83285432E+02   5.80062961E+06   0.31988058      
  29               5.53679448E-03   2.65262813E-01   143.69607576     5.20679296E-05   1.33707972E+19   2.20773049E+05   6.75639067E+02   5.79272796E+06   0.32365296      
  30               6.55041330E-03   2.80348618E-01   146.03121082     5.41491421E-05   1.39052427E+19   2.20797507E+05   6.55713192E+02   5.78374359E+06   0.3244044       
  31               7.74959494E-03   2.98113439E-01   149.24297830     5.63412521E-05   1.44681661E+19   2.20842558E+05   6.08092001E+02   5.77357287E+06   0.32604911      
  32               9.16831029E-03   3.19025298E-01   152.31608284     5.90769693E-05   1.51706853E+19   2.20908351E+05   5.46857531E+02   5.76211061E+06   0.32608775      
  33               1.08467493E-02   3.43633221E-01   156.32123106     6.20034747E-05   1.59221978E+19   2.20994056E+05   4.59289472E+02   5.74925307E+06   0.32580666      
  34               1.28324595E-02   3.72581793E-01   160.21530658     6.55928452E-05   1.68439314E+19   2.21100002E+05   3.57677022E+02   5.73489848E+06   0.32595659      
  35               1.51816929E-02   4.06629218E-01   165.13781169     6.94529903E-05   1.78351964E+19   2.21219616E+05   2.37184503E+02   5.71894664E+06   0.32540331      
  36               1.79609996E-02   4.46664296E-01   169.95449355     7.41288784E-05   1.90359444E+19   2.21345144E+05   1.15709738E+02   5.70130246E+06   0.32544606      
  37               2.12491128E-02   4.93729410E-01   175.90513380     7.91680085E-05   2.03299506E+19   2.21440296E+05   0.00000000E+00   5.68187435E+06   0.32516985      
  38               2.51391797E-02   5.49051099E-01   181.64585269     8.52562854E-05   2.18933953E+19   2.21449240E+05   0.00000000E+00   5.66058034E+06   0.32517054      
  39               2.97413996E-02   6.14075227E-01   188.17138209     9.20465723E-05   2.36370809E+19   2.21379220E+05   8.43977378E+01   5.63736861E+06   0.3249416       
  40               3.51861462E-02   6.90415819E-01   195.68454186     9.95166106E-05   2.55552453E+19   2.20936967E+05   5.24686609E+02   5.61214517E+06   0.32492243      
  41               4.16276604E-02   7.79797013E-01   203.36093753     1.08158323E-04   2.77740921E+19   2.19680625E+05   1.77782342E+03   5.58490126E+06   0.3244275       
  42               4.92484201E-02   8.84180070E-01   212.03609039     1.17623037E-04   3.02034653E+19   2.16606896E+05   4.85196660E+03   5.55563569E+06   0.32422568      
  43               5.82643093E-02   1.00570861E+00   220.84698424     1.28447366E-04   3.29842441E+19   2.10215003E+05   1.12443209E+04   5.52436931E+06   0.32286578      
  44               6.89307339E-02   1.14565778E+00   230.53498686     1.40372177E-04   3.59951429E+19   1.98512502E+05   2.29460447E+04   5.49140008E+06   0.32230872      
  45               8.15498567E-02   1.30455002E+00   240.16448446     1.53344669E-04   3.93439348E+19   1.84558023E+05   3.68992217E+04   5.45715267E+06   0.32005318      
  46               9.64791575E-02   1.48295998E+00   250.38412388     1.67928626E-04   4.28991297E+19   1.71905023E+05   4.95459796E+04   5.42197107E+06   0.31908572      
  47               1.14141560E-01   1.67672103E+00   260.18921861     1.82714750E-04   4.66764000E+19   1.61089082E+05   6.03582099E+04   5.38699128E+06   0.31665763      
  48               1.35037411E-01   1.90303480E+00   270.96078194     1.99132610E-04   5.08705148E+19   1.54231489E+05   6.72160427E+04   5.34947213E+06   0.31549281      
  49               1.59758657E-01   2.16713718E+00   282.12620083     2.17793582E-04   5.56376557E+19   1.48662243E+05   7.27858537E+04   5.30936897E+06   0.3130799       
  50               1.89005613E-01   2.47476296E+00   294.18795739     2.38512316E-04   6.09304739E+19   1.43748824E+05   7.76997861E+04   5.26668696E+06   0.31180865      
  51               2.23606798E-01   2.83252250E+00   306.69227849     2.61862084E-04   6.68954171E+19   1.39544689E+05   8.19041773E+04   5.22141811E+06   0.30970816      
  52               2.64542408E-01   3.24778700E+00   320.02749298     2.87741394E-04   7.35065584E+19   1.36438002E+05   8.50110061E+04   5.17357853E+06   0.30859606      
  53               3.12972084E-01   3.72877505E+00   333.84672363     3.16680382E-04   8.08993264E+19   1.34580209E+05   8.68685114E+04   5.12319107E+06   0.30699719      
  54               3.70267763E-01   4.28547829E+00   348.46043503     3.48696767E-04   8.90782475E+19   1.34337173E+05   8.71108648E+04   5.07021384E+06   0.30598757      
  55               4.38052539E-01   4.92930647E+00   363.61259934     3.84369552E-04   9.81912382E+19   1.35663136E+05   8.57847255E+04   5.01460145E+06   0.3046987       
  56               5.18246648E-01   5.67265975E+00   379.54392080     4.23766930E-04   1.08255641E+20   1.38388266E+05   8.30597717E+04   4.95635662E+06   0.30380721      
  57               6.13121862E-01   6.52843647E+00   396.01403733     4.67413195E-04   1.19405530E+20   1.41910767E+05   7.95369535E+04   4.89555062E+06   0.30291861      
  58               7.25365844E-01   7.50980094E+00   413.20943101     5.15300504E-04   1.31638838E+20   1.45495445E+05   7.59518754E+04   4.83231678E+06   0.30227553      
  59               8.58158289E-01   8.63278284E+00   430.91265488     5.68020402E-04   1.45106681E+20   1.48197815E+05   7.32494403E+04   4.76667800E+06   0.30164771      
  60               1.01526100E+00   9.91448860E+00   449.32608158     6.25620624E-04   1.59821252E+20   1.48974002E+05   7.24733284E+04   4.69868709E+06   0.30119967      
  61               1.20112443E+00   1.13719170E+01   468.20681973     6.88649222E-04   1.75922662E+20   1.46783834E+05   7.46636003E+04   4.62847164E+06   0.30079368      
  62               1.42101382E+00   1.30220613E+01   487.72888435     7.57022005E-04   1.93386922E+20   1.40227842E+05   8.12197628E+04   4.55619953E+06   0.30056106      
  63               1.68115827E+00   1.48819768E+01   507.63482022     8.31236537E-04   2.12341587E+20   1.28474842E+05   9.29737761E+04   4.48205528E+06   0.30030121      
  64               1.98892727E+00   1.69781368E+01   528.17313172     9.11442189E-04   2.32830335E+20   1.17252503E+05   1.04198000E+05   4.40590043E+06   0.30010887      
  65               2.35303941E+00   1.93431836E+01   549.19179240     9.98663823E-04   2.55111336E+20   1.10959126E+05   1.10493324E+05   4.32750955E+06   0.29990652      
  66               2.78380943E+00   2.20075951E+01   570.91384375     1.09298978E-03   2.79207997E+20   1.05717876E+05   1.15736901E+05   4.24686341E+06   0.29978196      
  67               3.29344035E+00   2.50003135E+01   593.09604321     1.19524624E-03   3.05313683E+20   1.00739925E+05   1.20717743E+05   4.16406243E+06   0.29963714      
  68               3.89636920E+00   2.83467047E+01   615.89930301     1.30505800E-03   3.33364006E+20   9.58653966E+04   1.25595732E+05   4.07933323E+06   0.29950885      
  69               4.60967600E+00   3.20737842E+01   639.04778426     1.42316023E-03   3.63532053E+20   9.14589637E+04   1.30006878E+05   3.99285100E+06   0.29932707      
  70               5.45356761E+00   3.62332739E+01   662.85646949     1.54997603E-03   3.95925904E+20   8.77318228E+04   1.33740006E+05   3.90428834E+06   0.29916305      
  71               6.45195012E+00   4.08754851E+01   687.13018992     1.68678899E-03   4.30873445E+20   8.42337604E+04   1.37245099E+05   3.81349959E+06   0.29899205      
  72               7.63310614E+00   4.60466803E+01   712.10137885     1.83355238E-03   4.68362741E+20   8.06218738E+04   1.40864959E+05   3.72051437E+06   0.29879515      
  73               9.03049593E+00   5.17905717E+01   737.48219756     1.99129643E-03   5.08656975E+20   7.66714818E+04   1.44823884E+05   3.62545573E+06   0.29854775      
  74               1.06837053E+01   5.81507936E+01   763.48734732     2.15968522E-03   5.51670348E+20   7.24410735E+04   1.49064343E+05   3.52846971E+06   0.29823788      
  75               1.26395671E+01   6.51929978E+01   789.87889001     2.34032971E-03   5.97814279E+20   6.83101764E+04   1.53207510E+05   3.42941505E+06   0.29785827      
  76               1.49534878E+01   7.30380216E+01   817.12377795     2.53453081E-03   6.47421313E+20   6.48468191E+04   1.56685321E+05   3.32755427E+06   0.29747091      
  77               1.76910170E+01   8.17965482E+01   845.02883147     2.74473387E-03   7.01115050E+20   6.22696609E+04   1.59280079E+05   3.22254387E+06   0.2970065       
  78               2.09297047E+01   9.15603840E+01   873.85948649     2.97099836E-03   7.58912734E+20   6.07298245E+04   1.60843459E+05   3.11442059E+06   0.29652055      
  79               2.47612977E+01   1.02397664E+02   903.23055681     3.21462792E-03   8.21140110E+20   6.01529094E+04   1.61461407E+05   3.00352752E+06   0.29593754      
  80               2.92943389E+01   1.14348506E+02   933.26797363     3.47426524E-03   8.87462423E+20   6.04922191E+04   1.61177214E+05   2.89044336E+06   0.29532095      
  81               3.46572422E+01   1.27445519E+02   963.52794775     3.75060273E-03   9.58045406E+20   6.17238361E+04   1.60001007E+05   2.77570975E+06   0.29460938      
  82               4.10019301E+01   1.41826015E+02   994.39706354     4.04423650E-03   1.03305135E+21   6.32831500E+04   1.58522912E+05   2.65894677E+06   0.29381371      
  83               4.85081376E+01   1.57640940E+02   1025.64339722    4.35825760E-03   1.11326478E+21   6.45565434E+04   1.57329398E+05   2.53982462E+06   0.29295699      
  84               5.73885036E+01   1.75016413E+02   1057.58069673    4.69251473E-03   1.19864645E+21   6.52694725E+04   1.56617671E+05   2.41832428E+06   0.29192796      
  85               6.78945948E+01   1.94058936E+02   1089.80090555    5.04925931E-03   1.28977015E+21   6.54323397E+04   1.56349840E+05   2.29461337E+06   0.29091945      
  86               8.03240320E+01   2.14861195E+02   1122.60867827    5.42716423E-03   1.38629428E+21   6.51688288E+04   1.56459775E+05   2.16894950E+06   0.28978915      
  87               9.50289215E+01   2.37507776E+02   1155.51205997    5.82842809E-03   1.48877542E+21   6.48331022E+04   1.56662779E+05   2.04161654E+06   0.2886691       
  88               1.12425830E+02   2.62102465E+02   1188.89727182    6.25145618E-03   1.59680769E+21   6.50882994E+04   1.56332807E+05   1.91276923E+06   0.28743703      
  89               1.33007583E+02   2.88959866E+02   1222.51032822    6.70253039E-03   1.71202787E+21   6.63250698E+04   1.55053832E+05   1.78156312E+06   0.28625481      
  90               1.57357229E+02   3.18392966E+02   1256.98668834    7.18267091E-03   1.83467281E+21   6.78996227E+04   1.53460470E+05   1.64741837E+06   0.28493401      
  91               1.86164557E+02   3.50641109E+02   1291.79680751    7.69699521E-03   1.96604957E+21   6.93721494E+04   1.52004811E+05   1.51026667E+06   0.28358985      
  92               2.20245630E+02   3.85899500E+02   1327.43566858    8.24352079E-03   2.10565188E+21   7.05491727E+04   1.50870278E+05   1.37029325E+06   0.28220081      
  93               2.60565913E+02   4.24328000E+02   1363.23711897    8.82636210E-03   2.25453056E+21   7.13603718E+04   1.50113042E+05   1.22782888E+06   0.280764        
  94               3.08267614E+02   4.66087526E+02   1399.69768107    9.44243809E-03   2.41189877E+21   7.18802401E+04   1.49627522E+05   1.08317747E+06   0.27929425      
  95               3.64702046E+02   5.11440764E+02   1436.21809834    1.00977670E-02   2.57929362E+21   7.17215023E+04   1.49769305E+05   9.36300529E+05   0.27778679      
  96               4.31467909E+02   5.59690288E+02   1472.69502795    1.07766774E-02   2.75271209E+21   7.09466943E+04   1.50511740E+05   7.90036345E+05   0.27633381      
  97               5.10456573E+02   6.11766350E+02   1509.09462560    1.14952539E-02   2.93626300E+21   7.02979426E+04   1.51138132E+05   6.42079017E+05   0.27477121      
  98               6.03905660E+02   6.68648148E+02   1546.46061588    1.22604947E-02   3.13173223E+21   6.99265633E+04   1.51486043E+05   4.90562443E+05   0.27327756      
  99               7.14462436E+02   7.31388368E+02   1584.57410863    1.30883274E-02   3.34319211E+21   6.96564248E+04   1.51755791E+05   3.33941427E+05   0.27158196      
  100              8.45258798E+02   8.01164823E+02   1624.29395999    1.39864261E-02   3.57258921E+21   6.93975327E+04   1.52090136E+05   1.70856526E+05   0.26994773      
  101              1.00000000E+03   8.79347250E+02   1665.37374077    1.49709235E-02   3.82449887E+21   6.89973273E+04   1.52582438E+05   0.00000000E+00   0.26823627      
