# ATMO pressure-temperature profile
# Effective temperature = 2600.0K
# log(g) = 4.0cm/s^2
# M/H = 0.0
# Optical depth grid in band 17 (1.20-1.33microns)
# All parameters in cgs units
#
# Model Level      Optical Depth    Pressure         Temperature      Density          Number Density   Rad Flux         Conv Flux        Radial Extension Adiabatic Gradient
#                                   [Ba]             [K]              [g/cm^3]         [/cm^3]          [ergs/s/cm^2/sr] [ergs/s/cm^2/sr] [cm]             [K/Ba]          
  1                8.00000000E-05   1.00000000E-05   1208.79938929    2.34462719E-10   5.99199728E+13   2.59100896E+09   0.00000000E+00   1.28771488E+08   0.28270903      
  2                9.42017752E-05   1.70744929E-04   1340.36192866    3.61328234E-09   9.22680987E+14   2.59100890E+09   0.00000000E+00   1.11305062E+08   0.27248366      
  3                1.10924681E-04   2.93547965E-04   1448.27514518    5.76057768E-09   1.46809391E+15   2.59100887E+09   0.00000000E+00   1.08612724E+08   0.26571205      
  4                1.30616273E-04   4.04766883E-04   1452.62493939    7.91954488E-09   2.01826094E+15   2.59100900E+09   0.00000000E+00   1.06966096E+08   0.26302233      
  5                1.53803560E-04   5.27591931E-04   1523.02366772    9.84321542E-09   2.50909631E+15   2.59100905E+09   0.00000000E+00   1.05574936E+08   0.25691135      
  6                1.81107105E-04   6.63808492E-04   1519.50663893    1.24140810E-08   3.16421542E+15   2.59100905E+09   0.00000000E+00   1.04342669E+08   0.25470562      
  7                2.13257635E-04   8.15527204E-04   1583.98356791    1.46256443E-08   3.72918235E+15   2.59100898E+09   0.00000000E+00   1.03216678E+08   0.24804622      
  8                2.51115597E-04   9.83243768E-04   1581.48035972    1.76628496E-08   4.50322078E+15   2.59100875E+09   0.00000000E+00   1.02173187E+08   0.24475767      
  9                2.95694188E-04   1.16457101E-03   1650.24435779    2.00371497E-08   5.11144341E+15   2.59100845E+09   0.00000000E+00   1.01209286E+08   0.23477985      
  10               3.48186468E-04   1.34797712E-03   1660.98538216    2.30418408E-08   5.87817551E+15   2.59100852E+09   0.00000000E+00   1.00355719E+08   0.23094512      
  11               4.09997292E-04   1.55476946E-03   1694.43434899    2.60426975E-08   6.64610342E+15   2.59100856E+09   0.00000000E+00   9.95115352E+07   0.22651927      
  12               4.82780909E-04   1.78859479E-03   1702.03832709    2.98254029E-08   7.61146869E+15   2.59100859E+09   0.00000000E+00   9.86725479E+07   0.22370133      
  13               5.68485234E-04   2.05358224E-03   1733.55946754    3.36080607E-08   8.58023523E+15   2.59100862E+09   0.00000000E+00   9.78355686E+07   0.21960191      
  14               6.69403978E-04   2.35398434E-03   1740.58673126    3.83691710E-08   9.79566085E+15   2.59100864E+09   0.00000000E+00   9.69990222E+07   0.21710004      
  15               7.88238038E-04   2.69486052E-03   1771.35364092    4.31428718E-08   1.10193723E+16   2.59100865E+09   0.00000000E+00   9.61611933E+07   0.2132733       
  16               9.28167781E-04   3.08151929E-03   1778.46481442    4.91364460E-08   1.25500499E+16   2.59100867E+09   0.00000000E+00   9.53214018E+07   0.21088689      
  17               1.09293816E-03   3.52028510E-03   1808.94375987    5.51586649E-08   1.40954392E+16   2.59100868E+09   0.00000000E+00   9.44785936E+07   0.20693556      
  18               1.28695893E-03   4.01779536E-03   1816.51313159    6.26923723E-08   1.60204648E+16   2.59100868E+09   0.00000000E+00   9.36325596E+07   0.20440666      
  19               1.51542270E-03   4.58194364E-03   1846.99074962    7.02742483E-08   1.79684602E+16   2.59100868E+09   0.00000000E+00   9.27826106E+07   0.20046679      
  20               1.78444386E-03   5.22098317E-03   1855.29161959    7.97168913E-08   2.03828989E+16   2.59100868E+09   0.00000000E+00   9.19288139E+07   0.19801237      
  21               2.10122224E-03   5.94471010E-03   1885.98589106    8.92301286E-08   2.28306397E+16   2.59100868E+09   0.00000000E+00   9.10706913E+07   0.1942488       
  22               2.47423582E-03   6.76327509E-03   1895.31523105    1.01014310E-07   2.58464820E+16   2.59100867E+09   0.00000000E+00   9.02084954E+07   0.19168994      
  23               2.91346758E-03   7.68871301E-03   1926.46040153    1.12892473E-07   2.89080904E+16   2.59100866E+09   0.00000000E+00   8.93418737E+07   0.18759804      
  24               3.43067273E-03   8.73338640E-03   1937.09056547    1.27518679E-07   3.26556693E+16   2.59100865E+09   0.00000000E+00   8.84711885E+07   0.18474622      
  25               4.03969326E-03   9.91193519E-03   1968.91566209    1.42259219E-07   3.64634015E+16   2.59100864E+09   0.00000000E+00   8.75961493E+07   0.1805639       
  26               4.75682846E-03   1.12391817E-02   1981.19884551    1.60285946E-07   4.10896524E+16   2.59100863E+09   0.00000000E+00   8.67172000E+07   0.17806271      
  27               5.60127107E-03   1.27326132E-02   2014.06936771    1.78429082E-07   4.57898227E+16   2.59100861E+09   0.00000000E+00   8.58340936E+07   0.1738986       
  28               6.59562098E-03   1.44095243E-02   2028.57742508    2.00433219E-07   5.14498243E+16   2.59100860E+09   0.00000000E+00   8.49473607E+07   0.17045788      
  29               7.76649006E-03   1.62904312E-02   2063.13783454    2.22506296E-07   5.71913273E+16   2.59100859E+09   0.00000000E+00   8.40566809E+07   0.16550598      
  30               9.14521438E-03   1.83949876E-02   2080.97495945    2.48980678E-07   6.40263118E+16   2.59100859E+09   0.00000000E+00   8.31625362E+07   0.16144402      
  31               1.07686929E-02   2.07447094E-02   2119.32270266    2.75213166E-07   7.08983463E+16   2.59100858E+09   0.00000000E+00   8.22648716E+07   0.15620688      
  32               1.26803748E-02   2.33352977E-02   2157.64496486    3.03466491E-07   7.83356049E+16   2.58872395E+09   2.27370184E+06   8.13684238E+07   0.1491258       
  33               1.49314227E-02   2.61958412E-02   2194.39562194    3.34238521E-07   8.64655804E+16   2.58408015E+09   6.90905380E+06   8.04702074E+07   0.14282287      
  34               1.75820816E-02   2.93612308E-02   2229.67759721    3.67863462E-07   9.53801557E+16   2.57703664E+09   1.39458243E+07   7.95674502E+07   0.13736403      
  35               2.07032912E-02   3.28691897E-02   2263.97989423    4.04606534E-07   1.05157989E+17   2.56745253E+09   2.35254295E+07   7.86581449E+07   0.1325283       
  36               2.43785848E-02   3.67606828E-02   2297.21889489    4.44856336E-07   1.15906296E+17   2.55514070E+09   3.58351005E+07   7.77408599E+07   0.12803483      
  37               2.87063246E-02   4.10621048E-02   2329.57011869    4.88801151E-07   1.27670706E+17   2.53985648E+09   5.11162876E+07   7.68183696E+07   0.12393573      
  38               3.38023342E-02   4.58205137E-02   2360.97764017    5.36778986E-07   1.40570412E+17   2.52147684E+09   6.94934701E+07   7.58893796E+07   0.12039361      
  39               3.98029987E-02   5.11076015E-02   2391.95620575    5.89357472E-07   1.54759784E+17   2.49994206E+09   9.10313213E+07   7.49493484E+07   0.11740447      
  40               4.68689142E-02   5.69800929E-02   2422.38385688    6.47021063E-07   1.70375063E+17   2.47506199E+09   1.15917306E+08   7.39983359E+07   0.11481398      
  41               5.51891865E-02   6.34991355E-02   2452.54721522    7.10134766E-07   1.87532384E+17   2.44664229E+09   1.44342739E+08   7.30365764E+07   0.1125119       
  42               6.49864917E-02   7.07277358E-02   2482.24633471    7.79231615E-07   2.06381477E+17   2.41448708E+09   1.76504664E+08   7.20648090E+07   0.11048133      
  43               7.65230361E-02   7.87262773E-02   2511.73035042    8.54604998E-07   2.27024403E+17   2.37835596E+09   2.12643946E+08   7.10846277E+07   0.10865758      
  44               9.01075730E-02   8.75749812E-02   2540.79779674    9.36941027E-07   2.49652425E+17   2.33808668E+09   2.52922852E+08   7.00957287E+07   0.10706237      
  45               1.06103667E-01   9.73603171E-02   2569.77022092    1.02669109E-06   2.74418589E+17   2.29351626E+09   2.97502031E+08   6.90980040E+07   0.1056172       
  46               1.24939422E-01   1.08175432E-01   2598.38877949    1.12465298E-06   3.01543760E+17   2.24452460E+09   3.46501745E+08   6.80915069E+07   0.10432626      
  47               1.47118942E-01   1.20120390E-01   2626.97776620    1.23130249E-06   3.31196833E+17   2.19099362E+09   4.00039970E+08   6.70764195E+07   0.10313189      
  48               1.73235819E-01   1.33302573E-01   2655.23558301    1.34756437E-06   3.63631345E+17   2.13283206E+09   4.58208009E+08   6.60530318E+07   0.10207511      
  49               2.03989021E-01   1.47836911E-01   2683.51316067    1.47391753E-06   3.99029488E+17   2.06992886E+09   5.21119851E+08   6.50217108E+07   0.10113451      
  50               2.40201599E-01   1.63846287E-01   2711.48830743    1.61141420E-06   4.37677991E+17   2.00219196E+09   5.88865558E+08   6.39828828E+07   0.10033819      
  51               2.82842712E-01   1.81461902E-01   2739.53447592    1.76052304E-06   4.79771592E+17   1.92950645E+09   6.61558642E+08   6.29370005E+07   0.099634781     
  52               3.33053570E-01   2.00824014E-01   2767.29447789    1.92245948E-06   5.25637216E+17   1.85179769E+09   7.39274244E+08   6.18845244E+07   0.099038537     
  53               3.92177970E-01   2.22082754E-01   2795.15967031    2.09768371E-06   5.75485059E+17   1.76902788E+09   8.22049837E+08   6.08258854E+07   0.098508072     
  54               4.61798262E-01   2.45399016E-01   2822.74492390    2.28761080E-06   6.29690325E+17   1.68124976E+09   9.09833538E+08   5.97614817E+07   0.098069586     
  55               5.43777701E-01   2.70945247E-01   2850.46758623    2.49267994E-06   6.88479907E+17   1.58857437E+09   1.00251631E+09   5.86916608E+07   0.097716247     
  56               6.40310309E-01   2.98906294E-01   2877.93379916    2.71451559E-06   7.52281010E+17   1.49126875E+09   1.09982801E+09   5.76167261E+07   0.097456474     
  57               7.53979598E-01   3.29480667E-01   2905.57723693    2.95353457E-06   8.21340715E+17   1.38975885E+09   1.20134178E+09   5.65369130E+07   0.09723625      
  58               8.87827707E-01   3.62882255E-01   2932.96936236    3.21166484E-06   8.96156883E+17   1.28477791E+09   1.30632527E+09   5.54523901E+07   0.097061994     
  59               1.04543683E+00   3.99342164E-01   2960.56021634    3.48931859E-06   9.77005723E+17   1.17735911E+09   1.41374437E+09   5.43632393E+07   0.096893953     
  60               1.23102506E+00   4.39110920E-01   2987.89482175    3.78880285E-06   1.06447330E+18   1.06894497E+09   1.52215836E+09   5.32694641E+07   0.096743595     
  61               1.44955933E+00   4.82460800E-01   3015.44286681    4.11054174E-06   1.15887546E+18   9.61291587E+08   1.62981255E+09   5.21709772E+07   0.096591136     
  62               1.70688827E+00   5.29679404E-01   3042.72865087    4.45722828E-06   1.26088565E+18   8.56393686E+08   1.73470833E+09   5.10678180E+07   0.09648722      
  63               2.00989882E+00   5.81073365E-01   3070.25608922    4.82912906E-06   1.37082560E+18   7.56282806E+08   1.83481399E+09   4.99600408E+07   0.096426459     
  64               2.36670046E+00   6.36976963E-01   3097.54038056    5.22938037E-06   1.48947284E+18   6.62917580E+08   1.92817341E+09   4.88475743E+07   0.096439115     
  65               2.78684231E+00   6.97754469E-01   3125.11773280    5.65819214E-06   1.61719386E+18   5.77869357E+08   2.01321415E+09   4.77302332E+07   0.09650298      
  66               3.28156866E+00   7.63802384E-01   3152.48607613    6.11928732E-06   1.75490525E+18   5.02176645E+08   2.08890007E+09   4.66077592E+07   0.096635031     
  67               3.86411992E+00   8.35552548E-01   3180.20422184    6.61280990E-06   1.90302546E+18   4.36199264E+08   2.15487085E+09   4.54798189E+07   0.096822206     
  68               4.55008695E+00   9.13474928E-01   3207.75609327    7.14314126E-06   2.06262906E+18   3.79619351E+08   2.21144620E+09   4.43460335E+07   0.097082949     
  69               5.35782835E+00   9.98080619E-01   3235.72262831    7.71031868E-06   2.23419037E+18   3.31521280E+08   2.25953896E+09   4.32059797E+07   0.097366414     
  70               6.30896177E+00   1.08992571E+00   3263.55065769    8.31958422E-06   2.41898057E+18   2.90623424E+08   2.30043300E+09   4.20592127E+07   0.097662922     
  71               7.42894249E+00   1.18961745E+00   3291.82728377    8.97095601E-06   2.61755686E+18   2.55670134E+08   2.33538157E+09   4.09052402E+07   0.097946758     
  72               8.74774463E+00   1.29781867E+00   3319.97636633    9.67067773E-06   2.83142370E+18   2.25464046E+08   2.36558455E+09   3.97435498E+07   0.09822372      
  73               1.03006634E+01   1.41525473E+00   3348.60001148    1.04187411E-05   3.06123859E+18   1.99180172E+08   2.39186433E+09   3.85735877E+07   0.098474791     
  74               1.21292597E+01   1.54271870E+00   3377.10216262    1.12225745E-05   3.30878375E+18   1.76059247E+08   2.41498414E+09   3.73947893E+07   0.098713049     
  75               1.42824725E+01   1.68107947E+00   3406.10381141    1.20821367E-05   3.57483667E+18   1.55765373E+08   2.43527517E+09   3.62065576E+07   0.098947599     
  76               1.68179283E+01   1.83128678E+00   3435.00438118    1.30061281E-05   3.86148991E+18   1.37845916E+08   2.45319293E+09   3.50082975E+07   0.099220671     
  77               1.98034838E+01   1.99437808E+00   3464.46033227    1.39942801E-05   4.16963212E+18   1.22148311E+08   2.46888730E+09   3.37994049E+07   0.099535594     
  78               2.33190416E+01   2.17148225E+00   3493.86185637    1.50566871E-05   4.50169838E+18   1.08251151E+08   2.48278275E+09   3.25793072E+07   0.09990927      
  79               2.74586889E+01   2.36382989E+00   3523.88574252    1.61928283E-05   4.85870175E+18   9.60571744E+07   2.49497356E+09   3.13474311E+07   0.10032738      
  80               3.23332155E+01   2.57276048E+00   3553.90234048    1.74144662E-05   5.24348109E+18   8.52031736E+07   2.50582611E+09   3.01032273E+07   0.10078993      
  81               3.80730788E+01   2.79973688E+00   3584.59975773    1.87208847E-05   5.65721113E+18   7.56576377E+07   2.51536959E+09   2.88461304E+07   0.10129361      
  82               4.48318951E+01   3.04635298E+00   3615.33530173    2.01257355E-05   6.10319831E+18   6.71235849E+07   2.52390322E+09   2.75755904E+07   0.10183386      
  83               5.27905513E+01   3.31435213E+00   3646.80639452    2.16281267E-05   6.58281697E+18   5.95929017E+07   2.53143183E+09   2.62910299E+07   0.10238967      
  84               6.21620456E+01   3.60563975E+00   3678.34691116    2.32440900E-05   7.09995321E+18   5.28374280E+07   2.53818682E+09   2.49918705E+07   0.10295451      
  85               7.31971881E+01   3.92230879E+00   3710.66356122    2.49726716E-05   7.65624886E+18   4.68792685E+07   2.54414273E+09   2.36774829E+07   0.10351471      
  86               8.61913133E+01   4.26665141E+00   3743.07120718    2.68327316E-05   8.25628950E+18   4.15242801E+07   2.54949700E+09   2.23472364E+07   0.10407301      
  87               1.01492184E+02   4.64118698E+00   3776.29161968    2.88232433E-05   8.90203669E+18   3.68036660E+07   2.55421539E+09   2.10004586E+07   0.1046408       
  88               1.19509299E+02   5.04867521E+00   3809.63550493    3.09661180E-05   9.59886418E+18   3.25652760E+07   2.55845348E+09   1.96364827E+07   0.10523596      
  89               1.40724851E+02   5.49214765E+00   3843.84948010    3.32600348E-05   1.03490783E+19   2.88409057E+07   2.56217549E+09   1.82546077E+07   0.10586774      
  90               1.65706635E+02   5.97492332E+00   3878.23849181    3.57303503E-05   1.11589585E+19   2.54993302E+07   2.56551615E+09   1.68541438E+07   0.10653395      
  91               1.95123240E+02   6.50065097E+00   3913.56193539    3.83755882E-05   1.20312424E+19   2.25636273E+07   2.56844897E+09   1.54343620E+07   0.10721965      
  92               2.29761945E+02   7.07333374E+00   3949.10334062    4.12254601E-05   1.29733308E+19   1.99327433E+07   2.57107850E+09   1.39945346E+07   0.10792754      
  93               2.70549789E+02   7.69738226E+00   3985.63900509    4.42783791E-05   1.39884931E+19   1.76309566E+07   2.57337696E+09   1.25338826E+07   0.10865484      
  94               3.18578380E+02   8.37764103E+00   4022.43871760    4.75690196E-05   1.50854459E+19   1.55697874E+07   2.57543731E+09   1.10516280E+07   0.10937603      
  95               3.75133111E+02   9.11945773E+00   4060.27708376    5.10962998E-05   1.62681880E+19   1.37639737E+07   2.57724025E+09   9.54693895E+06   0.11009129      
  96               4.41727563E+02   9.92871639E+00   4098.41145299    5.49008075E-05   1.75470207E+19   1.21483666E+07   2.57885446E+09   8.01898640E+06   0.1108067       
  97               5.20144008E+02   1.08119132E+01   4137.63610812    5.89816326E-05   1.89267522E+19   1.07368374E+07   2.58026253E+09   6.46689713E+06   0.11155176      
  98               6.12481111E+02   1.17761859E+01   4177.21557003    6.33854711E-05   2.04194295E+19   9.48063216E+06   2.58151680E+09   4.88981887E+06   0.11236513      
  99               7.21210099E+02   1.28293909E+01   4217.98719066    6.81104658E-05   2.20306151E+19   8.38804576E+06   2.58260542E+09   3.28687537E+06   0.11327112      
  100              8.49240896E+02   1.39801367E+01   4259.21921589    7.32098118E-05   2.37742740E+19   7.41689872E+06   2.58356486E+09   1.65722449E+06   0.11425977      
  101              1.00000000E+03   1.52378871E+01   4301.75875488    7.86812976E-05   2.56569212E+19   7.00017090E+06   2.58396498E+09   0.00000000E+00   0.11531781      
