# ATMO pressure-temperature profile
# Effective temperature = 3000.0K
# log(g) = 4.0cm/s^2
# M/H = 0.0
# Optical depth grid in band 17 (1.20-1.33microns)
# All parameters in cgs units
#
# Model Level      Optical Depth    Pressure         Temperature      Density          Number Density   Rad Flux         Conv Flux        Radial Extension Adiabatic Gradient
#                                   [Ba]             [K]              [g/cm^3]         [/cm^3]          [ergs/s/cm^2/sr] [ergs/s/cm^2/sr] [cm]             [K/Ba]          
  1                8.00000000E-05   1.00000000E-05   1784.66955653    1.52423954E-10   4.05852312E+13   4.59239948E+09   0.00000000E+00   1.77761598E+08   0.27381008      
  2                9.42017752E-05   5.04451521E-05   1921.86399862    7.04321578E-10   1.90117732E+14   4.59239903E+09   0.00000000E+00   1.65412035E+08   0.2729886       
  3                1.10924681E-04   9.19382429E-05   1975.34948661    1.24285840E-09   3.37115014E+14   4.59239858E+09   0.00000000E+00   1.60976960E+08   0.273229        
  4                1.30616273E-04   1.37850545E-04   2007.76264151    1.83116849E-09   4.97304006E+14   4.59239807E+09   0.00000000E+00   1.57933585E+08   0.071441637     
  5                1.53803560E-04   1.89496042E-04   2037.75571189    2.47384162E-09   6.73556239E+14   4.59239751E+09   0.00000000E+00   1.55507042E+08   0.070899861     
  6                1.81107105E-04   2.48023939E-04   2059.63347717    3.20193859E-09   8.72226945E+14   4.59239691E+09   0.00000000E+00   1.53427486E+08   0.072436935     
  7                2.13257635E-04   3.14653518E-04   2083.43895686    4.00723214E-09   1.09390007E+15   4.59239627E+09   0.00000000E+00   1.51567361E+08   0.071922454     
  8                2.51115597E-04   3.90699676E-04   2101.66511853    4.93076722E-09   1.34649695E+15   4.59239559E+09   0.00000000E+00   1.49856566E+08   0.073197024     
  9                2.95694188E-04   4.77648987E-04   2122.92339292    5.95584654E-09   1.62967265E+15   4.59239488E+09   0.00000000E+00   1.48252064E+08   0.072592413     
  10               3.48186468E-04   5.77158271E-04   2139.65881335    7.13737515E-09   1.95378259E+15   4.59239414E+09   0.00000000E+00   1.46725824E+08   0.073738879     
  11               4.09997292E-04   6.91121254E-04   2159.83345924    8.44971528E-09   2.31771389E+15   4.59239341E+09   0.00000000E+00   1.45258329E+08   0.073275032     
  12               4.82780909E-04   8.21660136E-04   2176.11768046    9.96471883E-09   2.73486365E+15   4.59239266E+09   0.00000000E+00   1.43835717E+08   0.074318045     
  13               5.68485234E-04   9.71198687E-04   2196.03657812    1.16460087E-08   3.20327598E+15   4.59239198E+09   0.00000000E+00   1.42447569E+08   0.073868616     
  14               6.69403978E-04   1.14244826E-03   2212.56184612    1.35854176E-08   3.73996002E+15   4.59239138E+09   0.00000000E+00   1.41086109E+08   0.074747709     
  15               7.88238038E-04   1.33848873E-03   2232.89025645    1.57324902E-08   4.34183365E+15   4.59239098E+09   0.00000000E+00   1.39745151E+08   0.074205362     
  16               9.28167781E-04   1.56272754E-03   2250.45552365    1.81994533E-08   5.02966050E+15   4.59239074E+09   0.00000000E+00   1.38419942E+08   0.074887459     
  17               1.09293816E-03   1.81849641E-03   2276.52310863    2.08307882E-08   5.78583740E+15   4.59226402E+09   1.13373034E+05   1.37106281E+08   0.074299733     
  18               1.28695893E-03   2.10912491E-03   2301.17058473    2.37925258E-08   6.63864319E+15   4.59178556E+09   5.78003276E+05   1.35800774E+08   0.073946713     
  19               1.51542270E-03   2.43938304E-03   2326.55493689    2.70822043E-08   7.59438357E+15   4.59090091E+09   1.44914362E+06   1.34499684E+08   0.073595635     
  20               1.78444386E-03   2.81239838E-03   2350.49479233    3.07708399E-08   8.66649291E+15   4.58952372E+09   2.81197414E+06   1.33207456E+08   0.07337558      
  21               2.10122224E-03   3.23374980E-03   2375.27543304    3.48389097E-08   9.86093911E+15   4.58757571E+09   4.74262593E+06   1.31920518E+08   0.073083397     
  22               2.47423582E-03   3.71236548E-03   2398.79511350    3.94296752E-08   1.12094269E+16   4.58500125E+09   7.29950300E+06   1.30629137E+08   0.072945838     
  23               2.91346758E-03   4.25566744E-03   2423.48057326    4.45177696E-08   1.27190296E+16   4.58169329E+09   1.05890518E+07   1.29332325E+08   0.072819362     
  24               3.43067273E-03   4.87189948E-03   2446.91472507    5.02558265E-08   1.44213303E+16   4.57754225E+09   1.47205393E+07   1.28029473E+08   0.072833785     
  25               4.03969326E-03   5.57020311E-03   2471.64943532    5.65992457E-08   1.63233765E+16   4.57241398E+09   1.98287657E+07   1.26720112E+08   0.072817146     
  26               4.75682846E-03   6.35873566E-03   2495.03956005    6.37280569E-08   1.84594678E+16   4.56618374E+09   2.60395551E+07   1.25407129E+08   0.07288452      
  27               5.60127107E-03   7.24852425E-03   2519.77392503    7.15710688E-08   2.08359765E+16   4.55869359E+09   3.35104493E+07   1.24089583E+08   0.07288298      
  28               6.59562098E-03   8.25214452E-03   2543.12708674    8.03856437E-08   2.35030704E+16   4.54979143E+09   4.23963985E+07   1.22766397E+08   0.072992444     
  29               7.76649006E-03   9.38352773E-03   2567.95795053    9.00663516E-08   2.64669607E+16   4.53928894E+09   5.28793370E+07   1.21436702E+08   0.073095397     
  30               9.14521438E-03   1.06579913E-02   2591.39723799    1.00940632E-07   2.97897741E+16   4.52700014E+09   6.53177696E+07   1.20100038E+08   0.07246138      
  31               1.07686929E-02   1.20927322E-02   2615.86689307    1.12915756E-07   3.34837919E+16   4.51280299E+09   7.93275034E+07   1.18756115E+08   0.072614113     
  32               1.26803748E-02   1.37062627E-02   2639.44907160    1.26299790E-07   3.76124483E+16   4.49651721E+09   9.55701658E+07   1.17404954E+08   0.072837415     
  33               1.49314227E-02   1.55188360E-02   2664.12293906    1.41000234E-07   4.21920592E+16   4.47794145E+09   1.14086474E+08   1.16046656E+08   0.073139994     
  34               1.75820816E-02   1.75523901E-02   2687.93381694    1.57391052E-07   4.72980822E+16   4.45688553E+09   1.35094062E+08   1.14681556E+08   0.073685996     
  35               2.07032912E-02   1.98306565E-02   2713.00106548    1.75316677E-07   5.29435390E+16   4.43309768E+09   1.58849257E+08   1.13309999E+08   0.074384368     
  36               2.43785848E-02   2.23790721E-02   2737.26657402    1.95232146E-07   5.92176026E+16   4.40631174E+09   1.85629996E+08   1.11932499E+08   0.075109058     
  37               2.87063246E-02   2.52251112E-02   2762.80190406    2.16930199E-07   6.61316232E+16   4.37619969E+09   2.15766395E+08   1.10549517E+08   0.075693342     
  38               3.38023342E-02   2.83982965E-02   2787.39888352    2.40985079E-07   7.37936526E+16   4.34246218E+09   2.49533408E+08   1.09161645E+08   0.076106009     
  39               3.98029987E-02   3.19306382E-02   2813.14929592    2.67127287E-07   8.22130306E+16   4.30475896E+09   2.87263961E+08   1.07769387E+08   0.076350303     
  40               4.68689142E-02   3.58565381E-02   2837.80947392    2.96062016E-07   9.15189360E+16   4.26278916E+09   3.29296591E+08   1.06373350E+08   0.076484233     
  41               5.51891865E-02   4.02133114E-02   2863.55211793    3.27430670E-07   1.01716307E+17   4.21620483E+09   3.75924473E+08   1.04974006E+08   0.076548459     
  42               6.49864917E-02   4.50410402E-02   2888.12264677    3.62086829E-07   1.12958423E+17   4.16470684E+09   4.27423536E+08   1.03571888E+08   0.076709373     
  43               7.65230361E-02   5.03830227E-02   2913.84620007    3.99530005E-07   1.25240108E+17   4.10790263E+09   4.84204211E+08   1.02167357E+08   0.076985309     
  44               9.01075730E-02   5.62855352E-02   2938.44102559    4.40779362E-07   1.38741268E+17   4.04540948E+09   5.46670854E+08   1.00760795E+08   0.07741924      
  45               1.06103667E-01   6.27984766E-02   2964.30297393    4.85174577E-07   1.53444865E+17   3.97668708E+09   6.15374943E+08   9.93523915E+07   0.077942123     
  46               1.24939422E-01   6.99752190E-02   2989.06577498    5.33950048E-07   1.69564383E+17   3.90118310E+09   6.90871712E+08   9.79423396E+07   0.078538106     
  47               1.47118942E-01   7.78735749E-02   3015.15927859    5.86273119E-07   1.87070666E+17   3.81819782E+09   7.73898642E+08   9.65306281E+07   0.079191844     
  48               1.73235819E-01   8.65538757E-02   3040.16321697    6.43613537E-07   2.06212724E+17   3.72701467E+09   8.65138311E+08   9.51175073E+07   0.07983643      
  49               2.03989021E-01   9.60807925E-02   3066.50304431    7.04942202E-07   2.26944162E+17   3.62679727E+09   9.65418200E+08   9.37031062E+07   0.080408903     
  50               2.40201599E-01   1.06524765E-01   3091.68187052    7.72047568E-07   2.49563820E+17   3.51687726E+09   1.07537984E+09   9.22873975E+07   0.080887737     
  51               2.82842712E-01   1.17963722E-01   3118.16368647    8.43700555E-07   2.74015670E+17   3.39664539E+09   1.19563436E+09   9.08700396E+07   0.081318209     
  52               3.33053570E-01   1.30482790E-01   3143.44653552    9.22039519E-07   3.00658161E+17   3.26578452E+09   1.32650536E+09   8.94506235E+07   0.081729473     
  53               3.92177970E-01   1.44176021E-01   3170.06120136    1.00557639E-06   3.29420960E+17   3.12412989E+09   1.46816653E+09   8.80285155E+07   0.082152044     
  54               4.61798262E-01   1.59146019E-01   3195.48696040    1.09685278E-06   3.60731917E+17   2.97200442E+09   1.62028068E+09   8.66030836E+07   0.082588191     
  55               5.43777701E-01   1.75506072E-01   3222.30088953    1.19408648E-06   3.94504440E+17   2.81007884E+09   1.78218329E+09   8.51735271E+07   0.083112579     
  56               6.40310309E-01   1.93379351E-01   3247.98860002    1.30024705E-06   4.31242387E+17   2.63966505E+09   1.95257775E+09   8.37390960E+07   0.083753808     
  57               7.53979598E-01   2.12901147E-01   3275.18804042    1.41317282E-06   4.70833766E+17   2.46243988E+09   2.12980302E+09   8.22989123E+07   0.084509996     
  58               8.87827707E-01   2.34218333E-01   3301.34120983    1.53635639E-06   5.13873606E+17   2.28069954E+09   2.31155290E+09   8.08521649E+07   0.085308586     
  59               1.04543683E+00   2.57492909E-01   3329.08409697    1.66727429E-06   5.60229981E+17   2.09699470E+09   2.49528224E+09   7.93979078E+07   0.08611742      
  60               1.23102506E+00   2.82901763E-01   3355.79691922    1.81007049E-06   6.10612686E+17   1.91434130E+09   2.67793488E+09   7.79352577E+07   0.086867913     
  61               1.44955933E+00   3.10641266E-01   3384.11786260    1.96184268E-06   6.64874240E+17   1.73574271E+09   2.85649686E+09   7.64631894E+07   0.087558211     
  62               1.70688827E+00   3.40926833E-01   3411.38405602    2.12749379E-06   7.23863050E+17   1.56424418E+09   3.02795556E+09   7.49807525E+07   0.088140553     
  63               2.00989882E+00   3.73998463E-01   3440.24905150    2.30370466E-06   7.87418788E+17   1.40242668E+09   3.18975998E+09   7.34868675E+07   0.088651167     
  64               2.36670046E+00   4.10119798E-01   3468.03000875    2.49623212E-06   8.56551989E+17   1.25239817E+09   3.33979842E+09   7.19805567E+07   0.089103293     
  65               2.78684231E+00   4.49584163E-01   3497.43399669    2.70121862E-06   9.31080684E+17   1.11547957E+09   3.47678490E+09   7.04607381E+07   0.089599074     
  66               3.28156866E+00   4.92712360E-01   3525.79868396    2.92529077E-06   1.01218940E+18   9.92047568E+08   3.60034242E+09   6.89264619E+07   0.090169217     
  67               3.86411992E+00   5.39859467E-01   3555.89548536    3.16389866E-06   1.09965784E+18   8.81696737E+08   3.71087695E+09   6.73766884E+07   0.090888149     
  68               4.55008695E+00   5.91412467E-01   3585.06483505    3.42463708E-06   1.19486627E+18   7.83080166E+08   3.80960480E+09   6.58105065E+07   0.091691454     
  69               5.35782835E+00   6.47799925E-01   3616.08222721    3.70227714E-06   1.29756295E+18   6.95059524E+08   3.89775483E+09   6.42268899E+07   0.092633255     
  70               6.30896177E+00   7.09489655E-01   3646.27881290    4.00554181E-06   1.40936030E+18   6.15897236E+08   3.97702630E+09   6.26249178E+07   0.093655756     
  71               7.42894249E+00   7.77000347E-01   3678.44000920    4.32842931E-06   1.52997162E+18   5.44897620E+08   4.04813369E+09   6.10035313E+07   0.094790338     
  72               8.74774463E+00   8.50899394E-01   3709.87322980    4.68099560E-06   1.66128822E+18   4.80445556E+08   4.11266387E+09   5.93617614E+07   0.095894834     
  73               1.03006634E+01   9.31818526E-01   3743.31824929    5.05659836E-06   1.80301952E+18   4.22648954E+08   4.17052414E+09   5.76984898E+07   0.096976204     
  74               1.21292597E+01   1.02045187E+00   3776.04108926    5.46695575E-06   1.95740933E+18   3.70105039E+08   4.22304315E+09   5.60127006E+07   0.097888624     
  75               1.42824725E+01   1.11757401E+00   3810.73061044    5.90486078E-06   2.12419256E+18   3.23522931E+08   4.26957957E+09   5.43032714E+07   0.098678948     
  76               1.68179283E+01   1.22403731E+00   3844.63485697    6.38393337E-06   2.30603235E+18   2.81765059E+08   4.31133335E+09   5.25692316E+07   0.099369521     
  77               1.98034838E+01   1.34078887E+00   3880.50474693    6.89592630E-06   2.50263789E+18   2.45782018E+08   4.34738897E+09   5.08095561E+07   0.10009783      
  78               2.33190416E+01   1.46886579E+00   3915.63251696    7.45626002E-06   2.71710255E+18   2.14193673E+08   4.37911526E+09   4.90233889E+07   0.10088876      
  79               2.74586889E+01   1.60941358E+00   3952.83543407    8.05533540E-06   2.94906786E+18   1.87707844E+08   4.40583846E+09   4.72098287E+07   0.10188425      
  80               3.23332155E+01   1.76368164E+00   3989.45668818    8.71038580E-06   3.20208075E+18   1.64738988E+08   4.42908892E+09   4.53681080E+07   0.10307362      
  81               3.80730788E+01   1.93304341E+00   4028.35896771    9.41020434E-06   3.47567598E+18   1.45646859E+08   4.44839635E+09   4.34973919E+07   0.10449735      
  82               4.48318951E+01   2.11899387E+00   4066.86566279    1.01743014E-05   3.77394627E+18   1.28736266E+08   4.46542477E+09   4.15969512E+07   0.10596741      
  83               5.27905513E+01   2.32317140E+00   4107.75406133    1.09904268E-05   4.09640285E+18   1.14378279E+08   4.47984251E+09   3.96660510E+07   0.10751849      
  84               6.21620456E+01   2.54735650E+00   4148.31892027    1.18807791E-05   4.44778137E+18   1.01280158E+08   4.49294177E+09   3.77041069E+07   0.10897733      
  85               7.31971881E+01   2.79348840E+00   4191.25587246    1.28320752E-05   4.82756952E+18   8.99776863E+07   4.50422852E+09   3.57106396E+07   0.11042882      
  86               8.61913133E+01   3.06366391E+00   4233.86356190    1.38693100E-05   5.24119239E+18   7.95216817E+07   4.51463552E+09   3.36853818E+07   0.1117188       
  87               1.01492184E+02   3.36014495E+00   4278.76340440    1.49780602E-05   5.68807847E+18   7.04220844E+07   4.52371231E+09   3.16282876E+07   0.11288097      
  88               1.19509299E+02   3.68536342E+00   4323.21334497    1.61867680E-05   6.17446727E+18   6.20651201E+07   4.53212397E+09   2.95395798E+07   0.11397573      
  89               1.40724851E+02   4.04191159E+00   4369.92604212    1.74782896E-05   6.69944094E+18   5.49766883E+07   4.53935843E+09   2.74197496E+07   0.11527128      
  90               1.65706635E+02   4.43254352E+00   4416.30785943    1.88827087E-05   7.26975052E+18   4.85793957E+07   4.54596044E+09   2.52694616E+07   0.11677688      
  91               1.95123240E+02   4.86014315E+00   4465.12883476    2.03793844E-05   7.88389635E+18   4.31879902E+07   4.55161877E+09   2.30896328E+07   0.11863273      
  92               2.29761945E+02   5.32773225E+00   4513.84656495    2.20003111E-05   8.54912049E+18   3.82781446E+07   4.55679791E+09   2.08812944E+07   0.1206226       
  93               2.70549789E+02   5.83842085E+00   4565.10323675    2.37225032E-05   9.26340460E+18   3.40568704E+07   4.56117554E+09   1.86457928E+07   0.1227425       
  94               3.18578380E+02   6.39543540E+00   4616.28562906    2.55812210E-05   1.00346744E+19   3.01633083E+07   4.56514054E+09   1.63846000E+07   0.12479538      
  95               3.75133111E+02   7.00205408E+00   4669.91798897    2.75511522E-05   1.08603056E+19   2.67950770E+07   4.56855722E+09   1.40995309E+07   0.12690222      
  96               4.41727563E+02   7.66165314E+00   4723.41991786    2.96699311E-05   1.17487529E+19   2.37041611E+07   4.57170387E+09   1.17924419E+07   0.12892885      
  97               5.20144008E+02   8.37762752E+00   4779.25182183    3.19092713E-05   1.26965864E+19   2.10298309E+07   4.57451979E+09   9.46544859E+06   0.13099073      
  98               6.12481111E+02   9.15346347E+00   4834.86719557    3.43092678E-05   1.37128190E+19   1.85899941E+07   4.57711292E+09   7.12058039E+06   0.13300065      
  99               7.21210099E+02   9.99264414E+00   4892.70724876    3.68380264E-05   1.47930263E+19   1.65029175E+07   4.57935740E+09   4.76001544E+06   0.13525618      
  100              8.49240896E+02   1.08986953E+01   4950.41939669    3.95353585E-05   1.59462422E+19   1.46247198E+07   4.58138038E+09   2.38577548E+06   0.13766731      
  101              1.00000000E+03   1.18750583E+01   5010.42182638    4.23649881E-05   1.71667190E+19   1.39047031E+07   4.58232967E+09   0.00000000E+00   0.14034316      
