# ATMO pressure-temperature profile
# Effective temperature = 2900.0K
# log(g) = 3.5cm/s^2
# M/H = 0.0
# Optical depth grid in band 17 (1.20-1.33microns)
# All parameters in cgs units
#
# Model Level      Optical Depth    Pressure         Temperature      Density          Number Density   Rad Flux         Conv Flux        Radial Extension Adiabatic Gradient
#                                   [Ba]             [K]              [g/cm^3]         [/cm^3]          [ergs/s/cm^2/sr] [ergs/s/cm^2/sr] [cm]             [K/Ba]          
  1                3.00000000E-06   1.00000000E-05   1522.92169603    1.86046960E-10   4.75607030E+13   4.01021409E+09   0.00000000E+00   5.46457444E+08   0.27182671      
  2                3.65048058E-06   1.08742966E-05   1660.14487248    1.83662623E-10   4.74439702E+13   4.01021409E+09   0.00000000E+00   5.44959412E+08   0.27070189      
  3                4.44200282E-06   1.18413453E-05   1635.26792880    2.03740402E-10   5.24490911E+13   4.01021409E+09   0.00000000E+00   5.43378356E+08   0.27046961      
  4                5.40514834E-06   1.29566531E-05   1725.46303674    2.08557032E-10   5.43892424E+13   4.01021409E+09   0.00000000E+00   5.41665385E+08   0.27042889      
  5                6.57712968E-06   1.42550299E-05   1690.40299479    2.35904798E-10   6.10806598E+13   4.01021409E+09   0.00000000E+00   5.39813774E+08   0.27039148      
  6                8.00322805E-06   1.57814457E-05   1770.20838366    2.45642500E-10   6.45725936E+13   4.01021409E+09   0.00000000E+00   5.37806319E+08   0.27058346      
  7                9.73854285E-06   1.75797383E-05   1732.84883762    2.82296927E-10   7.34814245E+13   4.01021409E+09   0.00000000E+00   5.35645886E+08   0.2705405       
  8                1.18501205E-05   1.97081708E-05   1807.57614845    2.98330765E-10   7.89724395E+13   4.01021409E+09   0.00000000E+00   5.33323974E+08   0.27083702      
  9                1.44195449E-05   2.22281731E-05   1769.90482941    3.47747015E-10   9.09661250E+13   4.01021409E+09   0.00000000E+00   5.30848582E+08   0.27074519      
  10               1.75460896E-05   2.52199596E-05   1841.64691963    3.72375872E-10   9.91890782E+13   4.01021409E+09   0.00000000E+00   5.28216557E+08   0.27109689      
  11               2.13505531E-05   2.87703506E-05   1804.48450531    4.39426476E-10   1.15482941E+14   4.01021409E+09   0.00000000E+00   5.25439454E+08   0.27094672      
  12               2.59799264E-05   3.29915093E-05   1874.27147123    4.75959740E-10   1.27495697E+14   4.01021409E+09   0.00000000E+00   5.22517478E+08   0.2713306       
  13               3.16130723E-05   3.80060549E-05   1838.01671111    5.67394726E-10   1.49771498E+14   4.01021410E+09   0.00000000E+00   5.19464177E+08   0.27112379      
  14               3.84676354E-05   4.39715207E-05   1906.41728282    6.20466408E-10   1.67062647E+14   4.01021410E+09   0.00000000E+00   5.16281410E+08   0.27152952      
  15               4.68084520E-05   5.10605641E-05   1871.31802966    7.45556294E-10   1.97634994E+14   4.01021410E+09   0.00000000E+00   5.12983325E+08   0.27127311      
  16               5.69577817E-05   5.94947329E-05   1938.63113815    8.21620664E-10   2.22284497E+14   4.01021410E+09   0.00000000E+00   5.09572061E+08   0.27169624      
  17               6.93077586E-05   6.95162848E-05   1904.89201691    9.93023261E-10   2.64327307E+14   4.01021410E+09   0.00000000E+00   5.06061361E+08   0.27140021      
  18               8.43355422E-05   8.14366555E-05   1971.25209073    1.10103972E-09   2.99228945E+14   4.01021410E+09   0.00000000E+00   5.02452737E+08   0.27183935      
  19               1.02621753E-04   9.55943782E-05   1939.09295744    1.33592502E-09   3.57075097E+14   4.01021410E+09   0.00000000E+00   4.98758972E+08   0.27151614      
  20               1.24872905E-04   1.12426212E-04   2004.55935570    1.48824075E-09   4.06232344E+14   4.01021410E+09   0.00000000E+00   4.94980471E+08   0.072514538     
  21               1.51948705E-04   1.32402948E-04   1974.24287250    1.80971041E-09   4.85761303E+14   4.01021410E+09   0.00000000E+00   4.91128881E+08   0.073172541     
  22               1.84895266E-04   1.56134404E-04   2038.87294486    2.02313375E-09   5.54669502E+14   4.01021411E+09   0.00000000E+00   4.87203287E+08   0.071886187     
  23               2.24985526E-04   1.84270984E-04   2010.75719663    2.46184365E-09   6.63778471E+14   4.01021411E+09   0.00000000E+00   4.83214250E+08   0.072560237     
  24               2.73768430E-04   2.17663613E-04   2074.66386325    2.75887025E-09   7.59913100E+14   4.01021411E+09   0.00000000E+00   4.79158826E+08   0.071542875     
  25               3.33128779E-04   2.57213279E-04   2049.24208367    3.35497233E-09   9.09129939E+14   4.01021412E+09   0.00000000E+00   4.75045916E+08   0.072145218     
  26               4.05360046E-04   3.04094365E-04   2112.75452649    3.76468795E-09   1.04252186E+15   4.01021412E+09   0.00000000E+00   4.70870885E+08   0.071165872     
  27               4.93252992E-04   3.59523982E-04   2091.03394039    4.56770523E-09   1.24535344E+15   4.01021413E+09   0.00000000E+00   4.66642126E+08   0.071529616     
  28               6.00203489E-04   4.25059954E-04   2155.81192427    5.11891492E-09   1.42812151E+15   4.01021415E+09   0.00000000E+00   4.62352384E+08   0.070403095     
  29               7.30343727E-04   5.00779531E-04   2181.10202038    5.92699679E-09   1.66301600E+15   4.00927553E+09   1.53368423E+06   4.58005051E+08   0.068143871     
  30               8.88701864E-04   5.90100060E-04   2204.75988341    6.87589843E-09   1.93860889E+15   4.00805608E+09   2.15641295E+06   4.53580351E+08   0.067924937     
  31               1.08139630E-03   6.95445462E-04   2230.53540919    7.96248424E-09   2.25829044E+15   4.00644854E+09   3.76405719E+06   4.49077915E+08   0.067629133     
  32               1.31587206E-03   8.19654956E-04   2254.60613890    9.23866858E-09   2.63321441E+15   4.00435420E+09   5.85858278E+06   4.44498184E+08   0.067436073     
  33               1.60118847E-03   9.66052019E-04   2280.88753067    1.06978010E-08   3.06776778E+15   4.00165440E+09   8.55832970E+06   4.39841236E+08   0.067269814     
  34               1.94836913E-03   1.13851333E-03   2305.41205752    1.24108844E-08   3.57697085E+15   3.99822134E+09   1.19915246E+07   4.35108014E+08   0.067285168     
  35               2.37082789E-03   1.34029248E-03   2332.15595258    1.43539851E-08   4.16263023E+15   3.99387191E+09   1.63408353E+07   4.30326985E+08   0.067279798     
  36               2.88488706E-03   1.57628834E-03   2356.93306802    1.66195789E-08   4.84411286E+15   3.98844760E+09   2.17653322E+07   4.25495047E+08   0.067368854     
  37               3.51040806E-03   1.85382163E-03   2384.22028376    1.91980509E-08   5.63180236E+15   3.98177991E+09   2.84328543E+07   4.20581474E+08   0.067370252     
  38               4.27155881E-03   2.17986029E-03   2409.55383947    2.22230932E-08   6.55266348E+15   3.97366434E+09   3.65484458E+07   4.15589742E+08   0.067512819     
  39               5.19774750E-03   2.56244496E-03   2437.51242652    2.56541031E-08   7.61436246E+15   3.96384703E+09   4.63652924E+07   4.10522544E+08   0.067661029     
  40               6.32475876E-03   3.01077033E-03   2463.42107273    2.96715470E-08   8.85247716E+15   3.95208094E+09   5.81313050E+07   4.05383794E+08   0.067931369     
  41               7.69613634E-03   3.53430650E-03   2492.00746945    3.42005102E-08   1.02726078E+16   3.93807137E+09   7.21403437E+07   4.00186450E+08   0.068164068     
  42               9.36486541E-03   4.14427748E-03   2518.34869474    3.94782031E-08   1.19195210E+16   3.92153901E+09   8.86727339E+07   3.94936846E+08   0.068447708     
  43               1.13954198E-02   4.85448867E-03   2547.44203725    4.54054783E-08   1.38027309E+16   3.90212735E+09   1.08083305E+08   3.89631966E+08   0.068699608     
  44               1.38662528E-02   5.68061281E-03   2574.21765667    5.23086928E-08   1.59836427E+16   3.87952812E+09   1.30681757E+08   3.84271332E+08   0.069060626     
  45               1.68728289E-02   6.64054097E-03   2603.89155034    6.00368263E-08   1.84716805E+16   3.85334618E+09   1.56862068E+08   3.78854271E+08   0.069425076     
  46               2.05313114E-02   7.75433726E-03   2631.17802507    6.90217852E-08   2.13461861E+16   3.82325485E+09   1.86952323E+08   3.73382657E+08   0.069866079     
  47               2.49830512E-02   9.04468222E-03   2661.46403503    7.90402376E-08   2.46149269E+16   3.78881497E+09   2.21390691E+08   3.67857948E+08   0.070273806     
  48               3.04000477E-02   1.05366852E-02   2689.24101190    9.06594315E-08   2.83791981E+16   3.74966311E+09   2.60591124E+08   3.62284160E+08   0.069901796     
  49               3.69915946E-02   1.22586770E-02   2719.38508673    1.03628953E-07   3.26511688E+16   3.70571818E+09   3.04470453E+08   3.56665898E+08   0.070970548     
  50               4.50123658E-02   1.42412590E-02   2748.11537335    1.18483754E-07   3.75352457E+16   3.65648546E+09   3.53701376E+08   3.51007758E+08   0.072046558     
  51               5.47722558E-02   1.65181819E-02   2779.20495807    1.34967599E-07   4.30494402E+16   3.60135477E+09   4.08831449E+08   3.45313678E+08   0.073049949     
  52               6.66483519E-02   1.91259919E-02   2808.71712493    1.53763123E-07   4.93221278E+16   3.53974208E+09   4.70449819E+08   3.39589035E+08   0.073827497     
  53               8.10995048E-02   2.21048070E-02   2840.38376070    1.74523868E-07   5.63683790E+16   3.47091857E+09   5.39285045E+08   3.33838480E+08   0.07420347      
  54               9.86840557E-02   2.54980513E-02   2870.03808416    1.98148524E-07   6.43494990E+16   3.39438823E+09   6.15823662E+08   3.28068097E+08   0.074255991     
  55               1.20081410E-01   2.93535947E-02   2901.57148483    2.24162403E-07   7.32746679E+16   3.30966702E+09   7.00538100E+08   3.22282789E+08   0.074249191     
  56               1.46118284E-01   3.37232729E-02   2930.95703068    2.53665333E-07   8.33385816E+16   3.21649080E+09   7.93701607E+08   3.16487861E+08   0.074499045     
  57               1.77800653E-01   3.86639759E-02   2962.44233575    2.85945324E-07   9.45327833E+16   3.11430482E+09   8.95871508E+08   3.10686460E+08   0.075038997     
  58               2.16352610E-01   4.42370751E-02   2991.94535979    3.22352212E-07   1.07092384E+17   3.00265499E+09   1.00750743E+09   3.04881491E+08   0.075879207     
  59               2.63263667E-01   5.05098446E-02   3023.81625787    3.61914640E-07   1.20989163E+17   2.88077839E+09   1.12937781E+09   2.99073752E+08   0.07698414      
  60               3.20346302E-01   5.75525343E-02   3053.84850557    4.06281657E-07   1.36503191E+17   2.74801661E+09   1.26214374E+09   2.93265675E+08   0.078100671     
  61               3.89805984E-01   6.54424407E-02   3086.27554410    4.54234956E-07   1.53585646E+17   2.60367327E+09   1.40650028E+09   2.87457567E+08   0.07912682      
  62               4.74326391E-01   7.42649227E-02   3116.73836849    5.07863610E-07   1.72587455E+17   2.44779614E+09   1.56238602E+09   2.81648750E+08   0.079943281     
  63               5.77173093E-01   8.41168741E-02   3149.48827346    5.65695718E-07   1.93450105E+17   2.28097275E+09   1.72922017E+09   2.75836105E+08   0.080623395     
  64               7.02319722E-01   9.51063893E-02   3180.15537779    6.30327944E-07   2.16614335E+17   2.10500683E+09   1.90519268E+09   2.70016224E+08   0.08111385      
  65               8.54601502E-01   1.07356837E-01   3213.05355486    6.99985368E-07   2.42012379E+17   1.92262883E+09   2.08756994E+09   2.64183924E+08   0.081515586     
  66               1.03990206E+00   1.21006221E-01   3243.81385513    7.77860737E-07   2.70195189E+17   1.73808580E+09   2.27210822E+09   2.58334312E+08   0.082025749     
  67               1.26538076E+00   1.36210806E-01   3276.99779739    8.61677351E-07   3.01065681E+17   1.55594767E+09   2.45424854E+09   2.52461228E+08   0.082779947     
  68               1.53974930E+00   1.53143529E-01   3308.25299992    9.55249336E-07   3.35293996E+17   1.38103904E+09   2.62916249E+09   2.46559144E+08   0.083713227     
  69               1.87360830E+00   1.71999747E-01   3342.17992972    1.05579631E-06   3.72755294E+17   1.21745989E+09   2.79275635E+09   2.40621403E+08   0.084855742     
  70               2.27985690E+00   1.92995936E-01   3374.36149453    1.16791048E-06   4.14268964E+17   1.06813428E+09   2.94209333E+09   2.34642031E+08   0.086009525     
  71               2.77419111E+00   2.16378194E-01   3409.33696409    1.28834310E-06   4.59694602E+17   9.34564001E+08   3.07568337E+09   2.28613914E+08   0.087159545     
  72               3.37571026E+00   2.42421311E-01   3442.59092123    1.42268897E-06   5.10048197E+17   8.16415890E+08   3.19384151E+09   2.22530705E+08   0.088094525     
  73               4.10765492E+00   2.71439919E-01   3478.59209963    1.56726503E-06   5.65192058E+17   7.12870343E+08   3.29740287E+09   2.16385073E+08   0.088947781     
  74               4.99830483E+00   3.03786311E-01   3512.84103237    1.72877400E-06   6.26376626E+17   6.21708261E+08   3.38857418E+09   2.10170716E+08   0.089696682     
  75               6.08207157E+00   3.39862608E-01   3549.88036454    1.90288321E-06   6.93450567E+17   5.41934783E+08   3.46837221E+09   2.03880540E+08   0.090554699     
  76               7.40082804E+00   3.80117354E-01   3585.28760769    2.09745133E-06   7.67926292E+17   4.70848058E+08   3.53946474E+09   1.97508537E+08   0.091406822     
  77               9.00552635E+00   4.25061142E-01   3623.60507482    2.30745792E-06   8.49642807E+17   4.08674869E+08   3.60166718E+09   1.91047935E+08   0.092464168     
  78               1.09581663E+01   4.75263162E-01   3660.48810920    2.54204916E-06   9.40418128E+17   3.53199865E+08   3.65716723E+09   1.84492921E+08   0.093686729     
  79               1.33341911E+01   5.31369166E-01   3700.54149618    2.79526012E-06   1.04005645E+18   3.05479706E+08   3.70493086E+09   1.77836771E+08   0.095193789     
  80               1.62254019E+01   5.94099090E-01   3739.42901516    3.07777613E-06   1.15074589E+18   2.62887650E+08   3.74754441E+09   1.71073490E+08   0.096709063     
  81               1.97435049E+01   6.64270549E-01   3781.62599927    3.38295559E-06   1.27230801E+18   2.26643561E+08   3.78380647E+09   1.64196288E+08   0.098256595     
  82               2.40244270E+01   7.42797745E-01   3822.72228498    3.72353360E-06   1.40741984E+18   1.94191040E+08   3.81625604E+09   1.57199358E+08   0.099498382     
  83               2.92335681E+01   8.30716819E-01   3866.99894794    4.09246528E-06   1.55598279E+18   1.66962756E+08   3.84351503E+09   1.50076878E+08   0.10064515      
  84               3.55721908E+01   9.29183420E-01   3910.11902201    4.50459838E-06   1.72122369E+18   1.43010085E+08   3.86750973E+09   1.42824478E+08   0.10169859      
  85               4.32851972E+01   1.03949391E+00   3956.45140282    4.95169248E-06   1.90301388E+18   1.23535717E+08   3.88708968E+09   1.35438126E+08   0.10303906      
  86               5.26705906E+01   1.16308360E+00   4001.88850648    5.45028269E-06   2.10509542E+18   1.06589820E+08   3.90413447E+09   1.27914804E+08   0.10466709      
  87               6.40909893E+01   1.30154351E+00   4050.89791417    5.99035768E-06   2.32719744E+18   9.28362428E+07   3.91800209E+09   1.20251658E+08   0.10669368      
  88               7.79876373E+01   1.45662314E+00   4099.37370469    6.59073387E-06   2.57368584E+18   8.04653650E+07   3.93044829E+09   1.12446589E+08   0.10882988      
  89               9.48974517E+01   1.63023517E+00   4151.61708266    7.24016710E-06   2.84419132E+18   7.02367862E+07   3.94076333E+09   1.04498563E+08   0.11121683      
  90               1.15473768E+02   1.82445879E+00   4203.53964455    7.95983881E-06   3.14372646E+18   6.07989761E+07   3.95022265E+09   9.64077377E+07   0.11343097      
  91               1.40511583E+02   2.04152192E+00   4259.12869530    8.73775868E-06   3.47183538E+18   5.27826704E+07   3.95820338E+09   8.81766715E+07   0.11544168      
  92               1.70978268E+02   2.28381398E+00   4314.13160466    9.59855187E-06   3.83436258E+18   4.53158087E+07   3.96568131E+09   7.98099686E+07   0.11698144      
  93               2.08050949E+02   2.55384603E+00   4372.34561463    1.05291345E-05   4.23063995E+18   3.91054358E+07   3.97205016E+09   7.13154670E+07   0.1186683       
  94               2.53161982E+02   2.85427568E+00   4429.98099210    1.15545612E-05   4.66680757E+18   3.36051660E+07   3.97780745E+09   6.27018095E+07   0.12067037      
  95               3.08054300E+02   3.18782275E+00   4491.08308833    1.26574264E-05   5.14125228E+18   2.91647804E+07   3.98261352E+09   5.39795390E+07   0.12342704      
  96               3.74848746E+02   3.55729043E+00   4552.18104420    1.38624640E-05   5.66011998E+18   2.52313358E+07   3.98677665E+09   4.51588467E+07   0.12653241      
  97               4.56126023E+02   3.96545569E+00   4617.00679931    1.51499347E-05   6.22097458E+18   2.19685832E+07   3.99024272E+09   3.62517971E+07   0.13000826      
  98               5.55026396E+02   4.41512948E+00   4681.99495321    1.65463771E-05   6.83027741E+18   1.90115314E+07   3.99332090E+09   2.72700313E+07   0.13335857      
  99               6.75371026E+02   4.90906949E+00   4750.46792414    1.80310726E-05   7.48494527E+18   1.65005495E+07   3.99592485E+09   1.82265305E+07   0.13666594      
  100              8.21809604E+02   5.45010284E+00   4818.84035354    1.96328267E-05   8.19196330E+18   1.42182275E+07   3.99829471E+09   9.13276813E+06   0.13956429      
  101              1.00000000E+03   6.04107775E+00   4890.17580266    2.13303916E-05   8.94779020E+18   1.33331988E+07   3.99949950E+09   0.00000000E+00   0.14262282      
