# ATMO pressure-temperature profile
# Effective temperature = 1000.0K
# log(g) = 4.0cm/s^2
# M/H = 0.0
# Optical depth grid in band 17 (1.20-1.33microns)
# All parameters in cgs units
#
# Model Level      Optical Depth    Pressure         Temperature      Density          Number Density   Rad Flux         Conv Flux        Radial Extension Adiabatic Gradient
#                                   [Ba]             [K]              [g/cm^3]         [/cm^3]          [ergs/s/cm^2/sr] [ergs/s/cm^2/sr] [cm]             [K/Ba]          
  1                5.00000000E-05   1.00000000E-05   326.17213752     8.69223996E-10   2.22064420E+14   5.66987046E+07   0.00000000E+00   5.28033851E+07   0.30014376      
  2                5.91534807E-05   1.07040544E-04   375.49546481     8.08206835E-09   2.06475939E+15   5.66987047E+07   0.00000000E+00   4.91421624E+07   0.30035367      
  3                6.99826855E-05   2.15306359E-04   398.69560777     1.53106504E-08   3.91148118E+15   5.66987046E+07   0.00000000E+00   4.81688923E+07   0.30001304      
  4                8.27943887E-05   3.40667282E-04   411.77518705     2.34557056E-08   5.99233510E+15   5.66987046E+07   0.00000000E+00   4.75073751E+07   0.29987222      
  5                9.79515255E-05   4.86290860E-04   425.83696122     3.23765848E-08   8.27139178E+15   5.66987045E+07   0.00000000E+00   4.69789396E+07   0.29974389      
  6                1.15883473E-04   6.55884226E-04   434.80412991     4.27674229E-08   1.09259539E+16   5.66987067E+07   0.00000000E+00   4.65231789E+07   0.29967754      
  7                1.37098216E-04   8.53522740E-04   446.27635159     5.42247373E-08   1.38527840E+16   5.66986999E+07   0.00000000E+00   4.61127700E+07   0.29959817      
  8                1.62196734E-04   1.08403216E-03   453.12688953     6.78279474E-08   1.73279893E+16   5.66987046E+07   0.00000000E+00   4.57326807E+07   0.29955676      
  9                1.91890027E-04   1.35308739E-03   462.41482351     8.29622132E-08   2.11943420E+16   5.66987026E+07   0.00000000E+00   4.53740092E+07   0.29950007      
  10               2.27019260E-04   1.66725231E-03   468.16767838     1.00968586E-07   2.57944183E+16   5.66987043E+07   0.00000000E+00   4.50307482E+07   0.29947142      
  11               2.68579588E-04   2.03417085E-03   476.96225976     1.20917647E-07   3.08908067E+16   5.66987020E+07   0.00000000E+00   4.46986767E+07   0.29942208      
  12               3.17748350E-04   2.46277895E-03   482.33097602     1.44766043E-07   3.69833390E+16   5.66987045E+07   0.00000000E+00   4.43747235E+07   0.29939672      
  13               3.75918418E-04   2.96344613E-03   490.97121989     1.71130466E-07   4.37186599E+16   5.66987017E+07   0.00000000E+00   4.40566320E+07   0.29935125      
  14               4.44737657E-04   3.54830622E-03   496.29181592     2.02707796E-07   5.17856962E+16   5.66987058E+07   0.00000000E+00   4.37426150E+07   0.29932707      
  15               5.26155608E-04   4.23143554E-03   505.08087005     2.37527109E-07   6.06809888E+16   5.66986999E+07   0.00000000E+00   4.34312921E+07   0.29928101      
  16               6.22478712E-04   5.02925296E-03   510.49130466     2.79319747E-07   7.13577209E+16   5.66987062E+07   0.00000000E+00   4.31215530E+07   0.29925586      
  17               7.36435649E-04   5.96095496E-03   519.43202930     3.25367018E-07   8.31214200E+16   5.66986994E+07   0.00000000E+00   4.28124954E+07   0.29920891      
  18               8.71254639E-04   7.04907034E-03   525.06491135     3.80632079E-07   9.72399412E+16   5.66987074E+07   0.00000000E+00   4.25032982E+07   0.29918203      
  19               1.03075489E-03   8.31975004E-03   534.42866827     4.41374221E-07   1.12757742E+17   5.66986978E+07   0.00000000E+00   4.21932852E+07   0.29913037      
  20               1.21945479E-03   9.80347349E-03   540.49434215     5.14251263E-07   1.31375586E+17   5.66987091E+07   0.00000000E+00   4.18818542E+07   0.29909687      
  21               1.44269991E-03   1.15355066E-02   550.54120192     5.94064034E-07   1.51765370E+17   5.66986957E+07   0.00000000E+00   4.15684882E+07   0.29908157      
  22               1.70681442E-03   1.35568751E-02   557.41593259     6.89551498E-07   1.76159494E+17   5.66987137E+07   0.00000000E+00   4.12526639E+07   0.29904203      
  23               2.01928028E-03   1.59149176E-02   568.53443324     7.93659021E-07   2.02755882E+17   5.66986888E+07   0.00000000E+00   4.09339131E+07   0.29893883      
  24               2.38894914E-03   1.86643009E-02   576.42468514     9.18027168E-07   2.34528160E+17   5.66987188E+07   0.00000000E+00   4.06118132E+07   0.29886134      
  25               2.82629313E-03   2.18675902E-02   588.68026292     1.05319225E-06   2.69058856E+17   5.66986816E+07   0.00000000E+00   4.02860406E+07   0.29877732      
  26               3.34370152E-03   2.55964948E-02   597.77359366     1.21403154E-06   3.10148447E+17   5.66987286E+07   0.00000000E+00   3.99562696E+07   0.29872789      
  27               3.95583167E-03   2.99325985E-02   611.52490556     1.38776612E-06   3.54532547E+17   5.66986722E+07   0.00000000E+00   3.96222080E+07   0.29863192      
  28               4.68002425E-03   3.49683928E-02   622.17335928     1.59349324E-06   4.07089687E+17   5.66987399E+07   0.00000000E+00   3.92835708E+07   0.29854297      
  29               5.53679448E-03   4.08103276E-02   637.70659197     1.81440804E-06   4.63526977E+17   5.66986599E+07   0.00000000E+00   3.89400016E+07   0.29839518      
  30               6.55041330E-03   4.75808555E-02   650.27813486     2.07452568E-06   5.29979333E+17   5.66987514E+07   0.00000000E+00   3.85910256E+07   0.29827315      
  31               7.74959494E-03   5.54173486E-02   667.93330784     2.35233029E-06   6.00950198E+17   5.66986460E+07   0.00000000E+00   3.82362831E+07   0.2980976       
  32               9.16831029E-03   6.44730193E-02   682.69386670     2.67755028E-06   6.84034249E+17   5.66987646E+07   0.00000000E+00   3.78754530E+07   0.29792069      
  33               1.08467493E-02   7.49172720E-02   702.54813804     3.02337552E-06   7.72381223E+17   5.66986380E+07   0.00000000E+00   3.75083713E+07   0.29765346      
  34               1.28324595E-02   8.69340060E-02   719.66127678     3.42490210E-06   8.74958385E+17   5.66987714E+07   0.00000000E+00   3.71349351E+07   0.29738745      
  35               1.51816929E-02   1.00722612E-01   741.96564640     3.84885335E-06   9.83261470E+17   5.66986303E+07   0.00000000E+00   3.67551561E+07   0.2970308       
  36               1.79609996E-02   1.16496733E-01   761.58880978     4.33694357E-06   1.10794711E+18   5.66987770E+07   0.00000000E+00   3.63690665E+07   0.29669341      
  37               2.12491128E-02   1.34511159E-01   786.37797679     4.84972479E-06   1.23894724E+18   5.66986332E+07   0.00000000E+00   3.59762676E+07   0.2962664       
  38               2.51391797E-02   1.55062809E-01   808.59095498     5.43711225E-06   1.38900756E+18   5.66987742E+07   0.00000000E+00   3.55760425E+07   0.29585502      
  39               2.97413996E-02   1.78487183E-01   836.07483728     6.05271272E-06   1.54627852E+18   5.66986352E+07   0.00000000E+00   3.51677140E+07   0.29531166      
  40               3.51861462E-02   2.05158127E-01   861.14782499     6.75456259E-06   1.72558698E+18   5.66987737E+07   0.00000000E+00   3.47505893E+07   0.29472584      
  41               4.16276604E-02   2.35550066E-01   891.77733711     7.48874116E-06   1.91316593E+18   5.66986387E+07   0.00000000E+00   3.43232636E+07   0.29395183      
  42               4.92484201E-02   2.70268553E-01   920.26965218     8.32639784E-06   2.12718987E+18   5.66987715E+07   0.00000000E+00   3.38835876E+07   0.29316083      
  43               5.82643093E-02   3.10327520E-01   954.59762985     9.21651290E-06   2.35464684E+18   5.66986428E+07   0.00000000E+00   3.34262888E+07   0.29219118      
  44               6.89307339E-02   3.57344546E-01   987.21482561     1.02615491E-05   2.62181068E+18   5.66987698E+07   0.00000000E+00   3.29428087E+07   0.29121107      
  45               8.15498567E-02   4.14190121E-01   1026.49242462    1.14375121E-05   2.92260301E+18   5.66986484E+07   0.00000000E+00   3.24180627E+07   0.29003044      
  46               9.64791575E-02   4.84963978E-01   1064.41644745    1.29131708E-05   3.30007450E+18   5.66987939E+07   0.00000000E+00   3.18356764E+07   0.28883434      
  47               1.14141560E-01   5.75490003E-01   1108.32704417    1.47144286E-05   3.76093383E+18   5.66986423E+07   0.00000000E+00   3.11789124E+07   0.28743266      
  48               1.35037411E-01   6.91997228E-01   1149.28660727    1.70609791E-05   4.36115828E+18   5.66988400E+07   0.00000000E+00   3.04435659E+07   0.28603106      
  49               1.59758657E-01   8.40689548E-01   1194.34811717    1.99430226E-05   5.09836071E+18   5.66986012E+07   0.00000000E+00   2.96374411E+07   0.28443812      
  50               1.89005613E-01   1.02686763E+00   1235.16919758    2.35531104E-05   6.02162701E+18   5.66988970E+07   0.00000000E+00   2.87784005E+07   0.28292614      
  51               2.23606798E-01   1.25503700E+00   1279.89198390    2.77791918E-05   7.10246414E+18   5.66984590E+07   0.00000000E+00   2.78863738E+07   0.28132398      
  52               2.64542408E-01   1.52905300E+00   1320.50163255    3.28023766E-05   8.38705395E+18   5.66990960E+07   0.00000000E+00   2.69786255E+07   0.27984594      
  53               3.12972084E-01   1.85181598E+00   1365.47230732    3.84168963E-05   9.82292367E+18   5.66980531E+07   0.00000000E+00   2.60693989E+07   0.27829463      
  54               3.70267763E-01   2.22673606E+00   1406.34068862    4.48515752E-05   1.14684319E+19   5.66991745E+07   0.00000000E+00   2.51661865E+07   0.27684152      
  55               4.38052539E-01   2.65729097E+00   1451.49566717    5.18582128E-05   1.32601735E+19   5.66973355E+07   0.00000000E+00   2.42734309E+07   0.27521399      
  56               5.18246648E-01   3.14585021E+00   1492.43231070    5.97090049E-05   1.52675460E+19   5.66996494E+07   0.00000000E+00   2.33954397E+07   0.27367887      
  57               6.13121862E-01   3.69110022E+00   1537.94472738    6.79880271E-05   1.73836492E+19   5.66966259E+07   0.00000000E+00   2.25396550E+07   0.27201455      
  58               7.25365844E-01   4.28118299E+00   1579.18447663    7.68306511E-05   1.96361691E+19   5.67010910E+07   0.00000000E+00   2.17231488E+07   0.27044185      
  59               8.58158289E-01   4.90861312E+00   1625.34955721    8.55895855E-05   2.18744865E+19   5.66993358E+07   0.00000000E+00   2.09494195E+07   0.26876598      
  60               1.01526100E+00   5.56475571E+00   1668.22977019    9.45460072E-05   2.41610651E+19   5.67053009E+07   0.00000000E+00   2.02200112E+07   0.26716698      
  61               1.20112443E+00   6.20713712E+00   1717.41593085    1.02471833E-04   2.61783152E+19   5.53992315E+07   1.32239949E+06   1.95673620E+07   0.26536454      
  62               1.42101382E+00   6.78154840E+00   1758.11101879    1.09438485E-04   2.79388425E+19   5.08910211E+07   5.83124941E+06   1.90249148E+07   0.26377239      
  63               1.68115827E+00   7.25720341E+00   1789.69980606    1.15138994E-04   2.93707438E+19   4.61787849E+07   1.05403609E+07   1.86011635E+07   0.26244191      
  64               1.98892727E+00   7.76228958E+00   1821.55314633    1.20995399E-04   3.08655367E+19   4.16770527E+07   1.50435179E+07   1.81732362E+07   0.26121238      
  65               2.35303941E+00   8.18599289E+00   1846.89677526    1.25883386E-04   3.21036624E+19   3.74412537E+07   1.92626949E+07   1.78299063E+07   0.26012505      
  66               2.78380943E+00   8.51350124E+00   1865.85571811    1.29587883E-04   3.30488221E+19   3.42441646E+07   2.24538011E+07   1.75734838E+07   0.25903944      
  67               3.29344035E+00   8.88303516E+00   1886.41106883    1.33737387E-04   3.41075783E+19   3.18245773E+07   2.48809237E+07   1.72927816E+07   0.25808981      
  68               3.89636920E+00   9.29829934E+00   1908.80750830    1.38344331E-04   3.52831400E+19   2.94835614E+07   2.72367283E+07   1.69874881E+07   0.25718122      
  69               4.60967600E+00   9.76249604E+00   1932.77421115    1.43441211E-04   3.65852130E+19   2.63790832E+07   3.03397509E+07   1.66579660E+07   0.25651632      
  70               5.45356761E+00   1.00983647E+01   1949.65626924    1.47222278E-04   3.75161997E+19   2.30780232E+07   3.35925026E+07   1.64268120E+07   0.25592922      
  71               6.45195012E+00   1.03326038E+01   1961.05517644    1.49759868E-04   3.81632898E+19   2.09279940E+07   3.57281939E+07   1.62690599E+07   0.25544197      
  72               7.63310614E+00   1.06014364E+01   1974.02042509    1.52644854E-04   3.88990423E+19   1.96393927E+07   3.70236802E+07   1.60912553E+07   0.25484531      
  73               9.03049593E+00   1.09087603E+01   1988.36317093    1.55934336E-04   3.97379565E+19   1.85857773E+07   3.80801011E+07   1.58920575E+07   0.25423832      
  74               1.06837053E+01   1.12587060E+01   2004.44269952    1.59642251E-04   4.06837215E+19   1.76270508E+07   3.90413026E+07   1.56702604E+07   0.25347882      
  75               1.26395671E+01   1.16554305E+01   2022.01483809    1.63827663E-04   4.17512825E+19   1.66993116E+07   3.99707367E+07   1.54249467E+07   0.25271103      
  76               1.49534878E+01   1.21031513E+01   2041.41685507    1.68498959E-04   4.29430222E+19   1.58515359E+07   4.08204837E+07   1.51554738E+07   0.25177531      
  77               1.76910170E+01   1.26092380E+01   2062.46004300    1.73747519E-04   4.42821948E+19   1.50789388E+07   4.15955650E+07   1.48596949E+07   0.25081484      
  78               2.09297047E+01   1.31793665E+01   2085.50538182    1.79589223E-04   4.57729665E+19   1.43151411E+07   4.23617357E+07   1.45369394E+07   0.24965884      
  79               2.47612977E+01   1.38195512E+01   2110.20047099    1.86099706E-04   4.74346897E+19   1.35439332E+07   4.31351649E+07   1.41867584E+07   0.24845991      
  80               2.92943389E+01   1.45361781E+01   2136.90491093    1.93292294E-04   4.92709433E+19   1.27748979E+07   4.39062768E+07   1.38089137E+07   0.24707066      
  81               3.46572422E+01   1.53360804E+01   2165.19428005    2.01250236E-04   5.13030689E+19   1.20087157E+07   4.46743453E+07   1.34033473E+07   0.24565912      
  82               4.10019301E+01   1.62265667E+01   2195.44433742    2.09984115E-04   5.35340437E+19   1.12539433E+07   4.54308031E+07   1.29701692E+07   0.24401843      
  83               4.85081376E+01   1.72155059E+01   2227.14477088    2.19588996E-04   5.59882872E+19   1.05058350E+07   4.61803893E+07   1.25096245E+07   0.24230292      
  84               5.73885036E+01   1.83113917E+01   2260.69819132    2.30073611E-04   5.86684487E+19   9.77268798E+06   4.69148551E+07   1.20220652E+07   0.24031129      
  85               6.78945948E+01   1.95234550E+01   2295.50816463    2.41549021E-04   6.16032569E+19   9.03983562E+06   4.76488411E+07   1.15079147E+07   0.23827871      
  86               8.03240320E+01   2.08612055E+01   2332.02923610    2.54042428E-04   6.47934716E+19   8.31964097E+06   4.83699905E+07   1.09678651E+07   0.23599699      
  87               9.50289215E+01   2.23356456E+01   2369.58045897    2.67637406E-04   6.82736137E+19   7.63471411E+06   4.90557496E+07   1.04024049E+07   0.23368183      
  88               1.12425830E+02   2.39591993E+01   2408.72081974    2.82364861E-04   7.20462986E+19   6.99215023E+06   4.96990514E+07   9.81181024E+06   0.23113157      
  89               1.33007583E+02   2.57449668E+01   2448.67612677    2.98385409E-04   7.61529671E+19   6.37467575E+06   5.03170871E+07   9.19658717E+06   0.22858516      
  90               1.57357229E+02   2.77072654E+01   2490.09292882    3.15696073E-04   8.05942297E+19   5.78803748E+06   5.09040948E+07   8.55722964E+06   0.22582255      
  91               1.86164557E+02   2.98621109E+01   2532.10169716    3.34494568E-04   8.54211078E+19   5.23667904E+06   5.14557069E+07   7.89411395E+06   0.22306617      
  92               2.20245630E+02   3.22272579E+01   2575.46566768    3.54776596E-04   9.06344763E+19   4.73645329E+06   5.19561425E+07   7.20753779E+06   0.22011616      
  93               2.60565913E+02   3.48224006E+01   2619.21848982    3.76785169E-04   9.62970137E+19   4.27736673E+06   5.24154295E+07   6.49773181E+06   0.21721047      
  94               3.08267614E+02   3.76693163E+01   2664.25203134    4.00510511E-04   1.02409034E+20   3.85980553E+06   5.28332409E+07   5.76486697E+06   0.21415428      
  95               3.64702046E+02   4.07920916E+01   2709.49411436    4.26249337E-04   1.09046970E+20   3.47292151E+06   5.32205132E+07   5.00906984E+06   0.21111198      
  96               4.31467909E+02   4.42172562E+01   2755.94104012    4.53987557E-04   1.16211126E+20   3.11998482E+06   5.35740220E+07   4.23043953E+06   0.20796577      
  97               5.10456573E+02   4.79739387E+01   2802.43445337    4.84079411E-04   1.23992596E+20   2.79366889E+06   5.39011523E+07   3.42907883E+06   0.20495416      
  98               6.03905660E+02   5.20939011E+01   2850.11234870    5.16492871E-04   1.32388646E+20   2.49776808E+06   5.41981721E+07   2.60511717E+06   0.20195017      
  99               7.14462436E+02   5.66116328E+01   2897.71754413    5.51644784E-04   1.41506201E+20   2.22475702E+06   5.44726505E+07   1.75874218E+06   0.19904893      
  100              8.45258798E+02   6.15643808E+01   2946.46850188    5.89485642E-04   1.51339938E+20   1.98168447E+06   5.47169809E+07   8.90212676E+05   0.19616444      
  101              1.00000000E+03   6.69914535E+01   2995.01246329    6.30492651E-04   1.62011785E+20   1.85324123E+06   5.48458713E+07   0.00000000E+00   0.19342401      
