# ATMO pressure-temperature profile
# Effective temperature = 600.0K
# log(g) = 4.5cm/s^2
# M/H = 0.0
# Optical depth grid in band 17 (1.20-1.33microns)
# All parameters in cgs units
#
# Model Level      Optical Depth    Pressure         Temperature      Density          Number Density   Rad Flux         Conv Flux        Radial Extension Adiabatic Gradient
#                                   [Ba]             [K]              [g/cm^3]         [/cm^3]          [ergs/s/cm^2/sr] [ergs/s/cm^2/sr] [cm]             [K/Ba]          
  1                5.00000000E-05   1.00000000E-05   130.19145340     2.16648589E-09   5.56343943E+14   7.34804447E+06   0.00000000E+00   1.19932795E+07   0.32940563      
  2                5.91534807E-05   1.89587026E-04   155.14315121     3.44680459E-08   8.85119369E+15   7.34804447E+06   0.00000000E+00   1.13360904E+07   0.3240098       
  3                6.99826855E-05   3.97995883E-04   164.31886513     6.83179752E-08   1.75435304E+16   7.34804447E+06   0.00000000E+00   1.12002769E+07   0.32256223      
  4                8.27943887E-05   6.42082119E-04   169.94092842     1.06589986E-07   2.73664478E+16   7.34804454E+06   0.00000000E+00   1.11098217E+07   0.32118585      
  5                9.79515255E-05   9.27874805E-04   176.41929717     1.48368515E-07   3.80951014E+16   7.34804451E+06   0.00000000E+00   1.10379559E+07   0.32065814      
  6                1.15883473E-04   1.26244748E-03   179.77791223     1.98185226E-07   5.08631001E+16   7.34804461E+06   0.00000000E+00   1.09762524E+07   0.31944486      
  7                1.37098216E-04   1.65275530E-03   185.36852615     2.51586444E-07   6.45800536E+16   7.34804430E+06   0.00000000E+00   1.09209775E+07   0.31892976      
  8                1.62196734E-04   2.10492306E-03   188.78811390     3.15057334E-07   8.07583464E+16   7.34804375E+06   0.00000000E+00   1.08701796E+07   0.31782166      
  9                1.91890027E-04   2.62257952E-03   194.71425563     3.80397341E-07   9.75566224E+16   7.34804320E+06   0.00000000E+00   1.08228941E+07   0.31741609      
  10               2.27019260E-04   3.20558154E-03   198.84289166     4.57086728E-07   1.16767666E+17   7.34804522E+06   0.00000000E+00   1.07786587E+07   0.31555906      
  11               2.68579588E-04   3.84403881E-03   207.10259489     5.26264503E-07   1.34439864E+17   7.34804368E+06   0.00000000E+00   1.07374935E+07   0.31447904      
  12               3.17748350E-04   4.59077906E-03   214.68399090     6.06301421E-07   1.54886145E+17   7.34804474E+06   0.00000000E+00   1.06956890E+07   0.31285818      
  13               3.75918418E-04   5.46464905E-03   221.84221822     6.98425248E-07   1.78420157E+17   7.34804508E+06   0.00000000E+00   1.06532229E+07   0.31200067      
  14               4.44737657E-04   6.48766184E-03   228.52110956     8.04940417E-07   2.05630589E+17   7.34804463E+06   0.00000000E+00   1.06100770E+07   0.31064231      
  15               5.26155608E-04   7.68568583E-03   235.01716314     9.27224507E-07   2.36869360E+17   7.34804484E+06   0.00000000E+00   1.05662248E+07   0.30992625      
  16               6.22478712E-04   9.08888984E-03   241.28651344     1.06802064E-06   2.72837230E+17   7.34804450E+06   0.00000000E+00   1.05216347E+07   0.30877031      
  17               7.36435649E-04   1.07323721E-02   247.53328048     1.22931726E-06   3.14042166E+17   7.34804476E+06   0.00000000E+00   1.04762778E+07   0.30814135      
  18               8.71254639E-04   1.26567819E-02   253.83490006     1.41375390E-06   3.61158468E+17   7.34804447E+06   0.00000000E+00   1.04301164E+07   0.30721459      
  19               1.03075489E-03   1.49098016E-02   260.22089785     1.62454426E-06   4.15007107E+17   7.34804474E+06   0.00000000E+00   1.03831041E+07   0.30672236      
  20               1.21945479E-03   1.75469972E-02   266.70971073     1.86537362E-06   4.76529529E+17   7.34804445E+06   0.00000000E+00   1.03351976E+07   0.30583549      
  21               1.44269991E-03   2.06329354E-02   273.31944909     2.14038715E-06   5.46784659E+17   7.34804472E+06   0.00000000E+00   1.02863596E+07   0.30535693      
  22               1.70681442E-03   2.42423842E-02   280.14789928     2.45352119E-06   6.26778080E+17   7.34804447E+06   0.00000000E+00   1.02365515E+07   0.30457227      
  23               2.01928028E-03   2.84625204E-02   287.15706981     2.81031949E-06   7.17925999E+17   7.34804459E+06   0.00000000E+00   1.01857293E+07   0.30414928      
  24               2.38894914E-03   3.33954449E-02   294.37510178     3.21653301E-06   8.21697563E+17   7.34804454E+06   0.00000000E+00   1.01338454E+07   0.30351272      
  25               2.82629313E-03   3.91599108E-02   301.80411430     3.67890346E-06   9.39815012E+17   7.34804447E+06   0.00000000E+00   1.00808539E+07   0.30316823      
  26               3.34370152E-03   4.58935893E-02   309.55295569     4.20357619E-06   1.07384824E+18   7.34804461E+06   0.00000000E+00   1.00267058E+07   0.30263418      
  27               3.95583167E-03   5.37558125E-02   317.65117381     4.79818315E-06   1.22574691E+18   7.34804432E+06   0.00000000E+00   9.97134561E+06   0.30233239      
  28               4.68002425E-03   6.29316359E-02   326.16496173     5.47058248E-06   1.39751847E+18   7.34804468E+06   0.00000000E+00   9.91470996E+06   0.30190171      
  29               5.53679448E-03   7.36361813E-02   335.10388969     6.23036726E-06   1.59161355E+18   7.34804418E+06   0.00000000E+00   9.85672777E+06   0.30164339      
  30               6.55041330E-03   8.61190973E-02   344.58450973     7.08607224E-06   1.81021249E+18   7.34804476E+06   0.00000000E+00   9.79731820E+06   0.30125182      
  31               7.74959494E-03   1.00670837E-01   354.66248090     8.04804322E-06   2.05595815E+18   7.34804402E+06   0.00000000E+00   9.73638318E+06   0.30100112      
  32               9.16831029E-03   1.17628624E-01   365.42427690     9.12677798E-06   2.33153242E+18   7.34804480E+06   0.00000000E+00   9.67381330E+06   0.3007083       
  33               1.08467493E-02   1.37382110E-01   376.91548726     1.03344677E-05   2.64004932E+18   7.34804390E+06   0.00000000E+00   9.60949405E+06   0.30055934      
  34               1.28324595E-02   1.60381218E-01   389.27186102     1.16815994E-05   2.98418907E+18   7.34804476E+06   0.00000000E+00   9.54330048E+06   0.30038067      
  35               1.51816929E-02   1.87143798E-01   402.62254754     1.31789493E-05   3.36669044E+18   7.34804385E+06   0.00000000E+00   9.47509219E+06   0.30023885      
  36               1.79609996E-02   2.18261695E-01   417.13348533     1.48356265E-05   3.78990487E+18   7.34804468E+06   0.00000000E+00   9.40471743E+06   0.30002808      
  37               2.12491128E-02   2.54410753E-01   432.91307642     1.66624223E-05   4.25657803E+18   7.34804375E+06   0.00000000E+00   9.33201064E+06   0.29989281      
  38               2.51391797E-02   2.96388050E-01   450.08538385     1.86710650E-05   4.76970609E+18   7.34804455E+06   0.00000000E+00   9.25675121E+06   0.29977891      
  39               2.97413996E-02   3.45126028E-01   468.93919331     2.08671819E-05   5.33073410E+18   7.34804359E+06   0.00000000E+00   9.17866914E+06   0.29970902      
  40               3.51861462E-02   4.01764482E-01   489.85023258     2.32564873E-05   5.94065131E+18   7.34804472E+06   0.00000000E+00   9.09736377E+06   0.29956296      
  41               4.16276604E-02   4.67759616E-01   512.08375403     2.59010119E-05   6.61618386E+18   7.34804417E+06   0.00000000E+00   9.01233186E+06   0.29941487      
  42               4.92484201E-02   5.45096509E-01   535.53324309     2.88615962E-05   7.37246646E+18   7.34804452E+06   0.00000000E+00   8.92288419E+06   0.29925804      
  43               5.82643093E-02   6.36684487E-01   560.88271370     3.21871724E-05   8.22201098E+18   7.34804417E+06   0.00000000E+00   8.82785910E+06   0.29915385      
  44               6.89307339E-02   7.46594402E-01   587.58851244     3.60278287E-05   9.20316635E+18   7.34804461E+06   0.00000000E+00   8.72579379E+06   0.29895052      
  45               8.15498567E-02   8.80201088E-01   616.26881024     4.04979821E-05   1.03451681E+19   7.34804395E+06   0.00000000E+00   8.61518376E+06   0.29869172      
  46               9.64791575E-02   1.04387590E+00   646.27221725     4.57983493E-05   1.16992824E+19   7.34804487E+06   0.00000000E+00   8.49500102E+06   0.29835222      
  47               1.14141560E-01   1.24461784E+00   678.05369862     5.20455182E-05   1.32952887E+19   7.34804363E+06   0.00000000E+00   8.36497713E+06   0.29805898      
  48               1.35037411E-01   1.48912028E+00   711.08814038     5.93763355E-05   1.51681349E+19   7.34804520E+06   0.00000000E+00   8.22589029E+06   0.2976144       
  49               1.59758657E-01   1.78333161E+00   746.16881434     6.77639016E-05   1.73109481E+19   7.34804327E+06   0.00000000E+00   8.07921583E+06   0.29707391      
  50               1.89005613E-01   2.13271869E+00   782.90734963     7.72367650E-05   1.97309976E+19   7.34804552E+06   0.00000000E+00   7.92649564E+06   0.29631458      
  51               2.23606798E-01   2.54325740E+00   822.08174413     8.77154989E-05   2.24078997E+19   7.34804306E+06   0.00000000E+00   7.76876902E+06   0.2955995       
  52               2.64542408E-01   3.02009312E+00   862.99357972     9.92233883E-05   2.53477029E+19   7.34804548E+06   0.00000000E+00   7.60713811E+06   0.29462856      
  53               3.12972084E-01   3.56687955E+00   905.81978463     1.11646819E-04   2.85215078E+19   7.34804378E+06   0.00000000E+00   7.44285688E+06   0.29363449      
  54               3.70267763E-01   4.18695669E+00   949.30374713     1.25052530E-04   3.19461931E+19   7.34342102E+06   4.62637728E+03   7.27690705E+06   0.29231942      
  55               4.38052539E-01   4.88594673E+00   993.09379577     1.39495410E-04   3.56356183E+19   7.34804357E+06   0.00000000E+00   7.10954937E+06   0.2911079       
  56               5.18246648E-01   5.67046975E+00   1036.54686707    1.55110989E-04   3.96237828E+19   7.34804640E+06   0.00000000E+00   6.94089162E+06   0.28962645      
  57               6.13121862E-01   6.54821496E+00   1078.82103079    1.72101197E-04   4.39642191E+19   7.34804188E+06   0.00000000E+00   6.77100618E+06   0.28836929      
  58               7.25365844E-01   7.52899899E+00   1119.82097838    1.90632090E-04   4.86983761E+19   7.34804804E+06   0.00000000E+00   6.59977427E+06   0.28686553      
  59               8.58158289E-01   8.62777375E+00   1159.13021328    2.11042398E-04   5.39128588E+19   7.34804120E+06   0.00000000E+00   6.42654254E+06   0.28564373      
  60               1.01526100E+00   9.86371097E+00   1197.01689424    2.33634867E-04   5.96850961E+19   7.34804876E+06   0.00000000E+00   6.25052958E+06   0.28416791      
  61               1.20112443E+00   1.12575354E+01   1233.48301089    2.58762146E-04   6.61052554E+19   7.34803921E+06   0.00000000E+00   6.07126646E+06   0.28301522      
  62               1.42101382E+00   1.28311181E+01   1269.08053457    2.86653654E-04   7.32320445E+19   7.34805126E+06   0.00000000E+00   5.88855632E+06   0.2815757       
  63               1.68115827E+00   1.46070251E+01   1303.95280897    3.17594071E-04   8.11382698E+19   7.34802917E+06   0.00000000E+00   5.70243012E+06   0.28045686      
  64               1.98892727E+00   1.66128533E+01   1338.69940435    3.51821770E-04   8.98849539E+19   7.34806734E+06   0.00000000E+00   5.51267286E+06   0.27902244      
  65               2.35303941E+00   1.88807898E+01   1373.48001283    3.89715231E-04   9.95688870E+19   7.34801332E+06   0.00000000E+00   5.31898694E+06   0.27792593      
  66               2.78380943E+00   2.14439154E+01   1408.93911534    4.31467667E-04   1.10239618E+20   7.34809797E+06   0.00000000E+00   5.12132442E+06   0.27646621      
  67               3.29344035E+00   2.43376196E+01   1445.25486914    4.77370765E-04   1.21971818E+20   7.34798392E+06   0.00000000E+00   4.91969477E+06   0.275288        
  68               3.89636920E+00   2.75935363E+01   1483.01587120    5.27434326E-04   1.34768192E+20   7.34812295E+06   0.00000000E+00   4.71450124E+06   0.27369552      
  69               4.60967600E+00   3.12392058E+01   1522.28746467    5.81693573E-04   1.48637760E+20   7.34794357E+06   0.00000000E+00   4.50636454E+06   0.27242306      
  70               5.45356761E+00   3.53136588E+01   1563.43091612    6.40234118E-04   1.63602472E+20   7.34814465E+06   0.00000000E+00   4.29523173E+06   0.27074346      
  71               6.45195012E+00   3.98438482E+01   1606.32902199    7.03055617E-04   1.79660503E+20   7.34797126E+06   0.00000000E+00   4.08170326E+06   0.26939807      
  72               7.63310614E+00   4.48291352E+01   1651.21399716    7.69505171E-04   1.96644969E+20   7.34809816E+06   0.00000000E+00   3.86736760E+06   0.26763366      
  73               9.03049593E+00   5.02136789E+01   1697.95362790    8.38556860E-04   2.14201277E+20   7.34801810E+06   0.00000000E+00   3.65537718E+06   0.26617135      
  74               1.06837053E+01   5.59519252E+01   1746.92923792    9.08161423E-04   2.31988021E+20   7.14888570E+06   1.99159079E+05   3.44743840E+06   0.26427227      
  75               1.26395671E+01   6.19753521E+01   1795.06228019    9.78963512E-04   2.50072146E+20   6.55317015E+06   7.94874292E+05   3.24542363E+06   0.26285595      
  76               1.49534878E+01   6.81186327E+01   1839.65597615    1.05008506E-03   2.68197760E+20   5.81764526E+06   1.53039947E+06   3.05381579E+06   0.26113932      
  77               1.76910170E+01   7.40954015E+01   1880.77447991    1.11760052E-03   2.85351639E+20   5.24402050E+06   2.10402497E+06   2.87934595E+06   0.25994232      
  78               2.09297047E+01   8.04985460E+01   1921.26920577    1.18932198E-03   3.03476910E+20   4.66492410E+06   2.68312306E+06   2.70370913E+06   0.25843457      
  79               2.47612977E+01   8.64328468E+01   1957.14418535    1.25441978E-03   3.19876132E+20   3.92137739E+06   3.42667438E+06   2.55006596E+06   0.2574468       
  80               2.92943389E+01   9.16390513E+01   1986.46353104    1.31031268E-03   3.34137968E+20   3.47235200E+06   3.87694066E+06   2.42165185E+06   0.25606696      
  81               3.46572422E+01   9.74012210E+01   2017.94368162    1.37093580E-03   3.49607869E+20   3.29903935E+06   4.04902568E+06   2.28569831E+06   0.25523364      
  82               4.10019301E+01   1.03757615E+02   2050.44337857    1.43719044E-03   3.66520304E+20   2.91240307E+06   4.43567861E+06   2.14249748E+06   0.25397751      
  83               4.85081376E+01   1.09018640E+02   2076.52808773    1.49153298E-03   3.80267133E+20   2.37029824E+06   4.97783153E+06   2.02886132E+06   0.25326656      
  84               5.73885036E+01   1.13101730E+02   2095.71612525    1.53319810E-03   3.90897265E+20   2.07606608E+06   5.27539717E+06   1.94347790E+06   0.25208616      
  85               6.78945948E+01   1.17729330E+02   2117.15890558    1.57972863E-03   4.02769944E+20   1.99691424E+06   5.35586834E+06   1.84944808E+06   0.25147544      
  86               8.03240320E+01   1.22959691E+02   2140.22488048    1.63208805E-03   4.16130160E+20   1.90655090E+06   5.44716339E+06   1.74644058E+06   0.25039035      
  87               9.50289215E+01   1.28844954E+02   2165.53129087    1.69017032E-03   4.30951890E+20   1.81880127E+06   5.53165890E+06   1.63438613E+06   0.24996601      
  88               1.12425830E+02   1.35438785E+02   2192.56804976    1.75463959E-03   4.47420425E+20   1.60673521E+06   5.74198989E+06   1.51330432E+06   0.24924336      
  89               1.33007583E+02   1.40479331E+02   2212.69897434    1.80486804E-03   4.59849730E+20   1.31591287E+06   6.03245989E+06   1.42372502E+06   0.24896347      
  90               1.57357229E+02   1.44229035E+02   2227.16403243    1.84097216E-03   4.69057768E+20   1.17142462E+06   6.17669279E+06   1.35867451E+06   0.24820116      
  91               1.86164557E+02   1.48541574E+02   2243.55981251    1.88211824E-03   4.79552554E+20   1.13706747E+06   6.21107345E+06   1.28541128E+06   0.24754498      
  92               2.20245630E+02   1.53486687E+02   2261.72811119    1.92910173E-03   4.91536935E+20   1.09684146E+06   6.25131822E+06   1.20334299E+06   0.24641531      
  93               2.60565913E+02   1.59140137E+02   2281.98771372    1.98233710E-03   5.05117327E+20   1.05741028E+06   6.29075817E+06   1.11192169E+06   0.24588671      
  94               3.08267614E+02   1.65583538E+02   2304.31320909    2.04253622E-03   5.20476936E+20   1.01117989E+06   6.33704901E+06   1.01066080E+06   0.24451355      
  95               3.64702046E+02   1.72904815E+02   2328.74803343    2.11058850E-03   5.37787157E+20   9.64721484E+05   6.38348658E+06   8.99150613E+05   0.24378474      
  96               4.31467909E+02   1.81199747E+02   2355.50142516    2.18661112E-03   5.57185821E+20   9.13664095E+05   6.43467302E+06   7.77047821E+05   0.24206542      
  97               5.10456573E+02   1.90572857E+02   2384.24426567    2.27186645E-03   5.78943441E+20   8.62910348E+05   6.48543499E+06   6.44061522E+05   0.2409027       
  98               6.03905660E+02   2.01137251E+02   2415.48698077    2.36663395E-03   6.03133775E+20   8.11517855E+05   6.53709672E+06   4.99986694E+05   0.23963001      
  99               7.14462436E+02   2.13016899E+02   2448.71141070    2.47221466E-03   6.30089573E+20   7.58276030E+05   6.59034038E+06   3.44678109E+05   0.23825738      
  100              8.45258798E+02   2.26348401E+02   2484.41268081    2.58895235E-03   6.59902133E+20   7.04882834E+05   6.64405807E+06   1.78039896E+05   0.23675311      
  101              1.00000000E+03   2.41284286E+02   2522.02577694    2.71834598E-03   6.92955519E+20   6.75274056E+05   6.67375886E+06   0.00000000E+00   0.23514929      
