# ATMO pressure-temperature profile
# Effective temperature = 550.0K
# log(g) = 2.5cm/s^2
# M/H = 0.0
# Optical depth grid in band 17 (1.20-1.33microns)
# All parameters in cgs units
#
# Model Level      Optical Depth    Pressure         Temperature      Density          Number Density   Rad Flux         Conv Flux        Radial Extension Adiabatic Gradient
#                                   [Ba]             [K]              [g/cm^3]         [/cm^3]          [ergs/s/cm^2/sr] [ergs/s/cm^2/sr] [cm]             [K/Ba]          
  1                5.00000000E-04   1.00000000E-05   118.68714772     2.37648390E-09   6.10270176E+14   5.18821673E+06   0.00000000E+00   1.02477862E+09   0.34612403      
  2                5.78069831E-04   2.55064524E-05   145.13062334     4.95704318E-09   1.27296610E+15   5.18821673E+06   0.00000000E+00   1.01049183E+09   0.33387828      
  3                6.68329458E-04   4.30309585E-05   158.78234724     7.64502252E-09   1.96292923E+15   5.18821673E+06   0.00000000E+00   1.00148921E+09   0.33141719      
  4                7.72682194E-04   6.30411900E-05   162.30750035     1.09558802E-08   2.81327154E+15   5.18821673E+06   0.00000000E+00   9.94575051E+08   0.32686874      
  5                8.93328530E-04   8.59078740E-05   170.63063500     1.42113284E-08   3.64671484E+15   5.18821673E+06   0.00000000E+00   9.88779159E+08   0.32660768      
  6                1.03281254E-03   1.11853757E-04   172.48699693     1.82920022E-08   4.69699454E+15   5.18821673E+06   0.00000000E+00   9.83690299E+08   0.3238056       
  7                1.19407555E-03   1.40518467E-04   180.71010347     2.20471306E-08   5.63218366E+15   5.18821672E+06   0.00000000E+00   9.79171251E+08   0.32429312      
  8                1.38051810E-03   1.70294725E-04   182.37418663     2.64751808E-08   6.76337812E+15   5.18821673E+06   0.00000000E+00   9.75273854E+08   0.32277156      
  9                1.59607173E-03   2.04333318E-04   197.36925916     2.93535602E-08   7.49869201E+15   5.18821672E+06   0.00000000E+00   9.71412659E+08   0.32322555      
  10               1.84528182E-03   2.43272821E-04   197.73891230     3.48820947E-08   8.91101737E+15   5.18821672E+06   0.00000000E+00   9.67564450E+08   0.32152106      
  11               2.13340350E-03   2.87901821E-04   210.73017587     3.87363582E-08   9.89563166E+15   5.18821672E+06   0.00000000E+00   9.63725111E+08   0.32209235      
  12               2.46651240E-03   3.39071833E-04   210.20485595     4.57351467E-08   1.16835497E+16   5.18821672E+06   0.00000000E+00   9.59880688E+08   0.32012813      
  13               2.85163282E-03   3.97790909E-04   222.31882522     5.07317357E-08   1.29599837E+16   5.18821671E+06   0.00000000E+00   9.56025778E+08   0.32083466      
  14               3.29688580E-03   4.65180975E-04   221.26314675     5.96092924E-08   1.52278538E+16   5.18821671E+06   0.00000000E+00   9.52150534E+08   0.31880236      
  15               3.81166043E-03   5.42548579E-04   233.11664147     6.59882269E-08   1.68574233E+16   5.18821670E+06   0.00000000E+00   9.48249597E+08   0.31950871      
  16               4.40681180E-03   6.31360087E-04   231.88219136     7.71988506E-08   1.97213013E+16   5.18821666E+06   0.00000000E+00   9.44314725E+08   0.31605661      
  17               5.09488990E-03   7.33323257E-04   243.84912900     8.52658952E-08   2.17821171E+16   5.18821670E+06   0.00000000E+00   9.40340520E+08   0.31745064      
  18               5.89040429E-03   8.50358803E-04   242.75649723     9.93190270E-08   2.53721453E+16   5.18821663E+06   0.00000000E+00   9.36318781E+08   0.31384958      
  19               6.81013002E-03   9.84716856E-04   254.80824821     1.09571851E-07   2.79913426E+16   5.18821669E+06   0.00000000E+00   9.32245935E+08   0.31526874      
  20               7.87346142E-03   1.13891250E-03   253.95339483     1.27156172E-07   3.24834522E+16   5.18821661E+06   0.00000000E+00   9.28114948E+08   0.31187255      
  21               9.10282102E-03   1.31589918E-03   266.06718219     1.40227248E-07   3.58226034E+16   5.18821668E+06   0.00000000E+00   9.23923581E+08   0.31328448      
  22               1.05241324E-02   1.51897756E-03   265.47625386     1.62228362E-07   4.14430317E+16   5.18821660E+06   0.00000000E+00   9.19665792E+08   0.30998921      
  23               1.21673669E-02   1.75202148E-03   277.72439262     1.78865469E-07   4.56931650E+16   5.18821669E+06   0.00000000E+00   9.15339547E+08   0.31124032      
  24               1.40671754E-02   2.01936761E-03   277.37879929     2.06415939E-07   5.27312374E+16   5.18821659E+06   0.00000000E+00   9.10939685E+08   0.30830824      
  25               1.62636194E-02   2.32605963E-03   289.93633815     2.27467470E-07   5.81090846E+16   5.18821669E+06   0.00000000E+00   9.06463880E+08   0.30952888      
  26               1.88030155E-02   2.67776828E-03   289.89537967     2.61898375E-07   6.69048405E+16   5.18821660E+06   0.00000000E+00   9.01907111E+08   0.30677776      
  27               2.17389119E-02   3.08108276E-03   302.89897052     2.88407577E-07   7.36769106E+16   5.18821673E+06   0.00000000E+00   8.97266511E+08   0.30782414      
  28               2.51332183E-02   3.54342002E-03   303.24822560     3.31303074E-07   8.46350404E+16   5.18821665E+06   0.00000000E+00   8.92536711E+08   0.30546697      
  29               2.90575105E-02   4.07342003E-03   316.71250421     3.64665829E-07   9.31579287E+16   5.18821677E+06   0.00000000E+00   8.87714840E+08   0.30643523      
  30               3.35945403E-02   4.68071473E-03   317.54051602     4.17940172E-07   1.06767449E+17   5.18821670E+06   0.00000000E+00   8.82795635E+08   0.30426558      
  31               3.88399805E-02   5.37651739E-03   331.76417115     4.59486360E-07   1.17380894E+17   5.18821683E+06   0.00000000E+00   8.77774605E+08   0.30506353      
  32               4.49044419E-02   6.17319153E-03   333.45597259     5.24894845E-07   1.34090216E+17   5.18821677E+06   0.00000000E+00   8.72644713E+08   0.30324845      
  33               5.19158062E-02   7.08553923E-03   348.79703444     5.75971588E-07   1.47138377E+17   5.18821694E+06   0.00000000E+00   8.67397559E+08   0.30386158      
  34               6.00219227E-02   8.12971218E-03   351.54204580     6.55690499E-07   1.67503441E+17   5.18821693E+06   0.00000000E+00   8.62024489E+08   0.30239202      
  35               6.93937253E-02   9.32647304E-03   368.01983720     7.18533062E-07   1.83557464E+17   5.18821721E+06   0.00000000E+00   8.56510894E+08   0.30276469      
  36               8.02288381E-02   1.06973669E-02   372.08044435     8.15157114E-07   2.08240830E+17   5.18821735E+06   0.00000000E+00   8.50846414E+08   0.30169343      
  37               9.27557418E-02   1.22753686E-02   390.15063781     8.92076765E-07   2.27891466E+17   5.18821786E+06   0.00000000E+00   8.44994650E+08   0.30201792      
  38               1.07238592E-01   1.40927611E-02   396.11236359     1.00873566E-06   2.57693539E+17   5.18821833E+06   0.00000000E+00   8.38936236E+08   0.30106237      
  39               1.23982789E-01   1.62187862E-02   416.48731491     1.10410639E-06   2.82060590E+17   5.18821928E+06   0.00000000E+00   8.32565681E+08   0.30123837      
  40               1.43341420E-01   1.87210995E-02   425.22657716     1.24833423E-06   3.18886983E+17   5.18822049E+06   0.00000000E+00   8.25825303E+08   0.30053915      
  41               1.65722701E-01   2.17730733E-02   449.26862931     1.37412301E-06   3.51026157E+17   5.18822251E+06   0.00000000E+00   8.18456296E+08   0.30067093      
  42               1.91598587E-01   2.55491031E-02   463.03139536     1.56451993E-06   3.99660346E+17   5.18822364E+06   0.00000000E+00   8.10312368E+08   0.30021669      
  43               2.21514726E-01   3.03771311E-02   493.06630838     1.74681371E-06   4.46238736E+17   5.18822616E+06   0.00000000E+00   8.01076810E+08   0.30025581      
  44               2.56101960E-01   3.65135350E-02   512.26830381     2.02095854E-06   5.16276354E+17   5.18822741E+06   0.00000000E+00   7.90748884E+08   0.29986331      
  45               2.96089634E-01   4.41996680E-02   548.42035482     2.28506969E-06   5.83755898E+17   5.18793610E+06   2.89058634E+02   7.79438339E+08   0.29983079      
  46               3.42320969E-01   5.35677896E-02   574.65122282     2.64296066E-06   6.75188802E+17   5.15722713E+06   3.09804848E+04   7.67383587E+08   0.29958919      
  47               3.95770849E-01   6.45939706E-02   614.43915355     2.98058375E-06   7.61445701E+17   5.07547311E+06   1.12722730E+05   7.54960470E+08   0.29958421      
  48               4.57566375E-01   7.72219125E-02   641.19705984     3.41457150E-06   8.72318073E+17   4.96060251E+06   2.27607794E+05   7.42443072E+08   0.29933613      
  49               5.29010634E-01   9.14560720E-02   681.84817570     3.80286439E-06   9.71517664E+17   4.79270697E+06   3.95479965E+05   7.29951737E+08   0.29929116      
  50               6.11610175E-01   1.07344965E-01   707.62948007     4.30092226E-06   1.09875687E+18   4.60054951E+06   5.87700647E+05   7.17527848E+08   0.29892122      
  51               7.07106781E-01   1.24950024E-01   748.51824345     4.73284318E-06   1.20909325E+18   4.36818050E+06   8.20023242E+05   7.05188373E+08   0.29885493      
  52               8.17514195E-01   1.44356154E-01   773.14087862     5.29379388E-06   1.35239173E+18   4.13056169E+06   1.05772506E+06   6.92928247E+08   0.29822221      
  53               9.45160584E-01   1.65742104E-01   814.32396058     5.77065034E-06   1.47421720E+18   3.89629347E+06   1.29189208E+06   6.80692406E+08   0.29808667      
  54               1.09273764E+00   1.89319774E-01   838.23434018     6.40351597E-06   1.63589855E+18   3.69760836E+06   1.49064726E+06   6.68427057E+08   0.29721464      
  55               1.26335732E+00   2.15395383E-01   880.28858072     6.93736067E-06   1.77229969E+18   3.55027860E+06   1.63782975E+06   6.56055221E+08   0.29708363      
  56               1.46061751E+00   2.44302905E-01   904.20276427     7.66022523E-06   1.95699015E+18   3.47462372E+06   1.71346728E+06   6.43515275E+08   0.29573329      
  57               1.68867783E+00   2.76881163E-01   948.15668578     8.27900950E-06   2.11514010E+18   3.51986273E+06   1.66806791E+06   6.30578047E+08   0.29558976      
  58               1.95234742E+00   3.14106438E-01   973.93911946     9.14299023E-06   2.33598940E+18   3.66698881E+06   1.52073491E+06   6.17047598E+08   0.29381377      
  59               2.25718628E+00   3.58729477E-01   1023.12562851    9.93823983E-06   2.53959195E+18   3.96328638E+06   1.22451646E+06   6.02242530E+08   0.29374096      
  60               2.60962258E+00   4.13852575E-01   1056.12402953    1.11059305E-05   2.83828876E+18   4.45297400E+06   7.34426082E+05   5.85649829E+08   0.2915676       
  61               3.01708817E+00   4.86404646E-01   1118.11022704    1.23264210E-05   3.15093130E+18   5.09949604E+06   8.82806502E+04   5.66038077E+08   0.29156909      
  62               3.48817529E+00   5.84571847E-01   1168.01490447    1.41794603E-05   3.62506127E+18   5.18816316E+06   0.00000000E+00   5.42555970E+08   0.28900998      
  63               4.03281780E+00   7.10420960E-01   1217.76417403    1.65266889E-05   4.22550298E+18   5.18818587E+06   0.00000000E+00   5.16558096E+08   0.28900566      
  64               4.66250061E+00   8.63679380E-01   1257.74177413    1.94525662E-05   4.97378382E+18   5.18819317E+06   0.00000000E+00   4.89528114E+08   0.28583014      
  65               5.39050188E+00   1.04387166E+00   1301.09459496    2.27268008E-05   5.81117661E+18   5.18819754E+06   0.00000000E+00   4.62427369E+08   0.28565511      
  66               6.23217301E+00   1.25147915E+00   1337.54614544    2.65037219E-05   6.77704993E+18   5.18819674E+06   0.00000000E+00   4.35677521E+08   0.28166871      
  67               7.20526240E+00   1.48680310E+00   1379.12826714    3.05374189E-05   7.80862625E+18   5.18820463E+06   0.00000000E+00   4.09519924E+08   0.28108393      
  68               8.33028963E+00   1.75084684E+00   1415.60602357    3.50337227E-05   8.95842362E+18   5.18820506E+06   0.00000000E+00   3.83991889E+08   0.27638087      
  69               9.63097823E+00   2.04477466E+00   1458.37278332    3.97152613E-05   1.01555335E+19   5.18821685E+06   0.00000000E+00   3.59073475E+08   0.27550183      
  70               1.11347559E+01   2.36930895E+00   1497.13191739    4.48281824E-05   1.14627142E+19   5.18820996E+06   0.00000000E+00   3.34750969E+08   0.27433038      
  71               1.28733329E+01   2.72145939E+00   1542.73942025    4.99735615E-05   1.27771832E+19   5.18821569E+06   0.00000000E+00   3.11222748E+08   0.27291226      
  72               1.48833708E+01   3.08999937E+00   1584.83140676    5.52550463E-05   1.41221611E+19   5.18820260E+06   0.00000000E+00   2.89043413E+08   0.27147549      
  73               1.72072553E+01   3.46586313E+00   1633.45776580    6.01343243E-05   1.53684241E+19   5.18818255E+06   0.00000000E+00   2.68423541E+08   0.26987207      
  74               1.98939903E+01   3.83731569E+00   1678.90461073    6.47926707E-05   1.65549300E+19   4.59947029E+06   5.89485457E+05   2.49604899E+08   0.2683908       
  75               2.30002312E+01   4.18158098E+00   1717.86771132    6.90334746E-05   1.76309874E+19   3.85589758E+06   1.33414770E+06   2.33326502E+08   0.26671814      
  76               2.65914795E+01   4.47988474E+00   1749.68616677    7.27022146E-05   1.85452427E+19   3.16787889E+06   2.02298807E+06   2.20009883E+08   0.26515294      
  77               3.07434641E+01   4.73213758E+00   1775.14196084    7.56937670E-05   1.93085701E+19   2.79617821E+06   2.39553990E+06   2.09256817E+08   0.26342836      
  78               3.55437382E+01   5.00863227E+00   1801.87249273    7.89259066E-05   2.01335766E+19   2.56772707E+06   2.62588415E+06   1.97944616E+08   0.26192577      
  79               4.10935254E+01   5.24422709E+00   1823.56594169    8.16773836E-05   2.08298363E+19   2.25329879E+06   2.94313964E+06   1.88665185E+08   0.26068183      
  80               4.75098546E+01   5.43181993E+00   1840.37799888    8.38253202E-05   2.13778572E+19   2.06272655E+06   3.13636334E+06   1.81495867E+08   0.25954166      
  81               5.49280272E+01   5.63990212E+00   1858.32017915    8.61950197E-05   2.19824889E+19   1.98594049E+06   3.21481773E+06   1.73754703E+08   0.25852767      
  82               6.35044707E+01   5.87002059E+00   1877.66481304    8.87862823E-05   2.26437002E+19   1.90577968E+06   3.29702071E+06   1.65436346E+08   0.25758895      
  83               7.34200373E+01   6.12350948E+00   1898.12162263    9.16170843E-05   2.33669591E+19   1.72215498E+06   3.47933422E+06   1.56548472E+08   0.25674395      
  84               8.48838171E+01   6.30847064E+00   1912.71511022    9.37462986E-05   2.38890917E+19   1.46211064E+06   3.72954184E+06   1.50236454E+08   0.25589886      
  85               9.81375475E+01   6.43819540E+00   1922.61995792    9.51802050E-05   2.42547357E+19   1.32678839E+06   3.85809015E+06   1.45893627E+08   0.25536067      
  86               1.13460711E+02   6.58423728E+00   1933.72770823    9.67789001E-05   2.46624372E+19   1.28898366E+06   3.89599247E+06   1.41081759E+08   0.25490543      
  87               1.31176428E+02   6.74817386E+00   1945.80464471    9.85715596E-05   2.51196085E+19   1.24689499E+06   3.93819772E+06   1.35774017E+08   0.25446809      
  88               1.51658271E+02   6.93166846E+00   1959.19773395    1.00558031E-04   2.56262673E+19   1.20245139E+06   3.98278931E+06   1.29945753E+08   0.25390566      
  89               1.75338142E+02   7.13635747E+00   1973.63475569    1.02768294E-04   2.61900092E+19   1.15308586E+06   4.03234251E+06   1.23578433E+08   0.25335784      
  90               2.02715380E+02   7.36392510E+00   1989.45665992    1.05199631E-04   2.68102411E+19   1.10306934E+06   4.08232711E+06   1.16657353E+08   0.25266747      
  91               2.34367291E+02   7.61625178E+00   2006.35815681    1.07885087E-04   2.74953132E+19   1.05097931E+06   4.13405487E+06   1.09167461E+08   0.25198046      
  92               2.70961321E+02   7.89509644E+00   2024.68059361    1.10819439E-04   2.82440362E+19   1.00432063E+06   4.18050598E+06   1.01103028E+08   0.25112943      
  93               3.13269130E+02   8.20400129E+00   2044.16594941    1.14053579E-04   2.90693560E+19   9.62014796E+05   4.22284297E+06   9.24141747E+07   0.25025591      
  94               3.62182865E+02   8.54539050E+00   2065.18545654    1.17585471E-04   2.99708248E+19   9.19462116E+05   4.26542634E+06   8.30919680E+07   0.2492005       
  95               4.18733975E+02   8.92182460E+00   2087.34455041    1.21455987E-04   3.09588898E+19   8.75780673E+05   4.30913556E+06   7.31309678E+07   0.24813536      
  96               4.84114957E+02   9.33601069E+00   2111.03234345    1.25661021E-04   3.20326075E+19   8.32234329E+05   4.35270903E+06   6.25290092E+07   0.2468793       
  97               5.59704502E+02   9.79082768E+00   2135.79584138    1.30246089E-04   3.32036258E+19   7.88080516E+05   4.39688854E+06   5.12867277E+07   0.24557391      
  98               6.47096573E+02   1.02893439E+01   2162.04490270    1.35205324E-04   3.44705978E+19   7.44463879E+05   4.44053048E+06   3.94071614E+07   0.24409144      
  99               7.48134013E+02   1.08348483E+01   2189.27708306    1.40589750E-04   3.58465978E+19   7.00522110E+05   4.48449612E+06   2.68952103E+07   0.24247532      
  100              8.64947405E+02   1.14308799E+01   2217.91051772    1.46393341E-04   3.73302999E+19   6.57494560E+05   4.52754628E+06   1.37571133E+07   0.24069251      
  101              1.00000000E+03   1.20812610E+01   2247.41397596    1.52672731E-04   3.89363313E+19   6.33265521E+05   4.55172140E+06   0.00000000E+00   0.23880022      
