# ATMO pressure-temperature profile
# Effective temperature = 1800.0K
# log(g) = 3.0cm/s^2
# M/H = 0.0
# Optical depth grid in band 17 (1.20-1.33microns)
# All parameters in cgs units
#
# Model Level      Optical Depth    Pressure         Temperature      Density          Number Density   Rad Flux         Conv Flux        Radial Extension Adiabatic Gradient
#                                   [Ba]             [K]              [g/cm^3]         [/cm^3]          [ergs/s/cm^2/sr] [ergs/s/cm^2/sr] [cm]             [K/Ba]          
  1                1.00000000E-05   1.00000000E-05   614.90090739     4.60652049E-10   1.17793332E+14   5.95209831E+08   0.00000000E+00   7.44190607E+08   0.29800483      
  2                1.20226443E-05   1.59202634E-05   661.70243269     6.81430576E-10   1.74266279E+14   5.95209833E+08   0.00000000E+00   7.33622810E+08   0.29772821      
  3                1.44543977E-05   2.37089336E-05   684.64513155     9.80793000E-10   2.50825875E+14   5.95209834E+08   0.00000000E+00   7.24095618E+08   0.29746384      
  4                1.73780083E-05   3.29771988E-05   704.02870521     1.32664044E-09   3.39272950E+14   5.95209834E+08   0.00000000E+00   7.15970426E+08   0.29715186      
  5                2.08929613E-05   4.39454613E-05   718.98358516     1.73111235E-09   4.42711591E+14   5.95209835E+08   0.00000000E+00   7.08732756E+08   0.29688761      
  6                2.51188643E-05   5.69070189E-05   734.28274138     2.19499830E-09   5.61343056E+14   5.95209835E+08   0.00000000E+00   7.02083428E+08   0.29655342      
  7                3.01995172E-05   7.22209257E-05   746.74754596     2.73919647E-09   7.00511205E+14   5.95209835E+08   0.00000000E+00   6.95838068E+08   0.2962811       
  8                3.63078055E-05   9.03073734E-05   760.39463854     3.36378735E-09   8.60220929E+14   5.95209836E+08   0.00000000E+00   6.89879687E+08   0.29592468      
  9                4.36515832E-05   1.11682638E-04   771.66269663     4.09923076E-09   1.04829616E+15   5.95209837E+08   0.00000000E+00   6.84123352E+08   0.29631512      
  10               5.24807460E-05   1.36966593E-04   784.48309315     4.94509950E-09   1.26461086E+15   5.95209838E+08   0.00000000E+00   6.78507620E+08   0.29606829      
  11               6.30957344E-05   1.66885764E-04   795.23005512     5.94388466E-09   1.52003065E+15   5.95209839E+08   0.00000000E+00   6.72989046E+08   0.29587685      
  12               7.58577575E-05   2.02294555E-04   807.78635302     7.09302306E-09   1.81390075E+15   5.95209840E+08   0.00000000E+00   6.67535735E+08   0.29561387      
  13               9.12010839E-05   2.44199610E-04   818.41847246     8.45109845E-09   2.16120211E+15   5.95209841E+08   0.00000000E+00   6.62123282E+08   0.29541081      
  14               1.09647820E-04   2.93783309E-04   831.02702935     1.00127979E-08   2.56057681E+15   5.95209843E+08   0.00000000E+00   6.56733085E+08   0.29512759      
  15               1.31825674E-04   3.52435791E-04   841.76456961     1.18585827E-08   3.03260051E+15   5.95209845E+08   0.00000000E+00   6.51350482E+08   0.2949075       
  16               1.58489319E-04   4.21787385E-04   854.59411585     1.39790289E-08   3.57486403E+15   5.95209847E+08   0.00000000E+00   6.45964045E+08   0.29459891      
  17               1.90546072E-04   5.03750739E-04   865.55320713     1.64840983E-08   4.21548711E+15   5.95209850E+08   0.00000000E+00   6.40564607E+08   0.29435988      
  18               2.29086765E-04   6.00563145E-04   878.71039097     1.93578042E-08   4.95038247E+15   5.95209854E+08   0.00000000E+00   6.35144967E+08   0.2940244       
  19               2.75422870E-04   7.14837048E-04   890.04189539     2.27478179E-08   5.81731314E+15   5.95209859E+08   0.00000000E+00   6.29699324E+08   0.29376198      
  20               3.31131121E-04   8.49617814E-04   903.68021250     2.66288187E-08   6.80980501E+15   5.95209864E+08   0.00000000E+00   6.24223089E+08   0.2933938       
  21               3.98107171E-04   1.00845191E-03   915.48355708     3.11995030E-08   7.97866967E+15   5.95209871E+08   0.00000000E+00   6.18712551E+08   0.29310498      
  22               4.78630092E-04   1.19549091E-03   929.66607389     3.64218716E-08   9.31419088E+15   5.95209878E+08   0.00000000E+00   6.13164031E+08   0.29270259      
  23               5.75439937E-04   1.41573160E-03   942.00071955     4.25669593E-08   1.08856792E+16   5.95209888E+08   0.00000000E+00   6.07570576E+08   0.29238461      
  24               6.91830971E-04   1.67503002E-03   956.88573903     4.95798711E-08   1.26790978E+16   5.95209898E+08   0.00000000E+00   6.01926266E+08   0.29194165      
  25               8.31763771E-04   1.98020526E-03   969.97632431     5.78218429E-08   1.47868244E+16   5.95209909E+08   0.00000000E+00   5.96226584E+08   0.29158715      
  26               1.00000000E-03   2.33918156E-03   985.74933516     6.72109820E-08   1.71879182E+16   5.95209923E+08   0.00000000E+00   5.90468212E+08   0.29109745      
  27               1.20226443E-03   2.76112395E-03   999.79573927     7.82199250E-08   2.00032453E+16   5.95209937E+08   0.00000000E+00   5.84648864E+08   0.29069891      
  28               1.44543977E-03   3.25657973E-03   1016.75890298    9.07165355E-08   2.31990163E+16   5.95209952E+08   0.00000000E+00   5.78767162E+08   0.29015152      
  29               1.73780083E-03   3.83763099E-03   1032.09413685    1.05314118E-07   2.69320704E+16   5.95209962E+08   0.00000000E+00   5.72822489E+08   0.28969572      
  30               2.08929613E-03   4.51808215E-03   1050.48814264    1.21816359E-07   3.11522062E+16   5.95209968E+08   0.00000000E+00   5.66814891E+08   0.2890821       
  31               2.51188643E-03   5.31360934E-03   1067.28933573    1.41010048E-07   3.60606284E+16   5.95209958E+08   0.00000000E+00   5.60745052E+08   0.28856212      
  32               3.01995172E-03   6.24194169E-03   1087.30948557    1.62595712E-07   4.15807549E+16   5.95209942E+08   0.00000000E+00   5.54614156E+08   0.28787299      
  33               3.63078055E-03   7.32288774E-03   1105.91079570    1.87544698E-07   4.79609877E+16   5.95209893E+08   0.00000000E+00   5.48424065E+08   0.28727555      
  34               4.36515832E-03   8.57853764E-03   1127.90059992    2.15419439E-07   5.50894293E+16   5.95209821E+08   0.00000000E+00   5.42177032E+08   0.28649654      
  35               5.24807460E-03   1.00349323E-02   1148.56705439    2.47457419E-07   6.32825442E+16   5.95209692E+08   0.00000000E+00   5.35869109E+08   0.28571837      
  36               6.30957344E-03   1.17225937E-02   1172.90053190    2.83077210E-07   7.23916325E+16   5.95209526E+08   0.00000000E+00   5.29492604E+08   0.28333319      
  37               7.58577575E-03   1.36752179E-02   1196.26534199    3.23779230E-07   8.28004265E+16   5.95209264E+08   0.00000000E+00   5.23042871E+08   0.28267658      
  38               9.12010839E-03   1.59296316E-02   1223.63128748    3.68721012E-07   9.42933355E+16   5.95208932E+08   0.00000000E+00   5.16518175E+08   0.2820766       
  39               1.09647820E-02   1.85254073E-02   1250.33619818    4.19646463E-07   1.07316574E+17   5.95208429E+08   0.00000000E+00   5.09919199E+08   0.28168032      
  40               1.31825674E-02   2.15034342E-02   1281.50566260    4.75260510E-07   1.21538294E+17   5.95207832E+08   0.00000000E+00   5.03250805E+08   0.28132531      
  41               1.58489319E-02   2.49014363E-02   1312.65835852    5.37305495E-07   1.37403732E+17   5.95206977E+08   0.00000000E+00   4.96526495E+08   0.28091687      
  42               1.90546072E-02   2.87425592E-02   1349.13003798    6.03448817E-07   1.54311205E+17   5.95206074E+08   0.00000000E+00   4.89780745E+08   0.27958106      
  43               2.29086765E-02   3.30212852E-02   1386.89998244    6.74447111E-07   1.72454555E+17   5.95204677E+08   0.00000000E+00   4.83073801E+08   0.27773861      
  44               2.75422870E-02   3.75915417E-02   1437.49406299    7.41090338E-07   1.89413059E+17   5.94440945E+08   7.35573079E+05   4.76608960E+08   0.27525814      
  45               3.31131121E-02   4.22981021E-02   1484.73204645    8.07553446E-07   2.06347228E+17   5.91977500E+08   3.18473688E+06   4.70524825E+08   0.27284212      
  46               3.98107171E-02   4.69863947E-02   1527.74550673    8.72235436E-07   2.22764995E+17   5.88174245E+08   6.97991596E+06   4.64938444E+08   0.27038129      
  47               4.78630092E-02   5.12315830E-02   1563.73675835    9.30505744E-07   2.37301219E+17   5.83753819E+08   1.13834882E+07   4.60225686E+08   0.26824496      
  48               5.75439937E-02   5.51212781E-02   1594.66528716    9.81673891E-07   2.50366131E+17   5.79612973E+08   1.55078331E+07   4.56155888E+08   0.26636663      
  49               6.91830971E-02   5.90147063E-02   1623.83341744    1.03301689E-06   2.63235595E+17   5.75640258E+08   1.94611289E+07   4.52289127E+08   0.26478439      
  50               8.31763771E-02   6.26456282E-02   1649.68450239    1.07935349E-06   2.75052574E+17   5.71916512E+08   2.31732201E+07   4.48850526E+08   0.26327797      
  51               1.00000000E-01   6.67548609E-02   1677.45253562    1.13106361E-06   2.88242818E+17   5.67554937E+08   2.75398165E+07   4.45131443E+08   0.26141871      
  52               1.20226443E-01   7.13834703E-02   1707.04445680    1.18845227E-06   3.02885627E+17   5.62362568E+08   3.27353557E+07   4.41139200E+08   0.25916139      
  53               1.44543977E-01   7.65655628E-02   1738.22277801    1.25176832E-06   3.19046425E+17   5.56152849E+08   3.89476795E+07   4.36890528E+08   0.256615        
  54               1.73780083E-01   8.23120293E-02   1770.69887614    1.32090703E-06   3.36701024E+17   5.48759896E+08   4.63403830E+07   4.32421593E+08   0.25366108      
  55               2.08929613E-01   8.85418263E-02   1803.60490359    1.39479021E-06   3.55576383E+17   5.40346972E+08   5.47405738E+07   4.27831887E+08   0.25040562      
  56               2.51188643E-01   9.52772951E-02   1836.87547010    1.47348607E-06   3.75695112E+17   5.31409707E+08   6.36729189E+07   4.23133572E+08   0.24692332      
  57               3.01995172E-01   1.02823737E-01   1871.57503584    1.56041277E-06   3.97934855E+17   5.21562554E+08   7.35336743E+07   4.18156755E+08   0.24298268      
  58               3.63078055E-01   1.11263902E-01   1907.56625416    1.65624153E-06   4.22474493E+17   5.10328386E+08   8.47922902E+07   4.12906602E+08   0.23846788      
  59               4.36515832E-01   1.20690251E-01   1944.61118214    1.76180879E-06   4.49536803E+17   4.97420855E+08   9.77333466E+07   4.07388297E+08   0.23353791      
  60               5.24807460E-01   1.31206276E-01   1982.60354728    1.87792537E-06   4.79340992E+17   4.82599046E+08   1.12595621E+08   4.01606844E+08   0.22817583      
  61               6.30957344E-01   1.42928280E-01   2021.28541350    2.00565407E-06   5.12172629E+17   4.65673021E+08   1.29567461E+08   3.95566810E+08   0.22227779      
  62               7.58577575E-01   1.55988281E-01   2060.50962798    2.14609890E-06   5.48331461E+17   4.46562686E+08   1.48717523E+08   3.89271809E+08   0.21598401      
  63               9.12010839E-01   1.70538369E-01   2100.06495277    2.30062494E-06   5.88186725E+17   4.25350817E+08   1.69955722E+08   3.82723577E+08   0.20956573      
  64               1.09647820E+00   1.86749506E-01   2139.90593671    2.47057264E-06   6.32107027E+17   4.02202590E+08   1.93123619E+08   3.75923737E+08   0.20319288      
  65               1.31825674E+00   2.04812552E-01   2179.88001685    2.65755525E-06   6.80533987E+17   3.77320553E+08   2.18021460E+08   3.68874230E+08   0.19674469      
  66               1.58489319E+00   2.24941301E-01   2219.89537546    2.86329753E-06   7.33943344E+17   3.51005372E+08   2.44348924E+08   3.61577121E+08   0.19040128      
  67               1.90546072E+00   2.47373570E-01   2259.86966506    3.08968925E-06   7.92858605E+17   3.23547558E+08   2.71814399E+08   3.54035033E+08   0.18416175      
  68               2.29086765E+00   2.72373284E-01   2299.71101179    3.33881818E-06   8.57861310E+17   2.95143654E+08   3.00221448E+08   3.46251247E+08   0.17786812      
  69               2.75422870E+00   3.00163258E-01   2339.17009888    3.61279924E-06   9.29440444E+17   2.66213518E+08   3.29148833E+08   3.38249370E+08   0.17186491      
  70               3.31131121E+00   3.31062514E-01   2378.33762784    3.91319699E-06   1.00823633E+18   2.37612216E+08   3.57739905E+08   3.30031285E+08   0.16644219      
  71               3.98107171E+00   3.65496779E-01   2417.30263241    4.24363020E-06   1.09516201E+18   2.09859436E+08   3.85469759E+08   3.21581087E+08   0.16135365      
  72               4.78630092E+00   4.03849914E-01   2456.02347962    4.60687730E-06   1.19100427E+18   1.83154951E+08   4.12146436E+08   3.12906681E+08   0.15653122      
  73               5.75439937E+00   4.46526988E-01   2494.44867242    5.00580223E-06   1.29657899E+18   1.57919702E+08   4.37353753E+08   3.04019468E+08   0.15213806      
  74               6.91830971E+00   4.93968627E-01   2532.62374833    5.44325165E-06   1.41271492E+18   1.34716924E+08   4.60507090E+08   2.94930703E+08   0.14815824      
  75               8.31763771E+00   5.46686414E-01   2570.53621259    5.92276030E-06   1.54042442E+18   1.14076796E+08   4.81072756E+08   2.85645805E+08   0.14447418      
  76               1.00000000E+01   6.05232377E-01   2608.20800864    6.44795778E-06   1.68076025E+18   9.62318368E+07   4.98832608E+08   2.76171768E+08   0.14105822      
  77               1.20226443E+01   6.70199955E-01   2645.61367719    7.02279161E-06   1.83486369E+18   8.11791879E+07   5.13799476E+08   2.66516998E+08   0.13797225      
  78               1.44543977E+01   7.42223618E-01   2682.81274529    7.65109266E-06   2.00387325E+18   6.86843586E+07   5.26207751E+08   2.56691157E+08   0.13520216      
  79               1.73780083E+01   8.21980074E-01   2719.77742253    8.33712563E-06   2.18904034E+18   5.83410815E+07   5.36474428E+08   2.46704803E+08   0.13261194      
  80               2.08929613E+01   9.10196953E-01   2756.50343767    9.08532473E-06   2.39167783E+18   4.97731714E+07   5.44984497E+08   2.36568394E+08   0.1302149       
  81               2.51188643E+01   1.00765655E+00   2792.98210957    9.90040801E-06   2.61318538E+18   4.26439138E+07   5.52075683E+08   2.26292053E+08   0.12806313      
  82               3.01995172E+01   1.11519381E+00   2829.24980789    1.07870933E-05   2.85499198E+18   3.66741162E+07   5.58021730E+08   2.15885890E+08   0.12620009      
  83               3.63078055E+01   1.23369901E+00   2865.33274545    1.17503188E-05   3.11860228E+18   3.16295070E+07   5.63047841E+08   2.05359715E+08   0.12456755      
  84               4.36515832E+01   1.36412583E+00   2901.24616552    1.27953216E-05   3.40561612E+18   2.73398992E+07   5.67331206E+08   1.94722535E+08   0.12311672      
  85               5.24807460E+01   1.50750115E+00   2937.00152080    1.39276818E-05   3.71774263E+18   2.36772559E+07   5.70998114E+08   1.83982166E+08   0.12182208      
  86               6.30957344E+01   1.66493558E+00   2972.61313690    1.51533524E-05   4.05681200E+18   2.05431952E+07   5.74146127E+08   1.73145005E+08   0.12066987      
  87               7.58577575E+01   1.83763744E+00   3008.09864801    1.64787398E-05   4.42479949E+18   1.78563368E+07   5.76847489E+08   1.62215764E+08   0.11963416      
  88               9.12010839E+01   2.02690553E+00   3043.46734362    1.79106859E-05   4.82381564E+18   1.55404417E+07   5.79187712E+08   1.51198634E+08   0.11869413      
  89               1.09647820E+02   2.23410040E+00   3078.72448966    1.94561633E-05   5.25602835E+18   1.35345578E+07   5.81228367E+08   1.40099140E+08   0.11784574      
  90               1.31825674E+02   2.46071868E+00   3113.88310927    2.11228128E-05   5.72381384E+18   1.17960984E+07   5.83008999E+08   1.28920237E+08   0.11709965      
  91               1.58489319E+02   2.70840967E+00   3148.97183851    2.29189099E-05   6.22976148E+18   1.02885774E+07   5.84564256E+08   1.17662636E+08   0.11646093      
  92               1.90546072E+02   2.97898907E+00   3184.02043647    2.48535206E-05   6.77671003E+18   8.98066282E+06   5.85912874E+08   1.06325272E+08   0.11594186      
  93               2.29086765E+02   3.27445206E+00   3219.07544022    2.69363189E-05   7.36772355E+18   7.84405449E+06   5.87085726E+08   9.49057444E+07   0.11552613      
  94               2.75422870E+02   3.59699284E+00   3254.16468548    2.91780808E-05   8.00618987E+18   6.85590130E+06   5.88109019E+08   8.34005190E+07   0.11519328      
  95               3.31131121E+02   3.94903353E+00   3289.32988274    3.15904211E-05   8.69579376E+18   5.99601811E+06   5.89001825E+08   7.18048809E+07   0.11492002      
  96               3.98107171E+02   4.33323915E+00   3324.59023820    3.41863321E-05   9.44061687E+18   5.24529156E+06   5.89782448E+08   6.01134548E+07   0.11469603      
  97               4.78630092E+02   4.75254213E+00   3359.98493920    3.69796384E-05   1.02450595E+19   4.58797100E+06   5.90460062E+08   4.83203545E+07   0.1145084       
  98               5.75439937E+02   5.21017279E+00   3395.52788724    3.99858691E-05   1.11140070E+19   4.01152511E+06   5.91046639E+08   3.64192290E+07   0.11436893      
  99               6.91830971E+02   5.70968678E+00   3431.26815200    4.32212420E-05   1.20526755E+19   3.50568601E+06   5.91562385E+08   2.44034143E+07   0.11427777      
  100              8.31763771E+02   6.25499761E+00   3467.22098913    4.67040694E-05   1.30668668E+19   3.06150521E+06   5.92015301E+08   1.22660186E+07   0.11424082      
  101              1.00000000E+03   6.85041102E+00   3503.44076685    5.04533411E-05   1.41627533E+19   2.85428356E+06   5.92241494E+08   0.00000000E+00   0.11425269      
