# ATMO pressure-temperature profile
# Effective temperature = 2200.0K
# log(g) = 4.0cm/s^2
# M/H = 0.0
# Optical depth grid in band 17 (1.20-1.33microns)
# All parameters in cgs units
#
# Model Level      Optical Depth    Pressure         Temperature      Density          Number Density   Rad Flux         Conv Flux        Radial Extension Adiabatic Gradient
#                                   [Ba]             [K]              [g/cm^3]         [/cm^3]          [ergs/s/cm^2/sr] [ergs/s/cm^2/sr] [cm]             [K/Ba]          
  1                8.00000000E-05   1.00000000E-05   793.29416591     3.57032917E-10   9.13043732E+13   1.32820860E+09   0.00000000E+00   1.00389843E+08   0.29474226      
  2                9.42017752E-05   3.70844089E-04   948.61409333     1.10724635E-08   2.83157213E+15   1.32820860E+09   0.00000000E+00   8.22412042E+07   0.29231455      
  3                1.10924681E-04   7.32356410E-04   994.24663544     2.08627139E-08   5.33524290E+15   1.32820860E+09   0.00000000E+00   7.98626359E+07   0.2905942       
  4                1.30616273E-04   1.12966051E-03   1038.93626097    3.07965054E-08   7.87562235E+15   1.32820860E+09   0.00000000E+00   7.82952100E+07   0.2895666       
  5                1.53803560E-04   1.57354445E-03   1060.95260071    4.20073618E-08   1.07425869E+16   1.32820860E+09   0.00000000E+00   7.70610939E+07   0.2884874       
  6                1.81107105E-04   2.07367322E-03   1093.65445922    5.37034894E-08   1.37336518E+16   1.32820860E+09   0.00000000E+00   7.60081193E+07   0.28776421      
  7                2.13257635E-04   2.63914466E-03   1109.53712512    6.73695514E-08   1.72284893E+16   1.32820860E+09   0.00000000E+00   7.50680116E+07   0.28686187      
  8                2.51115597E-04   3.28045594E-03   1137.83780995    8.16574991E-08   2.08823652E+16   1.32820860E+09   0.00000000E+00   7.42033641E+07   0.28625011      
  9                2.95694188E-04   4.00976371E-03   1151.11255412    9.86604801E-08   2.52305565E+16   1.32820860E+09   0.00000000E+00   7.33908308E+07   0.28542291      
  10               3.48186468E-04   4.84124594E-03   1177.50020169    1.16449703E-07   2.97798150E+16   1.32820860E+09   0.00000000E+00   7.26150979E+07   0.28485748      
  11               4.09997292E-04   5.79027015E-03   1189.72401445    1.37846184E-07   3.52515679E+16   1.32820860E+09   0.00000000E+00   7.18660480E+07   0.28404865      
  12               4.82780909E-04   6.87435323E-03   1215.45567895    1.60190011E-07   4.09655280E+16   1.32820860E+09   0.00000000E+00   7.11365105E+07   0.28349374      
  13               5.68485234E-04   8.11273782E-03   1227.48481197    1.87194849E-07   4.78715130E+16   1.32820860E+09   0.00000000E+00   7.04213708E+07   0.28268215      
  14               6.69403978E-04   9.52721953E-03   1253.21188155    2.15320746E-07   5.50639685E+16   1.32820860E+09   0.00000000E+00   6.97168275E+07   0.28212143      
  15               7.88238038E-04   1.11417786E-02   1265.50912688    2.49363976E-07   6.37698042E+16   1.32820859E+09   0.00000000E+00   6.90200498E+07   0.2810773       
  16               9.28167781E-04   1.29817761E-02   1291.72587496    2.84652341E-07   7.27929961E+16   1.32820860E+09   0.00000000E+00   6.83294224E+07   0.28128664      
  17               1.09293816E-03   1.50768748E-02   1304.76648015    3.27286933E-07   8.36959373E+16   1.32820859E+09   0.00000000E+00   6.76430137E+07   0.28133334      
  18               1.28695893E-03   1.74512724E-02   1331.87286136    3.71140869E-07   9.49052345E+16   1.32820860E+09   0.00000000E+00   6.69617383E+07   0.28094475      
  19               1.51542270E-03   2.01357307E-02   1345.89693182    4.23768078E-07   1.08363103E+17   1.32820859E+09   0.00000000E+00   6.62848404E+07   0.27983152      
  20               1.78444386E-03   2.31539176E-02   1374.10300610    4.77340675E-07   1.22048103E+17   1.32820860E+09   0.00000000E+00   6.56137613E+07   0.27875768      
  21               2.10122224E-03   2.65333169E-02   1389.47906345    5.40960156E-07   1.38313757E+17   1.32820859E+09   0.00000000E+00   6.49487275E+07   0.27729941      
  22               2.47423582E-03   3.02326808E-02   1419.11936236    6.03731748E-07   1.54306270E+17   1.32820861E+09   0.00000000E+00   6.43013758E+07   0.2762806       
  23               2.91346758E-03   3.42921326E-02   1436.09996478    6.76705194E-07   1.72956012E+17   1.32820860E+09   0.00000000E+00   6.36662704E+07   0.27495624      
  24               3.43067273E-03   3.87751354E-02   1467.43474525    7.48946076E-07   1.91390495E+17   1.32820863E+09   0.00000000E+00   6.30365434E+07   0.27391231      
  25               4.03969326E-03   4.35931280E-02   1485.79256892    8.31664879E-07   2.12513092E+17   1.32820861E+09   0.00000000E+00   6.24260685E+07   0.27240091      
  26               4.75682846E-03   4.87882287E-02   1518.61288918    9.10945323E-07   2.32698620E+17   1.32820870E+09   0.00000000E+00   6.18291952E+07   0.27116308      
  27               5.60127107E-03   5.39866768E-02   1538.88059314    9.95289206E-07   2.54101665E+17   1.32820871E+09   0.00000000E+00   6.12832197E+07   0.26944204      
  28               6.59562098E-03   5.87693573E-02   1571.31996780    1.06218136E-06   2.70901963E+17   1.32820882E+09   0.00000000E+00   6.08180358E+07   0.268043        
  29               7.76649006E-03   6.35539580E-02   1591.80831096    1.13380937E-06   2.89186273E+17   1.32820878E+09   0.00000000E+00   6.03820459E+07   0.26638739      
  30               9.14521438E-03   6.82238197E-02   1620.06564671    1.19701079E-06   3.05020661E+17   1.32820882E+09   0.00000000E+00   5.99811317E+07   0.26541648      
  31               1.07686929E-02   7.23700444E-02   1635.67080705    1.25762314E-06   3.20471030E+17   1.32820867E+09   0.00000000E+00   5.96432002E+07   0.26413281      
  32               1.26803748E-02   7.70163448E-02   1660.75934170    1.31810372E-06   3.35893839E+17   1.32820868E+09   0.00000000E+00   5.92823246E+07   0.2631792       
  33               1.49314227E-02   8.22036887E-02   1679.34787867    1.39127352E-06   3.54549172E+17   1.32820860E+09   0.00000000E+00   5.88992669E+07   0.26140395      
  34               1.75820816E-02   8.79723973E-02   1707.87979813    1.46395860E-06   3.73091165E+17   1.32820862E+09   0.00000000E+00   5.84950555E+07   0.25999837      
  35               2.07032912E-02   9.43507028E-02   1730.76581327    1.54926714E-06   3.94850481E+17   1.32820848E+09   0.00000000E+00   5.80715314E+07   0.25765741      
  36               2.43785848E-02   1.01320989E-01   1768.08131789    1.62844684E-06   4.15071606E+17   1.32771896E+09   1.74313615E+06   5.76326955E+07   0.25535584      
  37               2.87063246E-02   1.08834645E-01   1795.05789353    1.72277680E-06   4.39151676E+17   1.32665251E+09   1.54007549E+06   5.71841042E+07   0.25194383      
  38               3.38023342E-02   1.16841500E-01   1832.73266280    1.81123069E-06   4.61768011E+17   1.32526471E+09   2.92404281E+06   5.67308283E+07   0.24930498      
  39               3.98029987E-02   1.25429444E-01   1859.71660017    1.91590934E-06   4.88515748E+17   1.32367325E+09   4.51287662E+06   5.62698124E+07   0.24538647      
  40               4.68689142E-02   1.34872521E-01   1898.44077270    2.01767478E-06   5.14579241E+17   1.32127863E+09   6.90535848E+06   5.57895226E+07   0.24213663      
  41               5.51891865E-02   1.45246066E-01   1926.97898348    2.14028271E-06   5.45950466E+17   1.31786286E+09   1.03198780E+07   5.52903306E+07   0.23730191      
  42               6.49864917E-02   1.56638274E-01   1967.07879198    2.26035461E-06   5.76769081E+17   1.31310507E+09   1.50770767E+07   5.47723804E+07   0.23352933      
  43               7.65230361E-02   1.69141404E-01   1996.78539095    2.40381411E-06   6.13542115E+17   1.30683174E+09   2.13505235E+07   5.42359886E+07   0.22781738      
  44               9.01075730E-02   1.82864819E-01   2037.73350291    2.54543584E-06   6.49992902E+17   1.29871008E+09   2.94726041E+07   5.36811892E+07   0.22347039      
  45               1.06103667E-01   1.97924062E-01   2068.20385873    2.71343496E-06   6.93156166E+17   1.28856356E+09   3.96197478E+07   5.31081752E+07   0.21699066      
  46               1.24939422E-01   2.14458624E-01   2109.49242642    2.88073734E-06   7.36362026E+17   1.27609201E+09   5.20918752E+07   5.25167665E+07   0.21247749      
  47               1.47118942E-01   2.32612264E-01   2140.46723788    3.07779515E-06   7.87136157E+17   1.26111224E+09   6.70727699E+07   5.19070954E+07   0.20585108      
  48               1.73235819E-01   2.52554913E-01   2181.77890938    3.27566109E-06   8.38437940E+17   1.24334402E+09   8.48422745E+07   5.12790060E+07   0.20131232      
  49               2.03989021E-01   2.74460809E-01   2213.03602008    3.50717389E-06   8.98292340E+17   1.22257695E+09   1.05611422E+08   5.06327015E+07   0.19463235      
  50               2.40201599E-01   2.98535672E-01   2254.06418995    3.74143814E-06   9.59302978E+17   1.19859334E+09   1.29597110E+08   4.99680790E+07   0.19029963      
  51               2.82842712E-01   3.24988559E-01   2285.45411836    4.01368058E-06   1.02996248E+18   1.17110552E+09   1.57089409E+08   4.92854459E+07   0.18345668      
  52               3.33053570E-01   3.54068121E-01   2325.83074411    4.29141488E-06   1.10264207E+18   1.14004344E+09   1.88158198E+08   4.85847554E+07   0.1792572       
  53               3.92177970E-01   3.85949786E-01   2357.09148445    4.61162372E-06   1.18598776E+18   1.10501763E+09   2.23185816E+08   4.78680655E+07   0.17286951      
  54               4.61798262E-01   4.20925056E-01   2396.53930744    4.93936015E-06   1.27217267E+18   1.06643450E+09   2.61766766E+08   4.71352251E+07   0.1693961       
  55               5.43777701E-01   4.59364479E-01   2427.77564418    5.31478320E-06   1.37048630E+18   1.02420202E+09   3.04000244E+08   4.63849775E+07   0.16355474      
  56               6.40310309E-01   5.01612899E-01   2466.39858854    5.70296185E-06   1.47309675E+18   9.78719630E+08   3.49483449E+08   4.56175659E+07   0.16052618      
  57               7.53979598E-01   5.47991744E-01   2497.63726229    6.14394327E-06   1.58917048E+18   9.29455385E+08   3.98750304E+08   4.48340418E+07   0.15527517      
  58               8.87827707E-01   5.98898486E-01   2535.35659396    6.60223329E-06   1.71096058E+18   8.77224648E+08   4.50981302E+08   4.40347282E+07   0.1529318       
  59               1.04543683E+00   6.54737300E-01   2566.68025917    7.11868325E-06   1.84765615E+18   8.21633109E+08   5.06572886E+08   4.32202161E+07   0.14818566      
  60               1.23102506E+00   7.15984648E-01   2603.47039674    7.65872225E-06   1.99194300E+18   7.64030162E+08   5.64173509E+08   4.23907091E+07   0.14627977      
  61               1.44955933E+00   7.83099973E-01   2634.91350788    8.26238344E-06   2.15266617E+18   7.03906975E+08   6.24294065E+08   4.15469903E+07   0.14198454      
  62               1.70688827E+00   8.56626206E-01   2670.74520410    8.89722905E-06   2.32319005E+18   6.43139884E+08   6.85055313E+08   4.06894144E+07   0.14059216      
  63               2.00989882E+00   9.37081313E-01   2702.38568437    9.60056907E-06   2.51163071E+18   5.81119693E+08   7.47068431E+08   3.98188821E+07   0.13673018      
  64               2.36670046E+00   1.02508306E+00   2737.23973275    1.03445142E-05   2.71251445E+18   5.20334181E+08   8.07844914E+08   3.89358074E+07   0.13569071      
  65               2.78684231E+00   1.12120866E+00   2769.09587652    1.11611304E-05   2.93274491E+18   4.60053984E+08   8.68116575E+08   3.80411901E+07   0.1320861       
  66               3.28156866E+00   1.22615948E+00   2802.88926707    1.20301827E-05   3.16859592E+18   4.03504308E+08   9.24657057E+08   3.71354480E+07   0.13153102      
  67               3.86411992E+00   1.34057431E+00   2835.06468847    1.29741366E-05   3.42494624E+18   3.49518399E+08   9.78633305E+08   3.62196186E+07   0.12840135      
  68               4.55008695E+00   1.46524506E+00   2867.84895996    1.39850372E-05   3.70066550E+18   3.01209069E+08   1.02693209E+09   3.52940649E+07   0.12736424      
  69               5.35782835E+00   1.60092968E+00   2899.98865412    1.50748114E-05   3.99854325E+18   2.58027422E+08   1.07010450E+09   3.43595625E+07   0.12546112      
  70               6.30896177E+00   1.74849207E+00   2932.24927336    1.62432592E-05   4.31905384E+18   2.21154618E+08   1.10696982E+09   3.34165429E+07   0.1243758       
  71               7.42894249E+00   1.90882392E+00   2964.23052066    1.74981255E-05   4.66422759E+18   1.89953516E+08   1.13816548E+09   3.24655117E+07   0.12308601      
  72               8.74774463E+00   2.08290599E+00   2996.19067165    1.88427799E-05   5.03530823E+18   1.64189131E+08   1.16392529E+09   3.15067889E+07   0.12221935      
  73               1.03006634E+01   2.27176538E+00   3028.05593483    2.02832513E-05   5.43407244E+18   1.42588521E+08   1.18552253E+09   3.05407281E+07   0.1210851       
  74               1.21292597E+01   2.47648786E+00   3059.72641433    2.18262631E-05   5.86245399E+18   1.24500041E+08   1.20361047E+09   2.95677257E+07   0.12010272      
  75               1.42824725E+01   2.69823616E+00   3091.35127480    2.34764346E-05   6.32204292E+18   1.09168510E+08   1.21894370E+09   2.85880975E+07   0.11920091      
  76               1.68179283E+01   2.93827890E+00   3122.79980942    2.52418926E-05   6.81513891E+18   9.60204831E+07   1.23209521E+09   2.76020040E+07   0.11840937      
  77               1.98034838E+01   3.19799720E+00   3154.25007960    2.71278388E-05   7.34357942E+18   8.46529548E+07   1.24346759E+09   2.66094813E+07   0.11770757      
  78               2.33190416E+01   3.47889537E+00   3185.56546983    2.91438904E-05   7.91007628E+18   7.47599980E+07   1.25336385E+09   2.56104622E+07   0.11711812      
  79               2.74586889E+01   3.78261488E+00   3216.94636872    3.12959002E-05   8.51675483E+18   6.61282542E+07   1.26199893E+09   2.46047786E+07   0.11659436      
  80               3.23332155E+01   4.11094502E+00   3248.23358990    3.35954562E-05   9.16685274E+18   5.85451610E+07   1.26958565E+09   2.35921907E+07   0.11614267      
  81               3.80730788E+01   4.46583137E+00   3279.63848363    3.60492554E-05   9.86284451E+18   5.18705111E+07   1.27626414E+09   2.25724100E+07   0.11572613      
  82               4.48318951E+01   4.84939474E+00   3310.98136983    3.86711326E-05   1.06085650E+19   4.59565164E+07   1.28218198E+09   2.15451005E+07   0.11535689      
  83               5.27905513E+01   5.26394657E+00   3342.48670638    4.14687627E-05   1.14068997E+19   4.07243408E+07   1.28741795E+09   2.05098855E+07   0.1150154       
  84               6.21620456E+01   5.71200808E+00   3373.96252241    4.44585180E-05   1.22623695E+19   3.60708341E+07   1.29207263E+09   1.94663549E+07   0.11472667      
  85               7.31971881E+01   6.19632564E+00   3405.65265747    4.76490259E-05   1.31783101E+19   3.19476793E+07   1.29619725E+09   1.84140750E+07   0.114477        
  86               8.61913133E+01   6.71989107E+00   3437.35467380    5.10594842E-05   1.41600154E+19   2.82769703E+07   1.29987007E+09   1.73525967E+07   0.11428317      
  87               1.01492184E+02   7.28596307E+00   3469.32689941    5.46996143E-05   1.52113438E+19   2.50347503E+07   1.30311484E+09   1.62814555E+07   0.11413281      
  88               1.19509299E+02   7.89809700E+00   3501.35681691    5.85918824E-05   1.63384906E+19   2.21599048E+07   1.30599252E+09   1.52001688E+07   0.11404157      
  89               1.40724851E+02   8.56016143E+00   3533.71669993    6.27472237E-05   1.75459168E+19   1.96239309E+07   1.30853149E+09   1.41082518E+07   0.11400572      
  90               1.65706635E+02   9.27636113E+00   3566.18750910    6.71915819E-05   1.88407988E+19   1.73682048E+07   1.31078818E+09   1.30052286E+07   0.11402994      
  91               1.95123240E+02   1.00512703E+01   3599.04883895    7.19372759E-05   2.02282844E+19   1.53726673E+07   1.31278380E+09   1.18906219E+07   0.11410297      
  92               2.29761945E+02   1.08898649E+01   3632.07088808    7.70143919E-05   2.17167092E+19   1.35926691E+07   1.31456400E+09   1.07639582E+07   0.11422373      
  93               2.70549789E+02   1.17975662E+01   3665.53782851    8.24370091E-05   2.33120550E+19   1.20165387E+07   1.31614036E+09   9.62475493E+06   0.11438365      
  94               3.18578380E+02   1.27802795E+01   3699.21082992    8.82400579E-05   2.50240217E+19   1.06111173E+07   1.31754602E+09   8.47252796E+06   0.11458717      
  95               3.75133111E+02   1.38444444E+01   3733.38227442    9.44395870E-05   2.68595610E+19   9.37018030E+06   1.31878717E+09   7.30678088E+06   0.11484571      
  96               4.41727563E+02   1.49970697E+01   3767.81593718    1.01075554E-04   2.88298625E+19   8.26873115E+06   1.31988783E+09   6.12702177E+06   0.11515186      
  97               5.20144008E+02   1.62457967E+01   3802.80540025    1.08166428E-04   3.09430239E+19   7.30043108E+06   1.32085381E+09   4.93274869E+06   0.11549628      
  98               6.12481111E+02   1.75989588E+01   3838.10490484    1.15758584E-04   3.32120721E+19   6.44147168E+06   1.32171036E+09   3.72345341E+06   0.11586924      
  99               7.21210099E+02   1.90656676E+01   3874.00848480    1.23873688E-04   3.56465324E+19   5.68488972E+06   1.32246440E+09   2.49860227E+06   0.11626353      
  100              8.49240896E+02   2.06558854E+01   3910.26251509    1.32565850E-04   3.82616540E+19   5.01303429E+06   1.32313352E+09   1.25764523E+06   0.11667415      
  101              1.00000000E+03   2.23805289E+01   3947.16477781    1.41860656E-04   4.10686974E+19   4.70786502E+06   1.32343765E+09   0.00000000E+00   0.11710567      
