# ATMO pressure-temperature profile
# Effective temperature = 2200.0K
# log(g) = 5.0cm/s^2
# M/H = 0.0
# Optical depth grid in band 17 (1.20-1.33microns)
# All parameters in cgs units
#
# Model Level      Optical Depth    Pressure         Temperature      Density          Number Density   Rad Flux         Conv Flux        Radial Extension Adiabatic Gradient
#                                   [Ba]             [K]              [g/cm^3]         [/cm^3]          [ergs/s/cm^2/sr] [ergs/s/cm^2/sr] [cm]             [K/Ba]          
  1                1.00000000E-08   1.00000000E-05   647.89489445     4.37148402E-10   1.11794717E+14   1.32820846E+09   0.00000000E+00   9.38885085E+06   0.29785322      
  2                1.28824955E-08   1.09538204E-05   660.96249606     4.69373679E-10   1.20036863E+14   1.32820846E+09   0.00000000E+00   9.36779398E+06   0.2977368       
  3                1.65958691E-08   1.21829855E-05   661.78155870     5.21398459E-10   1.33341368E+14   1.32820846E+09   0.00000000E+00   9.34294743E+06   0.29772954      
  4                2.13796209E-08   1.37596975E-05   673.75909903     5.78406520E-10   1.47921085E+14   1.32820846E+09   0.00000000E+00   9.31423623E+06   0.29759589      
  5                2.75422870E-08   1.57803111E-05   674.56865210     6.62550734E-10   1.69439728E+14   1.32820846E+09   0.00000000E+00   9.28159570E+06   0.29758713      
  6                3.54813389E-08   1.83648762E-05   686.65884121     7.57487886E-10   1.93719272E+14   1.32820846E+09   0.00000000E+00   9.24511272E+06   0.29742462      
  7                4.57088190E-08   2.16685162E-05   688.07852971     8.91909172E-10   2.28095652E+14   1.32820846E+09   0.00000000E+00   9.20492025E+06   0.29740533      
  8                5.88843655E-08   2.58859871E-05   700.79481700     1.04617134E-09   2.67546756E+14   1.32820846E+09   0.00000000E+00   9.16125956E+06   0.29720346      
  9                7.58577575E-08   3.12663246E-05   703.24666025     1.25921178E-09   3.22029008E+14   1.32820846E+09   0.00000000E+00   9.11438267E+06   0.29716319      
  10               9.77237221E-08   3.81226423E-05   716.86538342     1.50617446E-09   3.85186648E+14   1.32820846E+09   0.00000000E+00   9.06459702E+06   0.29691045      
  11               1.25892541E-07   4.68533789E-05   720.46989995     1.84185517E-09   4.71032545E+14   1.32820846E+09   0.00000000E+00   9.01217841E+06   0.29684079      
  12               1.62181010E-07   5.79591555E-05   734.96498515     2.23350819E-09   5.71190847E+14   1.32820846E+09   0.00000000E+00   8.95742291E+06   0.29652984      
  13               2.08929613E-07   7.20749949E-05   739.61280205     2.76002283E-09   7.05839633E+14   1.32820846E+09   0.00000000E+00   8.90056948E+06   0.29642611      
  14               2.69153480E-07   8.99979478E-05   754.84164191     3.37686667E-09   8.63580039E+14   1.32820846E+09   0.00000000E+00   8.84186156E+06   0.29605454      
  15               3.46736850E-07   1.12739448E-04   760.32178340     4.19967621E-09   1.07400007E+15   1.32820846E+09   0.00000000E+00   8.78147305E+06   0.29649918      
  16               4.46683592E-07   1.41585583E-04   776.11135673     5.16701426E-09   1.32135902E+15   1.32820846E+09   0.00000000E+00   8.71954885E+06   0.29621692      
  17               5.75439937E-07   1.78168576E-04   782.27030830     6.45088514E-09   1.64968149E+15   1.32820846E+09   0.00000000E+00   8.65618380E+06   0.2961078       
  18               7.41310241E-07   2.24555092E-04   798.70671011     7.96306201E-09   2.03639215E+15   1.32820846E+09   0.00000000E+00   8.59146326E+06   0.29578894      
  19               9.54992586E-07   2.83348307E-04   805.63107173     9.96160400E-09   2.54747690E+15   1.32820846E+09   0.00000000E+00   8.52545131E+06   0.2956554       
  20               1.23026877E-06   3.57820599E-04   822.97017552     1.23147506E-08   3.14924959E+15   1.32820846E+09   0.00000000E+00   8.45821291E+06   0.29529315      
  21               1.58489319E-06   4.52090253E-04   830.78462253     1.54127934E-08   3.94150911E+15   1.32820846E+09   0.00000000E+00   8.38978733E+06   0.29513014      
  22               2.04173794E-06   5.71314107E-04   849.17750275     1.90555149E-08   4.87306616E+15   1.32820846E+09   0.00000000E+00   8.32021890E+06   0.29471471      
  23               2.63026799E-06   7.21956804E-04   857.92104053     2.38346265E-08   6.09522489E+15   1.32820846E+09   0.00000000E+00   8.24953287E+06   0.29451765      
  24               3.38844156E-06   9.12085162E-04   877.36882834     2.94440296E-08   7.52972352E+15   1.32820846E+09   0.00000000E+00   8.17776267E+06   0.29404668      
  25               4.36515832E-06   1.15176276E-03   887.05297917     3.67754271E-08   9.40457805E+15   1.32820846E+09   0.00000000E+00   8.10492602E+06   0.29381203      
  26               5.62341325E-06   1.45351032E-03   907.47693285     4.53655755E-08   1.16013456E+16   1.32820846E+09   0.00000000E+00   8.03105029E+06   0.29328199      
  27               7.24435960E-06   1.83289141E-03   917.96868631     5.65526467E-08   1.44622115E+16   1.32820846E+09   0.00000000E+00   7.95614957E+06   0.29301087      
  28               9.33254301E-06   2.30950685E-03   939.11046568     6.96540457E-08   1.78126450E+16   1.32820846E+09   0.00000000E+00   7.88020993E+06   0.29242783      
  29               1.20226443E-05   2.90831299E-03   950.13608413     8.66960403E-08   2.21707901E+16   1.32820846E+09   0.00000000E+00   7.80315269E+06   0.2921257       
  30               1.54881662E-05   3.66058523E-03   971.89188010     1.06678341E-07   2.72808821E+16   1.32820846E+09   0.00000000E+00   7.72492918E+06   0.29149139      
  31               1.99526231E-05   4.60530171E-03   983.45673678     1.32631497E-07   3.39178775E+16   1.32820846E+09   0.00000000E+00   7.64550732E+06   0.29115824      
  32               2.57039578E-05   5.79108166E-03   1005.87584442    1.63064320E-07   4.17004892E+16   1.32820846E+09   0.00000000E+00   7.56487645E+06   0.2904723       
  33               3.31131121E-05   7.27829543E-03   1017.97777599    2.02504733E-07   5.17865790E+16   1.32820846E+09   0.00000000E+00   7.48303443E+06   0.29010643      
  34               4.26579519E-05   9.14192208E-03   1041.17957764    2.48688374E-07   6.35971588E+16   1.32820846E+09   0.00000000E+00   7.39998941E+06   0.28936687      
  35               5.49540874E-05   1.14745730E-02   1053.87625446    3.08383183E-07   7.88629019E+16   1.32820846E+09   0.00000000E+00   7.31575749E+06   0.28904307      
  36               7.07945784E-05   1.43906877E-02   1077.96957507    3.78110419E-07   9.66943024E+16   1.32820845E+09   0.00000000E+00   7.23035905E+06   0.28799924      
  37               9.12010839E-05   1.80308107E-02   1091.48836279    4.67885843E-07   1.19652557E+17   1.32820846E+09   0.00000000E+00   7.14381508E+06   0.28740712      
  38               1.17489755E-04   2.25674291E-02   1116.69323922    5.72389675E-07   1.46377404E+17   1.32820845E+09   0.00000000E+00   7.05615206E+06   0.28638758      
  39               1.51356125E-04   2.82114209E-02   1131.27113498    7.06320807E-07   1.80627592E+17   1.32820846E+09   0.00000000E+00   6.96738752E+06   0.2859462       
  40               1.94984460E-04   3.52296382E-02   1158.09518230    8.61603577E-07   2.20338185E+17   1.32820845E+09   0.00000000E+00   6.87742283E+06   0.28506167      
  41               2.51188643E-04   4.39501134E-02   1174.26452358    1.06007784E-06   2.71093996E+17   1.32820846E+09   0.00000000E+00   6.78617605E+06   0.28467565      
  42               3.23593657E-04   5.47720984E-02   1203.27293229    1.28925477E-06   3.29701613E+17   1.32820845E+09   0.00000000E+00   6.69360638E+06   0.28383373      
  43               4.16869383E-04   6.81777196E-02   1221.92177120    1.58031140E-06   4.04133552E+17   1.32820846E+09   0.00000000E+00   6.59968894E+06   0.28329454      
  44               5.37031796E-04   8.47423401E-02   1254.14173251    1.91380383E-06   4.89417701E+17   1.32820845E+09   0.00000000E+00   6.50443970E+06   0.28215549      
  45               6.91830971E-04   1.05141574E-01   1276.23464422    2.33339136E-06   5.96718886E+17   1.32820847E+09   0.00000000E+00   6.40790768E+06   0.28130412      
  46               8.91250938E-04   1.30159540E-01   1312.68921324    2.80840341E-06   7.18190952E+17   1.32820844E+09   0.00000000E+00   6.31017745E+06   0.27976284      
  47               1.14815362E-03   1.60689566E-01   1339.46226738    3.39783930E-06   8.68926481E+17   1.32820849E+09   0.00000000E+00   6.21134578E+06   0.27874066      
  48               1.47910839E-03   1.97603051E-01   1381.21501472    4.05225460E-06   1.03623485E+18   1.32820843E+09   0.00000000E+00   6.11186509E+06   0.27747775      
  49               1.90546072E-03   2.41942810E-01   1413.63530428    4.84780402E-06   1.23965597E+18   1.32820850E+09   0.00000000E+00   6.01182520E+06   0.27645792      
  50               2.45470892E-03   2.94600344E-01   1461.56269097    5.70988784E-06   1.45996230E+18   1.32820843E+09   0.00000000E+00   5.91173757E+06   0.27456487      
  51               3.16227766E-03   3.54703201E-01   1500.36476897    6.69970108E-06   1.71235612E+18   1.32820854E+09   0.00000000E+00   5.81455795E+06   0.27294978      
  52               4.07380278E-03   4.21842614E-01   1554.07311114    7.69307674E-06   1.96609656E+18   1.32820839E+09   0.00000000E+00   5.72103817E+06   0.27062754      
  53               5.24807460E-03   4.94212570E-01   1597.07529505    8.77316500E-06   2.24137351E+18   1.32820859E+09   0.00000000E+00   5.63294442E+06   0.26880561      
  54               6.76082975E-03   5.62897010E-01   1650.79397132    9.67611347E-06   2.46980069E+18   1.32820840E+09   0.00000000E+00   5.55839160E+06   0.26649853      
  55               8.70963590E-03   6.23552885E-01   1696.26626168    1.04400989E-05   2.66259498E+18   1.32744299E+09   2.05523311E+06   5.49803907E+06   0.2644291       
  56               1.12201845E-02   6.80193744E-01   1735.52567729    1.11300373E-05   2.83875185E+18   1.32623203E+09   2.22183694E+06   5.44549427E+06   0.26242779      
  57               1.44543977E-02   7.29713206E-01   1767.71897097    1.17333466E-05   2.98995618E+18   1.32496665E+09   3.24101053E+06   5.40215557E+06   0.2608285       
  58               1.86208714E-02   7.69511192E-01   1792.28763148    1.22033048E-05   3.10980439E+18   1.32390563E+09   4.30199482E+06   5.36889638E+06   0.25948653      
  59               2.39883292E-02   8.17429295E-01   1820.56552514    1.27613597E-05   3.25214367E+18   1.32245353E+09   5.75403750E+06   5.33049800E+06   0.2579145       
  60               3.09029543E-02   8.74542138E-01   1852.42289522    1.34174708E-05   3.41953017E+18   1.32042898E+09   7.77855151E+06   5.28685139E+06   0.25603225      
  61               3.98107171E-02   9.41776469E-01   1887.78807000    1.41773137E-05   3.61343658E+18   1.31772404E+09   1.04834827E+07   5.23810307E+06   0.25376652      
  62               5.12861384E-02   1.01981538E+00   1926.09918616    1.50453325E-05   3.83502986E+18   1.31453542E+09   1.36721233E+07   5.18466945E+06   0.25118335      
  63               6.60693448E-02   1.11044633E+00   1967.55844538    1.60351790E-05   4.08785773E+18   1.31084600E+09   1.73615974E+07   5.12631953E+06   0.2481996       
  64               8.51138038E-02   1.21652443E+00   2012.30239845    1.71734777E-05   4.37878306E+18   1.30572248E+09   2.24851906E+07   5.06239584E+06   0.24462526      
  65               1.09647820E-01   1.34011585E+00   2060.17048226    1.84745104E-05   4.71156323E+18   1.29826733E+09   2.99404179E+07   4.99300925E+06   0.24054135      
  66               1.41253754E-01   1.48358289E+00   2110.71421087    1.99567452E-05   5.09106008E+18   1.28751347E+09   4.06943432E+07   4.91829137E+06   0.23595016      
  67               1.81970086E-01   1.64964606E+00   2163.72283118    2.16388000E-05   5.52223629E+18   1.27233894E+09   5.58689654E+07   4.83837853E+06   0.23094177      
  68               2.34422882E-01   1.84145569E+00   2218.74942426    2.35445078E-05   6.01144467E+18   1.25145471E+09   7.67532880E+07   4.75339889E+06   0.22550688      
  69               3.01995172E-01   2.06267236E+00   2275.57185041    2.56989395E-05   6.56546569E+18   1.22338001E+09   1.04828088E+08   4.66346516E+06   0.21950108      
  70               3.89045145E-01   2.31722638E+00   2333.58011942    2.81349381E-05   7.19236282E+18   1.18660524E+09   1.41602958E+08   4.56879346E+06   0.21313187      
  71               5.01187234E-01   2.60994643E+00   2392.65674454    3.08791767E-05   7.90090853E+18   1.14014736E+09   1.88060944E+08   4.46948040E+06   0.20673086      
  72               6.45654229E-01   2.94663034E+00   2452.47624311    3.39763885E-05   8.70255320E+18   1.08329200E+09   2.44916403E+08   4.36553341E+06   0.20025019      
  73               8.31763771E-01   3.33352278E+00   2512.87137282    3.74673838E-05   9.60857552E+18   1.01533288E+09   3.12875567E+08   4.25709400E+06   0.19394685      
  74               1.07151931E+00   3.77781449E+00   2573.61764582    4.13999163E-05   1.06321830E+19   9.36355594E+08   3.91852789E+08   4.14428207E+06   0.18776864      
  75               1.38038426E+00   4.28772085E+00   2634.55669798    4.58270077E-05   1.17881267E+19   8.47806517E+08   4.80401641E+08   4.02721247E+06   0.1818351       
  76               1.77827941E+00   4.87238868E+00   2695.54828907    5.08058938E-05   1.30924417E+19   7.51983754E+08   5.76224033E+08   3.90603934E+06   0.17630594      
  77               2.29086765E+00   5.54184548E+00   2756.53226564    5.63955554E-05   1.45618707E+19   6.51906647E+08   6.76300745E+08   3.78096777E+06   0.17098614      
  78               2.95120923E+00   6.30705868E+00   2817.22863684    6.26638574E-05   1.62155102E+19   5.51822128E+08   7.76384954E+08   3.65224148E+06   0.16625104      
  79               3.80189396E+00   7.17988978E+00   2877.86196123    6.96692221E-05   1.80706451E+19   4.56516542E+08   8.71690353E+08   3.52013707E+06   0.16200906      
  80               4.89778819E+00   8.17331666E+00   2938.11640405    7.74883678E-05   2.01490775E+19   3.70746440E+08   9.57460415E+08   3.38492567E+06   0.15815433      
  81               6.30957344E+00   9.30157455E+00   2998.20550950    8.61883059E-05   2.24709231E+19   2.97980469E+08   1.03022642E+09   3.24686114E+06   0.15473597      
  82               8.12830516E+00   1.05799928E+01   3057.88429273    9.58534921E-05   2.50605249E+19   2.39050337E+08   1.08915672E+09   3.10620433E+06   0.15163297      
  83               1.04712855E+01   1.20242544E+01   3117.28287197    1.06551943E-04   2.79388022E+19   1.92615609E+08   1.13559180E+09   2.96328961E+06   0.14885284      
  84               1.34896288E+01   1.36517266E+01   3176.18794563    1.18373732E-04   3.11320149E+19   1.56226246E+08   1.17198161E+09   2.81837220E+06   0.14650448      
  85               1.73780083E+01   1.54819898E+01   3234.92313224    1.31396709E-04   3.46647962E+19   1.27453292E+08   1.20075503E+09   2.67161186E+06   0.14445226      
  86               2.23872114E+01   1.75373417E+01   3293.25008207    1.45739491E-04   3.85713547E+19   1.04407304E+08   1.22380156E+09   2.52307989E+06   0.14266736      
  87               2.88403150E+01   1.98432008E+01   3351.55506859    1.61502740E-04   4.28835970E+19   8.57619165E+07   1.24244747E+09   2.37277658E+06   0.14113338      
  88               3.71535229E+01   2.24285648E+01   3409.63258688    1.78838008E-04   4.76452643E+19   7.04776286E+07   1.25773219E+09   2.22064625E+06   0.139837        
  89               4.78630092E+01   2.53265632E+01   3467.91289334    1.97873644E-04   5.28973505E+19   5.79117603E+07   1.27029845E+09   2.06658690E+06   0.13872093      
  90               6.16595002E+01   2.85751072E+01   3526.16635285    2.18805599E-04   5.86963250E+19   4.75449138E+07   1.28066565E+09   1.91045954E+06   0.13781284      
  91               7.94328235E+01   3.22174518E+01   3584.88301086    2.41794017E-04   6.50941619E+19   3.90842910E+07   1.28912647E+09   1.75210064E+06   0.13708056      
  92               1.02329299E+02   3.63027814E+01   3643.80891653    2.67085757E-04   7.21622633E+19   3.21549938E+07   1.29605587E+09   1.59133541E+06   0.13650424      
  93               1.31825674E+02   4.08873611E+01   3703.44247343    2.94882422E-04   7.99667264E+19   2.64804789E+07   1.30173040E+09   1.42796891E+06   0.13605254      
  94               1.69824365E+02   4.60356125E+01   3763.50438283    3.25498092E-04   8.85986979E+19   2.17959320E+07   1.30641488E+09   1.26179065E+06   0.13574699      
  95               2.18776162E+02   5.18213017E+01   3824.53660585    3.59184646E-04   9.81420975E+19   1.79494202E+07   1.31026116E+09   1.09257700E+06   0.13555658      
  96               2.81838293E+02   5.83289611E+01   3886.22885671    3.96340450E-04   1.08713057E+20   1.47778303E+07   1.31343242E+09   9.20094477E+05   0.13548077      
  97               3.63078055E+02   6.56554900E+01   3949.14481703    4.37283145E-04   1.20418670E+20   1.21966663E+07   1.31601312E+09   7.44101070E+05   0.13549464      
  98               4.67735141E+02   7.39116237E+01   4012.94110291    4.82515072E-04   1.33406133E+20   1.00848779E+07   1.31812427E+09   5.64357418E+05   0.13561395      
  99               6.02559586E+02   8.32248308E+01   4078.21761843    5.32434158E-04   1.47811547E+20   8.35601913E+06   1.31985237E+09   3.80608492E+05   0.1358195       
  100              7.76247117E+02   9.37420954E+01   4144.61085536    5.87680815E-04   1.63823702E+20   6.92296973E+06   1.32128458E+09   1.92584711E+05   0.13615141      
  101              1.00000000E+03   1.05633120E+02   4212.78988807    6.48755322E-04   1.81616854E+20   6.28856730E+06   1.32191859E+09   0.00000000E+00   0.13661196      
