# ATMO pressure-temperature profile
# Effective temperature = 1400.0K
# log(g) = 3.5cm/s^2
# M/H = 0.0
# Optical depth grid in band 17 (1.20-1.33microns)
# All parameters in cgs units
#
# Model Level      Optical Depth    Pressure         Temperature      Density          Number Density   Rad Flux         Conv Flux        Radial Extension Adiabatic Gradient
#                                   [Ba]             [K]              [g/cm^3]         [/cm^3]          [ergs/s/cm^2/sr] [ergs/s/cm^2/sr] [cm]             [K/Ba]          
  1                3.00000000E-06   1.00000000E-05   507.69660686     5.58438277E-10   1.42666359E+14   2.17814703E+08   0.00000000E+00   2.06791022E+08   0.29756384      
  2                3.65048058E-06   1.19023765E-05   558.32403298     6.04309833E-10   1.54409210E+14   2.17814703E+08   0.00000000E+00   2.05755064E+08   0.29777167      
  3                4.44200282E-06   1.43746718E-05   573.95383480     7.09863919E-10   1.81403982E+14   2.17814703E+08   0.00000000E+00   2.04561304E+08   0.29788574      
  4                5.40514834E-06   1.78439353E-05   593.15328587     8.52492869E-10   2.17896141E+14   2.17814703E+08   0.00000000E+00   2.03150843E+08   0.29792164      
  5                6.57712968E-06   2.26109413E-05   603.47399057     1.06169932E-09   2.71385053E+14   2.17814703E+08   0.00000000E+00   2.01566301E+08   0.29796177      
  6                8.00322805E-06   2.89656384E-05   618.29181706     1.32735148E-09   3.39324677E+14   2.17814703E+08   0.00000000E+00   1.99873462E+08   0.29796213      
  7                9.73854285E-06   3.71670313E-05   625.89435436     1.68248697E-09   4.30113109E+14   2.17814703E+08   0.00000000E+00   1.98137985E+08   0.29795008      
  8                1.18501205E-05   4.75350349E-05   638.84688359     2.10806064E-09   5.38943050E+14   2.17814703E+08   0.00000000E+00   1.96397047E+08   0.29792764      
  9                1.44195449E-05   6.04875420E-05   645.31921629     2.65560002E-09   6.78917774E+14   2.17814703E+08   0.00000000E+00   1.94665911E+08   0.29787271      
  10               1.75460896E-05   7.65093708E-05   657.37986961     3.29722532E-09   8.42993196E+14   2.17814703E+08   0.00000000E+00   1.92953691E+08   0.29783417      
  11               2.13505531E-05   9.62424370E-05   663.32733381     4.11051551E-09   1.05090766E+15   2.17814703E+08   0.00000000E+00   1.91258681E+08   0.29774079      
  12               2.59799264E-05   1.20427613E-04   675.01612568     5.05419897E-09   1.29222391E+15   2.17814703E+08   0.00000000E+00   1.89580738E+08   0.29768918      
  13               3.16130723E-05   1.50017821E-04   680.72906939     6.24333487E-09   1.59622606E+15   2.17814703E+08   0.00000000E+00   1.87914972E+08   0.29779511      
  14               3.84676354E-05   1.86096833E-04   692.24494855     7.61574739E-09   1.94717518E+15   2.17814703E+08   0.00000000E+00   1.86260377E+08   0.29774189      
  15               4.68084520E-05   2.30032042E-04   697.80930213     9.33883847E-09   2.38768714E+15   2.17814703E+08   0.00000000E+00   1.84612934E+08   0.29759196      
  16               5.69577817E-05   2.83377377E-04   709.23509566     1.13188783E-08   2.89401513E+15   2.17814703E+08   0.00000000E+00   1.82972157E+08   0.29753567      
  17               6.93077586E-05   3.48085578E-04   714.71363815     1.37971851E-08   3.52760379E+15   2.17814702E+08   0.00000000E+00   1.81334726E+08   0.29737261      
  18               8.43355422E-05   4.26400196E-04   726.16014200     1.66345110E-08   4.25315125E+15   2.17814702E+08   0.00000000E+00   1.79700005E+08   0.29731197      
  19               1.02621753E-04   5.21128650E-04   731.64049026     2.01781037E-08   5.15908945E+15   2.17814702E+08   0.00000000E+00   1.78064937E+08   0.29713536      
  20               1.24872905E-04   6.35501992E-04   743.19645363     2.42234521E-08   6.19354257E+15   2.17814702E+08   0.00000000E+00   1.76428996E+08   0.29707023      
  21               1.51948705E-04   7.73543550E-04   748.74354300     2.92672831E-08   7.48303056E+15   2.17814702E+08   0.00000000E+00   1.74789535E+08   0.2968777       
  22               1.84895266E-04   9.39939212E-04   760.52351455     3.50113092E-08   8.95185339E+15   2.17814702E+08   0.00000000E+00   1.73145741E+08   0.29680575      
  23               2.24985526E-04   1.14057066E-03   766.23163137     4.21687838E-08   1.07817178E+16   2.17814702E+08   0.00000000E+00   1.71494541E+08   0.29659315      
  24               2.73768430E-04   1.38231862E-03   778.32742429     5.03113803E-08   1.28638707E+16   2.17814702E+08   0.00000000E+00   1.69834820E+08   0.29651277      
  25               3.33128779E-04   1.67381289E-03   784.32601314     6.04557962E-08   1.54573887E+16   2.17814702E+08   0.00000000E+00   1.68163428E+08   0.2962796       
  26               4.05360046E-04   2.02521163E-03   796.90103236     7.19923325E-08   1.84073751E+16   2.17814702E+08   0.00000000E+00   1.66479052E+08   0.29618738      
  27               4.93252992E-04   2.44917920E-03   803.30360847     8.63709452E-08   2.20834379E+16   2.17814701E+08   0.00000000E+00   1.64778828E+08   0.2959269       
  28               6.00203489E-04   2.96058381E-03   816.45766477     1.02722364E-07   2.62645237E+16   2.17814701E+08   0.00000000E+00   1.63061912E+08   0.29581862      
  29               7.30343727E-04   3.57830471E-03   823.46670175     1.23100019E-07   3.14743752E+16   2.17814701E+08   0.00000000E+00   1.61324787E+08   0.29552754      
  30               8.88701864E-04   4.32459646E-03   837.42130371     1.46294593E-07   3.74048074E+16   2.17814700E+08   0.00000000E+00   1.59566188E+08   0.29539729      
  31               1.08139630E-03   5.22765663E-03   845.22595377     1.75212714E-07   4.47981489E+16   2.17814700E+08   0.00000000E+00   1.57782496E+08   0.29506712      
  32               1.31587206E-03   6.32088651E-03   860.18085123     2.08166045E-07   5.32248029E+16   2.17814700E+08   0.00000000E+00   1.55972304E+08   0.29490717      
  33               1.60118847E-03   7.64732922E-03   869.12245375     2.49260616E-07   6.37315758E+16   2.17814699E+08   0.00000000E+00   1.54130867E+08   0.29452806      
  34               1.94836913E-03   9.25739433E-03   885.35506038     2.96200831E-07   7.57350871E+16   2.17814698E+08   0.00000000E+00   1.52257062E+08   0.29432826      
  35               2.37082789E-03   1.12154752E-02   895.63713403     3.54733555E-07   9.07008648E+16   2.17814697E+08   0.00000000E+00   1.50346829E+08   0.29388971      
  36               2.88488706E-03   1.35965456E-02   913.36550451     4.21687643E-07   1.07822604E+17   2.17814696E+08   0.00000000E+00   1.48400005E+08   0.29372226      
  37               3.51040806E-03   1.64969648E-02   925.27921592     5.05054655E-07   1.29138899E+17   2.17814694E+08   0.00000000E+00   1.46412555E+08   0.29328908      
  38               4.27155881E-03   2.00296863E-02   944.75725196     6.00553386E-07   1.53560583E+17   2.17814693E+08   0.00000000E+00   1.44384100E+08   0.29297163      
  39               5.19774750E-03   2.43411572E-02   958.59885004     7.19285031E-07   1.83920507E+17   2.17814691E+08   0.00000000E+00   1.42309669E+08   0.2923922       
  40               6.32475876E-03   2.96022016E-02   980.39736009     8.55282445E-07   2.18699464E+17   2.17814687E+08   0.00000000E+00   1.40188537E+08   0.29199753      
  41               7.69613634E-03   3.60301695E-02   996.70768090     1.02396259E-06   2.61832975E+17   2.17814684E+08   0.00000000E+00   1.38016451E+08   0.29122108      
  42               9.36486541E-03   4.38667301E-02   1021.15874381    1.21680079E-06   3.11148593E+17   2.17814680E+08   0.00000000E+00   1.35796340E+08   0.29060488      
  43               1.13954198E-02   5.34139389E-02   1040.40347139    1.45421142E-06   3.71859304E+17   2.17814674E+08   0.00000000E+00   1.33526720E+08   0.28968797      
  44               1.38662528E-02   6.49986872E-02   1068.26105513    1.72343504E-06   4.40710126E+17   2.17814669E+08   0.00000000E+00   1.31212651E+08   0.28908012      
  45               1.68728289E-02   7.90086780E-02   1090.97513765    2.05127915E-06   5.24548659E+17   2.17814662E+08   0.00000000E+00   1.28856364E+08   0.28809036      
  46               2.05313114E-02   9.58265244E-02   1122.56509534    2.41787325E-06   6.18301133E+17   2.17814656E+08   0.00000000E+00   1.26468322E+08   0.2872899       
  47               2.49830512E-02   1.15900918E-01   1149.39800765    2.85609806E-06   7.30368907E+17   2.17814646E+08   0.00000000E+00   1.24052642E+08   0.28610291      
  48               3.04000477E-02   1.39709015E-01   1185.54199311    3.33779909E-06   8.53558573E+17   2.17814630E+08   0.00000000E+00   1.21614221E+08   0.28519364      
  49               3.69915946E-02   1.67776746E-01   1216.85338003    3.90520822E-06   9.98663906E+17   2.17814627E+08   0.00000000E+00   1.19155805E+08   0.28377909      
  50               4.50123658E-02   2.00584365E-01   1257.43367854    4.51814535E-06   1.15541454E+18   2.17814613E+08   0.00000000E+00   1.16685941E+08   0.28249092      
  51               5.47722558E-02   2.38641353E-01   1292.98827337    5.22754919E-06   1.33683238E+18   2.17814607E+08   0.00000000E+00   1.14209629E+08   0.28059118      
  52               6.66483519E-02   2.82413277E-01   1337.81720774    5.97909104E-06   1.52902354E+18   2.17814611E+08   0.00000000E+00   1.11733749E+08   0.27911855      
  53               8.10995048E-02   3.32315750E-01   1377.43858631    6.83326686E-06   1.74744904E+18   2.17814615E+08   0.00000000E+00   1.09264920E+08   0.27758737      
  54               9.86840557E-02   3.88612502E-01   1426.66319637    7.71551543E-06   1.97297303E+18   2.17814609E+08   0.00000000E+00   1.06813092E+08   0.27617977      
  55               1.20081410E-01   4.51267802E-01   1471.14848965    8.68922716E-06   2.22179342E+18   2.17814579E+08   0.00000000E+00   1.04393234E+08   0.27400121      
  56               1.46118284E-01   5.18022765E-01   1527.70813993    9.60953423E-06   2.45603354E+18   2.17048956E+08   7.81727330E+05   1.02082933E+08   0.27215996      
  57               1.77800653E-01   5.86288076E-01   1579.77689755    1.05187392E-05   2.68807352E+18   2.12951764E+08   4.89926431E+06   9.99357331E+07   0.26971246      
  58               2.16352610E-01   6.54078975E-01   1626.89657851    1.14010514E-05   2.91203160E+18   2.06492755E+08   1.13754377E+07   9.79780684E+07   0.26753278      
  59               2.63263667E-01   7.13470446E-01   1664.98600246    1.21669561E-05   3.10378222E+18   1.99020860E+08   1.88409326E+07   9.63832740E+07   0.26554725      
  60               3.20346302E-01   7.65391312E-01   1696.24374426    1.28152747E-05   3.26829394E+18   1.92326719E+08   2.55258521E+07   9.50683350E+07   0.26379082      
  61               3.89805984E-01   8.12721868E-01   1723.20057121    1.33946328E-05   3.41611085E+18   1.86799277E+08   3.10563991E+07   9.39259502E+07   0.2622189       
  62               4.74326391E-01   8.66913030E-01   1752.57253880    1.40474337E-05   3.58282312E+18   1.80733327E+08   3.71058166E+07   9.26766556E+07   0.26088763      
  63               5.77173093E-01   9.11894435E-01   1775.76152402    1.45963918E-05   3.71951028E+18   1.75349152E+08   4.24318387E+07   9.16831524E+07   0.2598069       
  64               7.02319722E-01   9.46465309E-01   1793.02033348    1.50036458E-05   3.82336117E+18   1.71035594E+08   4.67067148E+07   9.09444163E+07   0.25877316      
  65               8.54601502E-01   9.86601414E-01   1812.32767503    1.54729098E-05   3.94303698E+18   1.66430827E+08   5.13215344E+07   9.01114048E+07   0.25782554      
  66               1.03990206E+00   1.03293900E+00   1833.90995306    1.60084989E-05   4.07964624E+18   1.61298301E+08   5.64647375E+07   8.91803563E+07   0.25685042      
  67               1.26538076E+00   1.08610842E+00   1857.62919230    1.66169688E-05   4.23486912E+18   1.55455949E+08   6.23184799E+07   8.81494693E+07   0.25570343      
  68               1.53974930E+00   1.14668657E+00   1883.57644965    1.73012986E-05   4.40947934E+18   1.48719507E+08   6.90638414E+07   8.70196704E+07   0.25435736      
  69               1.87360830E+00   1.21480949E+00   1911.32281409    1.80620417E-05   4.60362533E+18   1.41160522E+08   7.66239002E+07   8.58010425E+07   0.25285526      
  70               2.27985690E+00   1.29109071E+00   1940.94413476    1.89018586E-05   4.81803066E+18   1.33537411E+08   8.42486132E+07   8.44955253E+07   0.25113435      
  71               2.77419111E+00   1.37763989E+00   1972.68585166    1.98426025E-05   5.05828878E+18   1.26063153E+08   9.17311970E+07   8.30822971E+07   0.24915065      
  72               3.37571026E+00   1.47549893E+00   2006.61785878    2.08903143E-05   5.32598654E+18   1.18327758E+08   9.94752144E+07   8.15623439E+07   0.24682803      
  73               4.10765492E+00   1.58581187E+00   2042.43698180    2.20552301E-05   5.62378669E+18   1.10267427E+08   1.07543366E+08   7.99371709E+07   0.2442293       
  74               4.99830483E+00   1.70984102E+00   2080.20082201    2.33443558E-05   5.95355414E+18   1.01930863E+08   1.15885820E+08   7.82086337E+07   0.24131916      
  75               6.08207157E+00   1.84899505E+00   2119.56508716    2.47699901E-05   6.31851224E+18   9.34305742E+07   1.24390172E+08   7.63786633E+07   0.238104        
  76               7.40082804E+00   2.00484842E+00   2160.58033464    2.63409953E-05   6.72104748E+18   8.49016452E+07   1.32921610E+08   7.44491855E+07   0.23461408      
  77               9.00552635E+00   2.17915877E+00   2202.89220618    2.80722293E-05   7.16508699E+18   7.64767825E+07   1.41346597E+08   7.24221016E+07   0.2308616       
  78               1.09581663E+01   2.37388800E+00   2246.55336648    2.99748120E-05   7.65366280E+18   6.82735525E+07   1.49547874E+08   7.02992575E+07   0.22672297      
  79               1.33341911E+01   2.59122776E+00   2291.14462609    3.20675497E-05   8.19179212E+18   6.03387229E+07   1.57479836E+08   6.80824281E+07   0.22220879      
  80               1.62254019E+01   2.83336704E+00   2336.67113078    3.43658251E-05   8.78276139E+18   5.28311182E+07   1.64983252E+08   6.57757538E+07   0.21743862      
  81               1.97435049E+01   3.10301939E+00   2382.75238642    3.68854617E-05   9.43259994E+18   4.60494774E+07   1.71760011E+08   6.33806816E+07   0.2125852       
  82               2.40244270E+01   3.40344848E+00   2429.56303136    3.96484614E-05   1.01465138E+19   4.00367582E+07   1.77768132E+08   6.08963632E+07   0.20756088      
  83               2.92335681E+01   3.73799310E+00   2476.65836716    4.26826221E-05   1.09319650E+19   3.46552332E+07   1.83145587E+08   5.83246538E+07   0.20251894      
  84               3.55721908E+01   4.11042857E+00   2524.25376854    4.60074948E-05   1.17945108E+19   2.99044586E+07   1.87892050E+08   5.56668778E+07   0.19751883      
  85               4.32851972E+01   4.52492241E+00   2571.93069021    4.96565537E-05   1.27431770E+19   2.57768155E+07   1.92014808E+08   5.29245265E+07   0.19252437      
  86               5.26705906E+01   4.98604248E+00   2619.89580767    5.36533403E-05   1.37847151E+19   2.22200465E+07   1.95566492E+08   5.00994159E+07   0.18763041      
  87               6.40909893E+01   5.49875743E+00   2667.75985239    5.80359135E-05   1.49294452E+19   1.91456474E+07   1.98636054E+08   4.71938042E+07   0.18297907      
  88               7.79876373E+01   6.06842485E+00   2715.81025761    6.28287895E-05   1.61846158E+19   1.64793425E+07   2.01298877E+08   4.42104665E+07   0.17836508      
  89               9.48974517E+01   6.70082648E+00   2763.53640831    6.80779274E-05   1.75626085E+19   1.41673844E+07   2.03609938E+08   4.11525940E+07   0.17402141      
  90               1.15473768E+02   7.40217227E+00   2811.36761942    7.38067844E-05   1.90707332E+19   1.21947118E+07   2.05584925E+08   3.80237056E+07   0.1700418       
  91               1.40511583E+02   8.17918395E+00   2858.84441707    8.00657718E-05   2.07226501E+19   1.04988087E+07   2.07285729E+08   3.48272761E+07   0.1663402       
  92               1.70978268E+02   9.03904498E+00   2906.38054409    8.68807875E-05   2.25266136E+19   9.04726775E+06   2.08745159E+08   3.15670156E+07   0.16286244      
  93               2.08050949E+02   9.98942876E+00   2953.48224117    9.43090811E-05   2.44980846E+19   7.79900164E+06   2.10004222E+08   2.82467746E+07   0.15973465      
  94               2.53161982E+02   1.10385240E+01   3000.66688716    1.02374130E-04   2.66452047E+19   6.72711089E+06   2.11090933E+08   2.48703862E+07   0.15680202      
  95               3.08054300E+02   1.21950299E+01   3047.34787840    1.11143055E-04   2.89858923E+19   5.79411876E+06   2.12043908E+08   2.14417559E+07   0.15411003      
  96               3.74848746E+02   1.34676500E+01   3094.08157859    1.20633266E-04   3.15272363E+19   4.98808955E+06   2.12873042E+08   1.79661284E+07   0.15166104      
  97               4.56126023E+02   1.48657646E+01   3140.27161878    1.30916562E-04   3.42882939E+19   4.29165187E+06   2.13594133E+08   1.44479268E+07   0.14955058      
  98               5.55026396E+02   1.63996371E+01   3186.59006625    1.42008088E-04   3.72763929E+19   3.69693423E+06   2.14213445E+08   1.08904317E+07   0.14760465      
  99               6.75371026E+02   1.80805773E+01   3232.35233509    1.53999103E-04   4.05153355E+19   3.18286421E+06   2.14751861E+08   7.29587682E+06   0.14587644      
  100              8.21809604E+02   1.99210521E+01   3278.31606209    1.66905503E-04   4.40136403E+19   2.74226063E+06   2.15216193E+08   3.66556443E+06   0.14431648      
  101              1.00000000E+03   2.19348400E+01   3323.77186055    1.80838699E-04   4.78001328E+19   2.52602436E+06   2.15452420E+08   0.00000000E+00   0.14298274      
