# ATMO pressure-temperature profile
# Effective temperature = 1700.0K
# log(g) = 3.0cm/s^2
# M/H = 0.0
# Optical depth grid in band 17 (1.20-1.33microns)
# All parameters in cgs units
#
# Model Level      Optical Depth    Pressure         Temperature      Density          Number Density   Rad Flux         Conv Flux        Radial Extension Adiabatic Gradient
#                                   [Ba]             [K]              [g/cm^3]         [/cm^3]          [ergs/s/cm^2/sr] [ergs/s/cm^2/sr] [cm]             [K/Ba]          
  1                1.00000000E-05   1.00000000E-05   607.97412971     4.65924041E-10   1.19135376E+14   4.73556870E+08   0.00000000E+00   7.10071060E+08   0.29801057      
  2                1.20226443E-05   1.54368754E-05   647.60392597     6.75139377E-10   1.72653651E+14   4.73556870E+08   0.00000000E+00   7.00376208E+08   0.29785191      
  3                1.44543977E-05   2.29774154E-05   672.80802829     9.67263462E-10   2.47363633E+14   4.73556870E+08   0.00000000E+00   6.91045030E+08   0.29761394      
  4                1.73780083E-05   3.21097195E-05   686.81693550     1.32412602E-09   3.38626823E+14   4.73556870E+08   0.00000000E+00   6.82975589E+08   0.2974255       
  5                2.08929613E-05   4.29981580E-05   704.14250956     1.72950420E-09   4.42298155E+14   4.73556871E+08   0.00000000E+00   6.75780425E+08   0.29716014      
  6                2.51188643E-05   5.59518292E-05   714.37089157     2.21831239E-09   5.67304696E+14   4.73556871E+08   0.00000000E+00   6.69167087E+08   0.29696678      
  7                3.01995172E-05   7.13300882E-05   729.41734280     2.76968081E-09   7.08308601E+14   4.73556871E+08   0.00000000E+00   6.62962950E+08   0.2966727       
  8                3.63078055E-05   8.95814871E-05   738.06969166     3.43758855E-09   8.79117116E+14   4.73556871E+08   0.00000000E+00   6.57047955E+08   0.29647177      
  9                4.36515832E-05   1.11222680E-04   752.02329739     4.18888832E-09   1.07124277E+15   4.73556871E+08   0.00000000E+00   6.51344930E+08   0.2966598       
  10               5.24807460E-05   1.36881415E-04   759.83242339     5.10226763E-09   1.30482570E+15   4.73556871E+08   0.00000000E+00   6.45794786E+08   0.29652191      
  11               6.30957344E-05   1.67300208E-04   773.32964059     6.12741916E-09   1.56695911E+15   4.73556871E+08   0.00000000E+00   6.40354493E+08   0.29629377      
  12               7.58577575E-05   2.03376050E-04   780.76296495     7.37779430E-09   1.88671562E+15   4.73556871E+08   0.00000000E+00   6.34988940E+08   0.29615172      
  13               9.12010839E-05   2.46166958E-04   794.16118290     8.77943270E-09   2.24515817E+15   4.73556872E+08   0.00000000E+00   6.29672082E+08   0.29590707      
  14               1.09647820E-04   2.96927271E-04   801.46164100     1.04933187E-08   2.68344801E+15   4.73556872E+08   0.00000000E+00   6.24383556E+08   0.29575607      
  15               1.31825674E-04   3.57126369E-04   814.96377178     1.24116248E-08   3.17401850E+15   4.73556872E+08   0.00000000E+00   6.19108595E+08   0.29549276      
  16               1.58489319E-04   4.28511667E-04   822.24879362     1.47606198E-08   3.77472438E+15   4.73556873E+08   0.00000000E+00   6.13834570E+08   0.29533205      
  17               1.90546072E-04   5.13130292E-04   835.96743610     1.73853347E-08   4.44594548E+15   4.73556873E+08   0.00000000E+00   6.08552280E+08   0.29504735      
  18               2.29086765E-04   6.13407495E-04   843.35803672     2.06007013E-08   5.26820820E+15   4.73556874E+08   0.00000000E+00   6.03253576E+08   0.29487332      
  19               2.75422870E-04   7.32179509E-04   857.45082375     2.41853786E-08   6.18492144E+15   4.73556874E+08   0.00000000E+00   5.97932533E+08   0.29456285      
  20               3.31131121E-04   8.72795130E-04   865.08937207     2.85756433E-08   7.30764056E+15   4.73556875E+08   0.00000000E+00   5.92583699E+08   0.29437287      
  21               3.98107171E-04   1.03916550E-03   879.64231444     3.34597701E-08   8.55666339E+15   4.73556876E+08   0.00000000E+00   5.87203275E+08   0.29403465      
  22               4.78630092E-04   1.23589526E-03   887.57451931     3.94385836E-08   1.00856219E+16   4.73556877E+08   0.00000000E+00   5.81787658E+08   0.29382621      
  23               5.75439937E-04   1.46834708E-03   902.67008588     4.60727188E-08   1.17821762E+16   4.73556878E+08   0.00000000E+00   5.76334470E+08   0.2934561       
  24               6.91830971E-04   1.74280493E-03   911.04278160     5.41819062E-08   1.38559353E+16   4.73556880E+08   0.00000000E+00   5.70841255E+08   0.29322504      
  25               8.31763771E-04   2.06657004E-03   926.83579035     6.31526137E-08   1.61500240E+16   4.73556882E+08   0.00000000E+00   5.65306387E+08   0.2928189       
  26               1.00000000E-03   2.44840221E-03   935.79484530     7.41047751E-08   1.89508177E+16   4.73556884E+08   0.00000000E+00   5.59724851E+08   0.29256031      
  27               1.20226443E-03   2.89860398E-03   952.43286501     8.61982283E-08   2.20434898E+16   4.73556887E+08   0.00000000E+00   5.54091913E+08   0.2921113       
  28               1.44543977E-03   3.42923561E-03   962.17863235     1.00945160E-07   2.58147222E+16   4.73556890E+08   0.00000000E+00   5.48403368E+08   0.29181769      
  29               1.73780083E-03   4.05428538E-03   979.90356040     1.17185704E-07   2.99679351E+16   4.73556896E+08   0.00000000E+00   5.42656456E+08   0.29131797      
  30               2.08929613E-03   4.79006935E-03   990.53894906     1.36966366E-07   3.50264469E+16   4.73556902E+08   0.00000000E+00   5.36848731E+08   0.29098464      
  31               2.51188643E-03   5.65536183E-03   1009.52593935    1.58666919E-07   4.05759553E+16   4.73556908E+08   0.00000000E+00   5.30979073E+08   0.29042781      
  32               3.01995172E-03   6.67177096E-03   1021.44327404    1.84999417E-07   4.73099746E+16   4.73556916E+08   0.00000000E+00   5.25046539E+08   0.29003852      
  33               3.63078055E-03   7.86389798E-03   1042.11653723    2.13729697E-07   5.46572054E+16   4.73556926E+08   0.00000000E+00   5.19051322E+08   0.28940834      
  34               4.36515832E-03   9.25967876E-03   1055.70486341    2.48425783E-07   6.35300559E+16   4.73556934E+08   0.00000000E+00   5.12993919E+08   0.28895038      
  35               5.24807460E-03   1.08903887E-02   1078.50059730    2.86000028E-07   7.31389686E+16   4.73556937E+08   0.00000000E+00   5.06876117E+08   0.28799915      
  36               6.30957344E-03   1.27907244E-02   1094.33210125    3.31046530E-07   8.46587478E+16   4.73556933E+08   0.00000000E+00   5.00700182E+08   0.28728951      
  37               7.58577575E-03   1.49986843E-02   1119.90165698    3.79329084E-07   9.70061157E+16   4.73556910E+08   0.00000000E+00   4.94469456E+08   0.28618061      
  38               9.12010839E-03   1.75563136E-02   1138.61193160    4.36717296E-07   1.11682066E+17   4.73556862E+08   0.00000000E+00   4.88185555E+08   0.28536232      
  39               1.09647820E-02   2.05141394E-02   1167.48359246    4.97674245E-07   1.27270677E+17   4.73556755E+08   0.00000000E+00   4.81841019E+08   0.2842423       
  40               1.31825674E-02   2.39270630E-02   1189.86519984    5.69553020E-07   1.45652341E+17   4.73556594E+08   0.00000000E+00   4.75430592E+08   0.28356393      
  41               1.58489319E-02   2.78536739E-02   1223.04531794    6.45034014E-07   1.64955111E+17   4.73556357E+08   0.00000000E+00   4.68952314E+08   0.28276599      
  42               1.90546072E-02   3.23540386E-02   1250.12160540    7.33024931E-07   1.87457179E+17   4.73556017E+08   0.00000000E+00   4.62407503E+08   0.28213342      
  43               2.29086765E-02   3.74879853E-02   1288.44745630    8.24079858E-07   2.10742063E+17   4.73555516E+08   0.00000000E+00   4.55801973E+08   0.28119937      
  44               2.75422870E-02   4.33043469E-02   1321.49102267    9.28141993E-07   2.37352121E+17   4.73554815E+08   0.00000000E+00   4.49151384E+08   0.28013239      
  45               3.31131121E-02   4.98157077E-02   1367.54162980    1.03179331E-06   2.63846652E+17   4.73554018E+08   0.00000000E+00   4.42497556E+08   0.27833287      
  46               3.98107171E-02   5.68673626E-02   1418.66704044    1.13560010E-06   2.90341053E+17   4.72192735E+08   1.36928529E+06   4.35982843E+08   0.27621353      
  47               4.78630092E-02   6.42570623E-02   1467.18032110    1.24117778E-06   3.17221937E+17   4.69136807E+08   4.40378945E+06   4.29758223E+08   0.27399078      
  48               5.75439937E-02   7.18784500E-02   1512.74765032    1.34698522E-06   3.44158148E+17   4.64627899E+08   8.88607926E+06   4.23863646E+08   0.27168346      
  49               6.91830971E-02   7.93404281E-02   1553.73700836    1.44841031E-06   3.69864687E+17   4.58963733E+08   1.45477751E+07   4.18521132E+08   0.26946824      
  50               8.31763771E-02   8.61198710E-02   1588.31809993    1.53991613E-06   3.92727873E+17   4.52929088E+08   2.05681166E+07   4.13981281E+08   0.26755753      
  51               1.00000000E-01   9.23933264E-02   1618.42224681    1.62125967E-06   4.13499133E+17   4.47422613E+08   2.60600809E+07   4.10010898E+08   0.26597904      
  52               1.20226443E-01   9.84708266E-02   1646.01815078    1.70044812E-06   4.33310091E+17   4.42439348E+08   3.10234184E+07   4.06350107E+08   0.26455321      
  53               1.44543977E-01   1.03878369E-01   1669.43106915    1.76862016E-06   4.50694722E+17   4.38097155E+08   3.53528195E+07   4.03231926E+08   0.26320183      
  54               1.73780083E-01   1.10018807E-01   1694.82587380    1.84503076E-06   4.70183826E+17   4.33180152E+08   4.02782039E+07   3.99832695E+08   0.26154094      
  55               2.08929613E-01   1.16958866E-01   1722.09252643    1.93026776E-06   4.91929089E+17   4.27508482E+08   4.59578519E+07   3.96155192E+08   0.25965862      
  56               2.51188643E-01   1.24758581E-01   1751.14284809    2.02471027E-06   5.16029690E+17   4.20895804E+08   5.25791460E+07   3.92209808E+08   0.25749869      
  57               3.01995172E-01   1.33456127E-01   1781.69102479    2.12856056E-06   5.42540251E+17   4.13160205E+08   6.03249047E+07   3.88020202E+08   0.25497935      
  58               3.63078055E-01   1.43035691E-01   1813.35169123    2.24129779E-06   5.71331560E+17   4.04248145E+08   6.92407131E+07   3.83634349E+08   0.25222929      
  59               4.36515832E-01   1.53458933E-01   1845.66790120    2.36223466E-06   6.02232869E+17   3.94484320E+08   7.89907451E+07   3.79104403E+08   0.24923758      
  60               5.24807460E-01   1.64937143E-01   1879.00100508    2.49349992E-06   6.35795271E+17   3.84155791E+08   8.93161836E+07   3.74374965E+08   0.24586225      
  61               6.30957344E-01   1.77780422E-01   1913.75775539    2.63834430E-06   6.72857052E+17   3.72904558E+08   1.00586797E+08   3.69367619E+08   0.24201222      
  62               7.58577575E-01   1.92125240E-01   1949.80062808    2.79785311E-06   7.13707164E+17   3.60359387E+08   1.13158360E+08   3.64087795E+08   0.23779468      
  63               9.12010839E-01   2.08123746E-01   1986.95536102    2.97328281E-06   7.58681272E+17   3.46337451E+08   1.27211006E+08   3.58540874E+08   0.23314712      
  64               1.09647820E+00   2.25946748E-01   2025.05413631    3.16603638E-06   8.08156177E+17   3.30760572E+08   1.42822192E+08   3.52731778E+08   0.22796966      
  65               1.31825674E+00   2.45787590E-01   2063.88099797    3.37779543E-06   8.62583485E+17   3.13677670E+08   1.59934805E+08   3.46664557E+08   0.22241994      
  66               1.58489319E+00   2.67867003E-01   2103.31906032    3.61033263E-06   9.22443768E+17   2.95263180E+08   1.78370411E+08   3.40341861E+08   0.21671403      
  67               1.90546072E+00   2.92432085E-01   2143.22566589    3.86567048E-06   9.88286717E+17   2.75716464E+08   1.97934894E+08   3.33766222E+08   0.21084792      
  68               2.29086765E+00   3.19758954E-01   2183.47854598    4.14602233E-06   1.06071723E+18   2.55267729E+08   2.18396154E+08   3.26940194E+08   0.20489726      
  69               2.75422870E+00   3.50155413E-01   2223.95887872    4.45383658E-06   1.14040715E+18   2.34154420E+08   2.39515235E+08   3.19866485E+08   0.19888558      
  70               3.31131121E+00   3.83964020E-01   2264.55033521    4.79182098E-06   1.22810187E+18   2.12623325E+08   2.61046151E+08   3.12548059E+08   0.19287157      
  71               3.98107171E+00   4.21565213E-01   2305.15586216    5.16291302E-06   1.32461696E+18   1.90836932E+08   2.82828746E+08   3.04988224E+08   0.18669145      
  72               4.78630092E+00   4.63291992E-01   2345.50177704    5.57033478E-06   1.43068778E+18   1.69224293E+08   3.04432391E+08   2.97207004E+08   0.18075666      
  73               5.75439937E+00   5.09607238E-01   2385.69412485    6.01614180E-06   1.54720074E+18   1.48531688E+08   3.25106434E+08   2.89206201E+08   0.17528207      
  74               6.91830971E+00   5.61115474E-01   2425.73330441    6.50560060E-06   1.67546374E+18   1.29118294E+08   3.44489999E+08   2.80972718E+08   0.16998582      
  75               8.31763771E+00   6.18372694E-01   2465.58015466    7.04266428E-06   1.81659041E+18   1.11092750E+08   3.62484878E+08   2.72513542E+08   0.16497841      
  76               1.00000000E+01   6.81961380E-01   2505.18461608    7.63135697E-06   1.97172292E+18   9.47046559E+07   3.78842435E+08   2.63839517E+08   0.160377        
  77               1.20226443E+01   7.52539969E-01   2544.58172723    8.27597875E-06   2.14209638E+18   8.03050296E+07   3.93194027E+08   2.54958294E+08   0.15617739      
  78               1.44543977E+01   8.30841814E-01   2583.76125914    8.98146232E-06   2.32911967E+18   6.79772094E+07   4.05465379E+08   2.45875921E+08   0.152148        
  79               1.73780083E+01   9.17664716E-01   2622.66236670    9.75331230E-06   2.53435523E+18   5.76616475E+07   4.15723783E+08   2.36599184E+08   0.14846643      
  80               2.08929613E+01   1.01386666E+00   2661.37205214    1.05966666E-05   2.75931378E+18   4.91034201E+07   4.24227579E+08   2.27136078E+08   0.14513508      
  81               2.51188643E+01   1.12036126E+00   2699.83353362    1.15174785E-05   3.00570903E+18   4.19563080E+07   4.31319992E+08   2.17496128E+08   0.14205184      
  82               3.01995172E+01   1.23812223E+00   2738.08653153    1.25214631E-05   3.27523293E+18   3.59329857E+07   4.37301013E+08   2.07689818E+08   0.13915248      
  83               3.63078055E+01   1.36818966E+00   2776.04542483    1.36153122E-05   3.56981389E+18   3.08341439E+07   4.42370268E+08   1.97728025E+08   0.1365108       
  84               4.36515832E+01   1.51167287E+00   2813.80235515    1.48049625E-05   3.89125838E+18   2.65207286E+07   4.46666569E+08   1.87621687E+08   0.13418828      
  85               5.24807460E+01   1.66975304E+00   2851.31614965    1.60974175E-05   4.24162929E+18   2.28591756E+07   4.50312042E+08   1.77381553E+08   0.13216205      
  86               6.30957344E+01   1.84369478E+00   2888.68306204    1.74990390E-05   4.62290503E+18   1.97424073E+07   4.53422052E+08   1.67017528E+08   0.13032405      
  87               7.58577575E+01   2.03486480E+00   2925.81600650    1.90180598E-05   5.03749221E+18   1.70803046E+07   4.56086023E+08   1.56538060E+08   0.12865328      
  88               9.12010839E+01   2.24473893E+00   2962.81802020    2.06616829E-05   5.48765374E+18   1.48058127E+07   4.58370241E+08   1.45950341E+08   0.12714012      
  89               1.09647820E+02   2.47491515E+00   2999.60852997    2.24393237E-05   5.97615117E+18   1.28538761E+07   4.60335151E+08   1.35260236E+08   0.12578413      
  90               1.31825674E+02   2.72711317E+00   3036.30437319    2.43590024E-05   6.50554514E+18   1.11712348E+07   4.62037184E+08   1.24472853E+08   0.12454631      
  91               1.58489319E+02   3.00311401E+00   3072.79929367    2.64310391E-05   7.07886231E+18   9.71080536E+06   4.63527139E+08   1.13595272E+08   0.12342449      
  92               1.90546072E+02   3.30485955E+00   3109.21547349    2.86639807E-05   7.69888843E+18   8.44742695E+06   4.64826786E+08   1.02632406E+08   0.12242431      
  93               2.29086765E+02   3.63448991E+00   3145.46587217    3.10700198E-05   8.36920738E+18   7.35490092E+06   4.65960374E+08   9.15866220E+07   0.12155921      
  94               2.75422870E+02   3.99436966E+00   3181.70133174    3.36592765E-05   9.09315688E+18   6.41405449E+06   4.66937846E+08   8.04579721E+07   0.12083702      
  95               3.31131121E+02   4.38708932E+00   3217.85004744    3.64461085E-05   9.87498659E+18   5.59786304E+06   4.67786536E+08   6.92452081E+07   0.12022945      
  96               3.98107171E+02   4.81549171E+00   3254.05748456    3.94425471E-05   1.07186788E+19   4.88855454E+06   4.68526743E+08   5.79459033E+07   0.11970804      
  97               4.78630092E+02   5.28270190E+00   3290.23996989    4.26658174E-05   1.16293213E+19   4.26855830E+06   4.69175126E+08   4.65565912E+07   0.11925599      
  98               5.75439937E+02   5.79216103E+00   3326.54213435    4.61303242E-05   1.26116944E+19   3.72711959E+06   4.69741865E+08   3.50728423E+07   0.11886449      
  99               6.91830971E+02   6.34765854E+00   3362.87802219    4.98566356E-05   1.36718814E+19   3.25226453E+06   4.70233758E+08   2.34894749E+07   0.11853079      
  100              8.31763771E+02   6.95336932E+00   3399.39766123    5.38618548E-05   1.48155973E+19   2.83749873E+06   4.70659281E+08   1.18006578E+07   0.11825488      
  101              1.00000000E+03   7.61389641E+00   3436.01634110    5.81703967E-05   1.60500941E+19   2.64165933E+06   4.70871908E+08   0.00000000E+00   0.11803544      
