# ATMO pressure-temperature profile
# Effective temperature = 1900.0K
# log(g) = 2.5cm/s^2
# M/H = 0.0
# Optical depth grid in band 17 (1.20-1.33microns)
# All parameters in cgs units
#
# Model Level      Optical Depth    Pressure         Temperature      Density          Number Density   Rad Flux         Conv Flux        Radial Extension Adiabatic Gradient
#                                   [Ba]             [K]              [g/cm^3]         [/cm^3]          [ergs/s/cm^2/sr] [ergs/s/cm^2/sr] [cm]             [K/Ba]          
  1                1.00000000E-04   1.00000000E-05   656.96368237     4.31110162E-10   1.10251493E+14   7.38901898E+08   0.00000000E+00   2.51413435E+09   0.29777915      
  2                1.17489755E-04   2.74333588E-05   774.31666036     1.00346699E-09   2.56617470E+14   7.38901899E+08   0.00000000E+00   2.43031336E+09   0.2955541       
  3                1.38038426E-04   4.57334316E-05   818.33115626     1.58287741E-09   4.04790716E+14   7.38901898E+08   0.00000000E+00   2.38439588E+09   0.29425633      
  4                1.62181010E-04   6.60727328E-05   851.99035907     2.19649443E-09   5.61711647E+14   7.38901898E+08   0.00000000E+00   2.34990157E+09   0.29318336      
  5                1.90546072E-04   8.89825042E-05   875.85572031     2.87749478E-09   7.35864569E+14   7.38901898E+08   0.00000000E+00   2.32108459E+09   0.29244383      
  6                2.23872114E-04   1.14939744E-04   899.85873612     3.61774837E-09   9.25170397E+14   7.38901898E+08   0.00000000E+00   2.29564371E+09   0.29344422      
  7                2.63026799E-04   1.44432927E-04   918.31283479     4.45469539E-09   1.13920373E+15   7.38901898E+08   0.00000000E+00   2.27241134E+09   0.29296414      
  8                3.09029543E-04   1.78020759E-04   938.74986295     5.37109954E-09   1.37355673E+15   7.38901898E+08   0.00000000E+00   2.25069727E+09   0.29239885      
  9                3.63078055E-04   2.16371839E-04   954.90394935     6.41776006E-09   1.64122033E+15   7.38901898E+08   0.00000000E+00   2.23004088E+09   0.29194819      
  10               4.26579519E-04   2.60238692E-04   973.78955619     7.56918586E-09   1.93567569E+15   7.38901897E+08   0.00000000E+00   2.21013781E+09   0.29139251      
  11               5.01187234E-04   3.10457735E-04   989.00959677     8.89087246E-09   2.27367203E+15   7.38901897E+08   0.00000000E+00   2.19077931E+09   0.29094465      
  12               5.88843655E-04   3.67975387E-04   1007.31773169    1.03465289E-08   2.64592867E+15   7.38901896E+08   0.00000000E+00   2.17181524E+09   0.29037802      
  13               6.91830971E-04   4.33850462E-04   1022.28799456    1.20201301E-08   3.07392058E+15   7.38901895E+08   0.00000000E+00   2.15313557E+09   0.28991753      
  14               8.12830516E-04   5.09280873E-04   1040.54773978    1.38623767E-08   3.54504045E+15   7.38901894E+08   0.00000000E+00   2.13465680E+09   0.28932939      
  15               9.54992586E-04   5.95606556E-04   1055.64797852    1.59802166E-08   4.08663819E+15   7.38901892E+08   0.00000000E+00   2.11631551E+09   0.28884576      
  16               1.12201845E-03   6.94338629E-04   1074.17443983    1.83079111E-08   4.68190237E+15   7.38901890E+08   0.00000000E+00   2.09806195E+09   0.28822677      
  17               1.31825674E-03   8.07159393E-04   1089.68637246    2.09797362E-08   5.36517170E+15   7.38901887E+08   0.00000000E+00   2.07985783E+09   0.28771406      
  18               1.54881662E-03   9.35960260E-04   1108.70047831    2.39103199E-08   6.11461355E+15   7.38901882E+08   0.00000000E+00   2.06167229E+09   0.2870582       
  19               1.81970086E-03   1.08284165E-03   1124.77884031    2.72671630E-08   6.97306405E+15   7.38901877E+08   0.00000000E+00   2.04348140E+09   0.28650709      
  20               2.13796209E-03   1.25029507E-03   1144.39812615    3.09440803E-08   7.91336539E+15   7.38901869E+08   0.00000000E+00   2.02525146E+09   0.28581132      
  21               2.51188643E-03   1.44122591E-03   1161.15358994    3.51547873E-08   8.99017676E+15   7.38901861E+08   0.00000000E+00   2.00694539E+09   0.28522368      
  22               2.95120923E-03   1.65888438E-03   1181.59951112    3.97638482E-08   1.01688456E+16   7.38901849E+08   0.00000000E+00   1.98853600E+09   0.28447415      
  23               3.46736850E-03   1.90689068E-03   1199.29776693    4.50340703E-08   1.15166087E+16   7.38901836E+08   0.00000000E+00   1.97000291E+09   0.2838291       
  24               4.07380278E-03   2.18918101E-03   1220.80862576    5.07901039E-08   1.29885277E+16   7.38901818E+08   0.00000000E+00   1.95133755E+09   0.28302257      
  25               4.78630092E-03   2.51013168E-03   1239.69580455    5.73490632E-08   1.46658492E+16   7.38901797E+08   0.00000000E+00   1.93253202E+09   0.28231614      
  26               5.62341325E-03   2.87393887E-03   1262.54186320    6.44745991E-08   1.64876051E+16   7.38901772E+08   0.00000000E+00   1.91361227E+09   0.28141253      
  27               6.60693448E-03   3.28537355E-03   1282.95340046    7.25323874E-08   1.85481121E+16   7.38901743E+08   0.00000000E+00   1.89458656E+09   0.28061799      
  28               7.76247117E-03   3.74643144E-03   1307.48733159    8.11686766E-08   2.07542068E+16   7.38901706E+08   0.00000000E+00   1.87558445E+09   0.27962034      
  29               9.12010839E-03   4.26180829E-03   1329.75969206    9.07867990E-08   2.32138185E+16   7.38901666E+08   0.00000000E+00   1.85659906E+09   0.2786891       
  30               1.07151931E-02   4.82231733E-03   1356.33016739    1.00758301E-07   2.57523107E+16   7.38901627E+08   0.00000000E+00   1.83806560E+09   0.27751614      
  31               1.25892541E-02   5.42756657E-03   1380.83212062    1.11393795E-07   2.84701737E+16   7.38901614E+08   0.00000000E+00   1.81999952E+09   0.27642976      
  32               1.47910839E-02   6.09499709E-03   1409.80207555    1.22541673E-07   3.13141910E+16   7.38901624E+08   0.00000000E+00   1.80193438E+09   0.27499555      
  33               1.73780083E-02   6.80884763E-03   1437.33713272    1.34295379E-07   3.43115873E+16   7.38901689E+08   0.00000000E+00   1.78433733E+09   0.27359954      
  34               2.04173794E-02   7.52692721E-03   1469.27447200    1.45357597E-07   3.71056995E+16   7.38901795E+08   0.00000000E+00   1.76808330E+09   0.27185195      
  35               2.39883292E-02   8.18971784E-03   1503.15046674    1.54740380E-07   3.94632022E+16   7.38486740E+08   4.05108656E+05   1.75410734E+09   0.26963555      
  36               2.81838293E-02   8.80755889E-03   1532.88144655    1.63319357E-07   4.16171971E+16   7.37758406E+08   1.12415358E+06   1.74181589E+09   0.26759801      
  37               3.31131121E-02   9.44022997E-03   1561.44751904    1.71841301E-07   4.37906127E+16   7.36740701E+08   2.13203856E+06   1.72987337E+09   0.2654382       
  38               3.89045145E-02   1.01431221E-02   1591.47288142    1.81142390E-07   4.61634494E+16   7.35210672E+08   3.65738155E+06   1.71727496E+09   0.26258235      
  39               4.57088190E-02   1.09216681E-02   1622.45048261    1.91307772E-07   4.87577170E+16   7.33019039E+08   5.84472310E+06   1.70404956E+09   0.25918387      
  40               5.37031796E-02   1.17802163E-02   1654.50834937    2.02328177E-07   5.15715449E+16   7.30017286E+08   8.84295600E+06   1.69024980E+09   0.25633254      
  41               6.30957344E-02   1.27191830E-02   1687.20469557    2.14194290E-07   5.46030974E+16   7.26053187E+08   1.28031700E+07   1.67598650E+09   0.25259978      
  42               7.41310241E-02   1.37299811E-02   1719.93869939    2.26779413E-07   5.78206286E+16   7.21147180E+08   1.77049388E+07   1.66148340E+09   0.24823892      
  43               8.70963590E-02   1.47973081E-02   1751.98780115    2.39890745E-07   6.11754930E+16   7.15562492E+08   2.32878238E+07   1.64701264E+09   0.24353983      
  44               1.02329299E-01   1.59448439E-02   1783.95761723    2.53800715E-07   6.47383430E+16   7.09268336E+08   2.95795868E+07   1.63230592E+09   0.23840364      
  45               1.20226443E-01   1.72146678E-02   1816.59187684    2.69009971E-07   6.86383949E+16   7.01775649E+08   3.70704789E+07   1.61693796E+09   0.23277854      
  46               1.41253754E-01   1.86193765E-02   1849.80881093    2.85631088E-07   7.29061440E+16   6.92789850E+08   4.60576962E+07   1.60091276E+09   0.22674018      
  47               1.65958691E-01   2.01729695E-02   1883.41284606    3.03806772E-07   7.75800659E+16   6.82082720E+08   5.67715750E+07   1.58423489E+09   0.22032754      
  48               1.94984460E-01   2.18910453E-02   1917.32013064    3.23677116E-07   8.26985141E+16   6.69451037E+08   6.94139290E+07   1.56690910E+09   0.21345218      
  49               2.29086765E-01   2.37910761E-02   1951.29260422    3.45427251E-07   8.83115539E+16   6.54743658E+08   8.41401201E+07   1.54893974E+09   0.20631163      
  50               2.69153480E-01   2.58926249E-02   1985.30062452    3.69226443E-07   9.44660248E+16   6.37870734E+08   1.01043886E+08   1.53033079E+09   0.19915874      
  51               3.16227766E-01   2.82175195E-02   2019.18050220    3.95289869E-07   1.01220745E+17   6.18780408E+08   1.20179489E+08   1.51108629E+09   0.19197033      
  52               3.71535229E-01   3.07903006E-02   2052.89871535    4.23833453E-07   1.08635620E+17   5.97477851E+08   1.41536291E+08   1.49120907E+09   0.18459297      
  53               4.36515832E-01   3.36394187E-02   2086.24631822    4.55152939E-07   1.16790828E+17   5.74126658E+08   1.64944748E+08   1.47069542E+09   0.17750976      
  54               5.12861384E-01   3.67966698E-02   2119.37641889    4.89491281E-07   1.25755288E+17   5.48941677E+08   1.90188900E+08   1.44954265E+09   0.17104768      
  55               6.02559586E-01   4.02970973E-02   2152.20232589    5.27169537E-07   1.35617741E+17   5.22101512E+08   2.17092392E+08   1.42775135E+09   0.16494443      
  56               7.07945784E-01   4.41794691E-02   2184.78914684    5.68497612E-07   1.46465994E+17   4.93810872E+08   2.45449935E+08   1.40532452E+09   0.15912488      
  57               8.31763771E-01   4.84866601E-02   2217.02355195    6.13866439E-07   1.58408252E+17   4.64329227E+08   2.75000593E+08   1.38226750E+09   0.15367555      
  58               9.77237221E-01   5.32659168E-02   2249.01444485    6.63632026E-07   1.71546950E+17   4.33943935E+08   3.05456863E+08   1.35858811E+09   0.14867974      
  59               1.14815362E+00   5.85690156E-02   2280.68822775    7.18237692E-07   1.86006381E+17   4.02868204E+08   3.36600308E+08   1.33429726E+09   0.14378473      
  60               1.34896288E+00   6.44529911E-02   2312.01365937    7.78153440E-07   2.01919620E+17   3.71344670E+08   3.68166106E+08   1.30940782E+09   0.13916592      
  61               1.58489319E+00   7.09555778E-02   2342.88367864    8.43716991E-07   2.19362130E+17   3.39698969E+08   3.99830583E+08   1.28402863E+09   0.13497308      
  62               1.86208714E+00   7.81424707E-02   2373.37007260    9.15264534E-07   2.38477558E+17   3.08592981E+08   4.30938128E+08   1.25816555E+09   0.13133489      
  63               2.18776162E+00   8.61124287E-02   2403.66789693    9.93654366E-07   2.59487962E+17   2.78444496E+08   4.61095734E+08   1.23173685E+09   0.12811668      
  64               2.57039578E+00   9.49442985E-02   2433.76609539    1.07947189E-06   2.82563390E+17   2.49331403E+08   4.90211213E+08   1.20476939E+09   0.12518858      
  65               3.01995172E+00   1.04723093E-01   2463.68611229    1.17331802E-06   3.07881025E+17   2.21407569E+08   5.18129718E+08   1.17729156E+09   0.12250178      
  66               3.54813389E+00   1.15530438E-01   2493.37674704    1.27576305E-06   3.35609583E+17   1.94857819E+08   5.44670969E+08   1.14935734E+09   0.12007035      
  67               4.16869383E+00   1.27460363E-01   2522.87429098    1.38742772E-06   3.65936205E+17   1.70063861E+08   5.69466689E+08   1.12100049E+09   0.11787601      
  68               4.89778819E+00   1.40623694E-01   2552.17370898    1.50910276E-06   3.99092999E+17   1.47403161E+08   5.92130608E+08   1.09223238E+09   0.11588725      
  69               5.75439937E+00   1.55139582E-01   2581.32362960    1.64157631E-06   4.35317374E+17   1.27088729E+08   6.12436196E+08   1.06306726E+09   0.11404744      
  70               6.76082975E+00   1.71135968E-01   2610.29010784    1.78574795E-06   4.74873963E+17   1.09234016E+08   6.30271145E+08   1.03352178E+09   0.11237016      
  71               7.94328235E+00   1.88749808E-01   2639.13043141    1.94247530E-06   5.18025934E+17   9.38281400E+07   6.45648268E+08   1.00361457E+09   0.11083567      
  72               9.33254301E+00   2.08127545E-01   2667.80114911    2.11275905E-06   5.65069604E+17   8.07635937E+07   6.58679659E+08   9.73365659E+08   0.10948251      
  73               1.09647820E+01   2.29425407E-01   2696.38323463    2.29750335E-06   6.16290869E+17   6.98020975E+07   6.69615880E+08   9.42795887E+08   0.10827459      
  74               1.28824955E+01   2.52809874E-01   2724.81607922    2.49782160E-06   6.72020743E+17   6.06269190E+07   6.78759745E+08   9.11926522E+08   0.10720725      
  75               1.51356125E+01   2.78458279E-01   2753.18331709    2.71468429E-06   7.32572894E+17   5.29035780E+07   6.86448462E+08   8.80778617E+08   0.10623785      
  76               1.77827941E+01   3.06559914E-01   2781.40454643    2.94934799E-06   7.98320064E+17   4.63392969E+07   6.92976589E+08   8.49372264E+08   0.1053741       
  77               2.08929613E+01   3.37316943E-01   2809.57409374    3.20285753E-06   8.69607959E+17   4.07066536E+07   6.98573052E+08   8.17726105E+08   0.10459433      
  78               2.45470892E+01   3.70945726E-01   2837.60336756    3.47663209E-06   9.46857274E+17   3.58387497E+07   7.03411429E+08   7.85856906E+08   0.10392999      
  79               2.88403150E+01   4.07677706E-01   2865.61073538    3.77177573E-06   1.03044688E+18   3.16203229E+07   7.07605196E+08   7.53779437E+08   0.10336315      
  80               3.38844156E+01   4.47761263E-01   2893.50118691    4.08989388E-06   1.12085309E+18   2.79445364E+07   7.11257980E+08   7.21506010E+08   0.10287126      
  81               3.98107171E+01   4.91463474E-01   2921.38857347    4.43222713E-06   1.21850625E+18   2.47340112E+07   7.14446928E+08   6.89046342E+08   0.1024126       
  82               4.67735141E+01   5.39072390E-01   2949.15854684    4.80066314E-06   1.32395983E+18   2.19160881E+07   7.17244578E+08   6.56407548E+08   0.10199305      
  83               5.49540874E+01   5.90899280E-01   2976.93556004    5.19659654E-06   1.43770528E+18   1.94451009E+07   7.19696525E+08   6.23594065E+08   0.10159709      
  84               6.45654229E+01   6.47281298E-01   3004.59946706    5.62223867E-06   1.56038696E+18   1.72680684E+07   7.21861719E+08   5.90607770E+08   0.10124442      
  85               7.58577575E+01   7.08579544E-01   3032.29044759    6.07911874E-06   1.69255836E+18   1.53498924E+07   7.23768898E+08   5.57450403E+08   0.10094006      
  86               8.91250938E+01   7.75171665E-01   3059.88557026    6.56965563E-06   1.83492595E+18   1.36494271E+07   7.25456567E+08   5.24127876E+08   0.10070484      
  87               1.04712855E+02   8.47467800E-01   3087.53908350    7.09544403E-06   1.98809248E+18   1.21486318E+07   7.26943714E+08   4.90642081E+08   0.10052921      
  88               1.23026877E+02   9.25915491E-01   3115.12725781    7.65932826E-06   2.15288780E+18   1.08197678E+07   7.28258711E+08   4.56990813E+08   0.10041808      
  89               1.44543977E+02   1.01100175E+00   3142.81549392    8.26313698E-06   2.33001578E+18   9.64617224E+06   7.29418514E+08   4.23168915E+08   0.10035622      
  90               1.69824365E+02   1.10325627E+00   3170.47327945    8.91021585E-06   2.52045034E+18   8.60386605E+06   7.30448671E+08   3.89169050E+08   0.1003551       
  91               1.99526231E+02   1.20325477E+00   3198.27821050    9.60262086E-06   2.72500431E+18   7.68152786E+06   7.31363207E+08   3.54982077E+08   0.10041632      
  92               2.34422882E+02   1.31162227E+00   3226.10027797    1.03442088E-05   2.94480646E+18   6.85833811E+06   7.32179430E+08   3.20597675E+08   0.10052105      
  93               2.75422870E+02   1.42903857E+00   3254.11131231    1.11373751E-05   3.18080748E+18   6.12520028E+06   7.32906208E+08   2.86004190E+08   0.10064596      
  94               3.23593657E+02   1.55624397E+00   3282.16762981    1.19866832E-05   3.43433585E+18   5.46764363E+06   7.33557872E+08   2.51188863E+08   0.10078158      
  95               3.80189396E+02   1.69404587E+00   3310.44032067    1.28949482E-05   3.70651057E+18   4.88068897E+06   7.34139291E+08   2.16137755E+08   0.10091366      
  96               4.46683592E+02   1.84332651E+00   3338.77682003    1.38675832E-05   3.99890162E+18   4.35446326E+06   7.34660294E+08   1.80835779E+08   0.10104219      
  97               5.24807460E+02   2.00504992E+00   3367.35259623    1.49079024E-05   4.31283095E+18   3.88543697E+06   7.35128071E+08   1.45266918E+08   0.10117459      
  98               6.16595002E+02   2.18026707E+00   3396.01723830    1.60222134E-05   4.65013594E+18   3.46536131E+06   7.35547339E+08   1.09414975E+08   0.10133704      
  99               7.24435960E+02   2.37012228E+00   3424.96395208    1.72142154E-05   5.01234075E+18   3.09122133E+06   7.35918434E+08   7.32637275E+07   0.10153944      
  100              8.51138038E+02   2.57585954E+00   3454.04482082    1.84911401E-05   5.40157050E+18   2.75589949E+06   7.36248996E+08   3.67973157E+07   0.10178725      
  101              1.00000000E+03   2.79883186E+00   3483.45884301    1.98571598E-05   5.81958432E+18   2.60197441E+06   7.36396332E+08   0.00000000E+00   0.10207723      
