# ATMO pressure-temperature profile
# Effective temperature = 2900.0K
# log(g) = 4.5cm/s^2
# M/H = 0.0
# Optical depth grid in band 17 (1.20-1.33microns)
# All parameters in cgs units
#
# Model Level      Optical Depth    Pressure         Temperature      Density          Number Density   Rad Flux         Conv Flux        Radial Extension Adiabatic Gradient
#                                   [Ba]             [K]              [g/cm^3]         [/cm^3]          [ergs/s/cm^2/sr] [ergs/s/cm^2/sr] [cm]             [K/Ba]          
  1                5.00000000E-06   1.00000000E-05   1343.70316742    2.11497379E-10   5.39041868E+13   4.01016053E+09   0.00000000E+00   4.81168744E+07   0.27755736      
  2                6.05313423E-06   2.90202609E-05   1602.49083495    5.12393494E-10   1.31169118E+14   4.01016055E+09   0.00000000E+00   4.62876050E+07   0.27026354      
  3                7.32808679E-06   4.48525565E-05   1663.66025130    7.61037521E-10   1.95275789E+14   4.01016052E+09   0.00000000E+00   4.54857724E+07   0.26913867      
  4                8.87157859E-06   6.28166680E-05   1675.49810453    1.05869905E-09   2.71554369E+14   4.01016049E+09   0.00000000E+00   4.48528981E+07   0.26867403      
  5                1.07401712E-05   8.35515158E-05   1718.95307879    1.36977520E-09   3.52059567E+14   4.01016047E+09   0.00000000E+00   4.43083758E+07   0.26799498      
  6                1.30023396E-05   1.07647831E-04   1723.25893184    1.76168549E-09   4.52460411E+14   4.01016044E+09   0.00000000E+00   4.38178466E+07   0.14785973      
  7                1.57409813E-05   1.35807152E-04   1761.00748836    2.17059792E-09   5.58582441E+14   4.01016042E+09   0.00000000E+00   4.33624508E+07   0.13971197      
  8                1.90564546E-05   1.68781880E-04   1762.73205030    2.69737791E-09   6.93530168E+14   4.01016039E+09   0.00000000E+00   4.29315030E+07   0.14316184      
  9                2.30702555E-05   2.07494731E-04   1797.84167051    3.24490152E-09   8.35952248E+14   4.01016035E+09   0.00000000E+00   4.25176919E+07   0.13667585      
  10               2.79294706E-05   2.52968572E-04   1798.61147442    3.95819180E-09   1.01872051E+15   4.01016032E+09   0.00000000E+00   4.21164403E+07   0.14009881      
  11               3.38121669E-05   3.06457226E-04   1832.30295123    4.69756276E-09   1.21143028E+15   4.01016028E+09   0.00000000E+00   4.17241620E+07   0.13385272      
  12               4.09339169E-05   3.69365745E-04   1832.81111698    5.66609094E-09   1.45970383E+15   4.01016024E+09   0.00000000E+00   4.13385630E+07   0.13706857      
  13               4.95556987E-05   4.43410386E-04   1865.65250769    6.66864527E-09   1.72147589E+15   4.01016019E+09   0.00000000E+00   4.09576292E+07   0.13135919      
  14               5.99934592E-05   5.30520442E-04   1866.26304504    7.98455708E-09   2.05899412E+15   4.01016015E+09   0.00000000E+00   4.05801192E+07   0.13446946      
  15               7.26296922E-05   6.33043742E-04   1898.57125752    9.34610328E-09   2.41508632E+15   4.01016010E+09   0.00000000E+00   4.02048027E+07   0.12961877      
  16               8.79274551E-05   7.53621025E-04   1899.50386729    1.11327916E-08   2.87368171E+15   4.01016006E+09   0.00000000E+00   3.98309915E+07   0.13257958      
  17               1.06447338E-04   8.95457278E-04   1931.44414403    1.29819969E-08   3.35806081E+15   4.01016002E+09   0.00000000E+00   3.94578877E+07   0.12789591      
  18               1.28868005E-04   1.06215176E-03   1932.84251425    1.54042325E-08   3.98030125E+15   4.01016002E+09   0.00000000E+00   3.90851233E+07   0.13060408      
  19               1.56011066E-04   1.25806299E-03   1964.52122795    1.79130568E-08   4.63843527E+15   4.01016002E+09   0.00000000E+00   3.87121575E+07   0.12615245      
  20               1.88871184E-04   1.48806864E-03   1966.52462144    2.11892983E-08   5.48086892E+15   4.01016009E+09   0.00000000E+00   3.83388222E+07   0.12866301      
  21               2.28652526E-04   1.75806142E-03   1998.04103540    2.45857182E-08   6.37316964E+15   4.01016018E+09   0.00000000E+00   3.79647404E+07   0.12477655      
  22               2.76812886E-04   2.07460520E-03   2000.79897351    2.90031197E-08   7.51030969E+15   4.01016039E+09   0.00000000E+00   3.75898768E+07   0.12715398      
  23               3.35117111E-04   2.44561344E-03   2032.25966316    3.35865293E-08   8.71634588E+15   4.01016067E+09   0.00000000E+00   3.72139595E+07   0.12355739      
  24               4.05701771E-04   2.87988223E-03   2035.92335519    3.95195288E-08   1.02456412E+16   4.01016113E+09   0.00000000E+00   3.68370188E+07   0.12565761      
  25               4.91153455E-04   3.38805721E-03   2067.45403545    4.56809692E-08   1.18697265E+16   4.01016174E+09   0.00000000E+00   3.64587912E+07   0.12214431      
  26               5.94603558E-04   3.98188740E-03   2072.23468836    5.36146582E-08   1.39179693E+16   4.01016264E+09   0.00000000E+00   3.60793407E+07   0.12394991      
  27               7.19843029E-04   4.67548504E-03   2103.98146405    6.18599916E-08   1.60957272E+16   4.01016375E+09   0.00000000E+00   3.56984729E+07   0.12069223      
  28               8.71461295E-04   5.48432554E-03   2110.07573874    7.24140676E-08   1.88256951E+16   4.01016526E+09   0.00000000E+00   3.53163102E+07   0.1222957       
  29               1.05501444E-03   6.42692615E-03   2142.22481143    8.33842047E-08   2.17302191E+16   4.01016705E+09   0.00000000E+00   3.49327020E+07   0.11934396      
  30               1.27722880E-03   7.52342291E-03   2149.90018991    9.73325789E-08   2.53467929E+16   4.01016934E+09   0.00000000E+00   3.45478112E+07   0.12061201      
  31               1.54624747E-03   8.79781888E-03   2182.68005215    1.11822814E-07   2.91951545E+16   4.01017193E+09   0.00000000E+00   3.41615116E+07   0.11765019      
  32               1.87192870E-03   1.02759228E-02   2192.26172882    1.30109753E-07   3.39511329E+16   4.01017509E+09   0.00000000E+00   3.37739993E+07   0.11840563      
  33               2.26620714E-03   1.19883398E-02   2225.99420755    1.49075804E-07   3.90086439E+16   4.01017852E+09   0.00000000E+00   3.33851634E+07   0.11562738      
  34               2.74353120E-03   1.39674587E-02   2237.97465982    1.72804006E-07   4.52051661E+16   4.01018263E+09   0.00000000E+00   3.29952290E+07   0.11635841      
  35               3.32139252E-03   1.62513482E-02   2273.23608221    1.97322929E-07   5.17810310E+16   4.01018702E+09   0.00000000E+00   3.26040937E+07   0.11359095      
  36               4.02096694E-03   1.88791447E-02   2288.51347603    2.27662700E-07   5.97523074E+16   4.01019207E+09   0.00000000E+00   3.22120296E+07   0.11351378      
  37               4.86789053E-03   2.18951649E-02   2326.90923522    2.58685952E-07   6.81545126E+16   4.01019747E+09   0.00000000E+00   3.18190000E+07   0.11036726      
  38               5.89319895E-03   2.52959493E-02   2363.56112272    2.93137783E-07   7.75193251E+16   4.00821291E+09   1.81453765E+06   3.14284382E+07   0.10718606      
  39               7.13446485E-03   2.91335834E-02   2399.27807695    3.31286559E-07   8.79506716E+16   4.00418360E+09   5.74043973E+06   3.10389933E+07   0.10459508      
  40               8.63717467E-03   3.34842716E-02   2433.96895465    3.73863832E-07   9.96441167E+16   3.99797830E+09   1.18641840E+07   3.06480462E+07   0.1024421       
  41               1.04563955E-02   3.84133470E-02   2468.28979290    4.21233809E-07   1.12722819E+17   3.98932895E+09   2.04494548E+07   3.02552517E+07   0.10054774      
  42               1.26587931E-02   4.39827023E-02   2501.73247565    4.73954669E-07   1.27340597E+17   3.97794186E+09   3.17954368E+07   2.98610743E+07   0.098942432     
  43               1.53250748E-02   5.02690185E-02   2534.97805883    5.32397203E-07   1.43632275E+17   3.96348579E+09   4.62253967E+07   2.94653192E+07   0.097554842     
  44               1.85529469E-02   5.73625562E-02   2567.53142507    5.97381867E-07   1.61822374E+17   3.94562932E+09   6.40461923E+07   2.90675470E+07   0.096448489     
  45               2.24606956E-02   6.53617912E-02   2600.13575244    6.69335977E-07   1.82076444E+17   3.92399645E+09   8.56368911E+07   2.86674956E+07   0.095483572     
  46               2.71915211E-02   7.43740759E-02   2632.15743848    7.49249847E-07   2.04661221E+17   3.89820275E+09   1.11389175E+08   2.82650439E+07   0.094660109     
  47               3.29187854E-02   8.45162236E-02   2664.33807815    8.37558486E-07   2.29761147E+17   3.86781970E+09   1.41735001E+08   2.78601666E+07   0.093885706     
  48               3.98523653E-02   9.59153441E-02   2695.95121636    9.35460121E-07   2.57692572E+17   3.83242831E+09   1.77110935E+08   2.74529135E+07   0.093258602     
  49               4.82463432E-02   1.08709332E-01   2727.81505351    1.04335046E-06   2.88654110E+17   3.79156748E+09   2.17962530E+08   2.70433778E+07   0.092715921     
  50               5.84083183E-02   1.23047782E-01   2759.13678130    1.16266512E-06   3.23017757E+17   3.74478310E+09   2.64743827E+08   2.66316861E+07   0.092304368     
  51               7.07106781E-02   1.39092838E-01   2790.78393321    1.29374667E-06   3.60997667E+17   3.69152748E+09   3.18002165E+08   2.62179704E+07   0.091958093     
  52               8.56042452E-02   1.57020446E-01   2821.89977459    1.43832617E-06   4.03032865E+17   3.63121781E+09   3.78324256E+08   2.58023656E+07   0.091730568     
  53               1.03634797E-01   1.77021709E-01   2853.41079367    1.59666270E-06   4.49353437E+17   3.56314563E+09   4.46433636E+08   2.53849832E+07   0.091590908     
  54               1.25463068E-01   1.99304135E-01   2884.42202354    1.77082853E-06   5.00476103E+17   3.48654910E+09   5.23068607E+08   2.49659209E+07   0.091574761     
  55               1.51888958E-01   2.24093661E-01   2915.90895842    1.96097157E-06   5.56649023E+17   3.40053439E+09   6.09126403E+08   2.45452371E+07   0.09158584      
  56               1.83880850E-01   2.51637060E-01   2946.89545432    2.16965120E-06   6.18494317E+17   3.30419611E+09   7.05512635E+08   2.41229602E+07   0.091632044     
  57               2.22611093E-01   2.82205067E-01   2978.39017304    2.39692978E-06   6.86292189E+17   3.19651281E+09   8.13244184E+08   2.36990680E+07   0.091637018     
  58               2.69498965E-01   3.16095588E-01   3009.35006473    2.64600390E-06   7.60801856E+17   3.07656955E+09   9.33237922E+08   2.32735037E+07   0.091647585     
  59               3.26262682E-01   3.53632375E-01   3040.84029063    2.91678637E-06   8.42333835E+17   2.94351370E+09   1.06632957E+09   2.28462164E+07   0.091649569     
  60               3.94982361E-01   3.95162259E-01   3071.78092192    3.21309012E-06   9.31775015E+17   2.79684998E+09   1.21302014E+09   2.24172175E+07   0.091725103     
  61               4.78176250E-01   4.41069667E-01   3103.31790079    3.53454032E-06   1.02945357E+18   2.63652283E+09   1.37337178E+09   2.19864284E+07   0.091847643     
  62               5.78893005E-01   4.91779852E-01   3134.34018867    3.88582363E-06   1.13645028E+18   2.46332454E+09   1.54659388E+09   2.15537194E+07   0.092079056     
  63               7.00823412E-01   5.47762736E-01   3166.06615924    4.26627680E-06   1.25313638E+18   2.27878404E+09   1.73115822E+09   2.11189102E+07   0.092385407     
  64               8.48435636E-01   6.09535956E-01   3197.34209955    4.68160257E-06   1.38081680E+18   2.08553918E+09   1.92440155E+09   2.06818040E+07   0.09281906      
  65               1.02713896E+00   6.77670093E-01   3229.44877004    5.13073284E-06   1.51990261E+18   1.88706490E+09   2.12285227E+09   2.02421741E+07   0.093304515     
  66               1.24348200E+00   7.52793912E-01   3261.15839210    5.62066388E-06   1.67197602E+18   1.68782072E+09   2.32205094E+09   1.97997869E+07   0.093823333     
  67               1.50539269E+00   8.35604690E-01   3293.76727554    6.15003749E-06   1.83752729E+18   1.49274546E+09   2.51706797E+09   1.93543733E+07   0.094312828     
  68               1.82246880E+00   9.26875785E-01   3325.98288349    6.72749564E-06   2.01849355E+18   1.30696366E+09   2.70278533E+09   1.89056527E+07   0.094766533     
  69               2.20632965E+00   1.02746967E+00   3359.12658514    7.35142303E-06   2.21548329E+18   1.13484585E+09   2.87481569E+09   1.84533091E+07   0.095138403     
  70               2.67104190E+00   1.13834616E+00   3391.85101784    8.03250807E-06   2.43087943E+18   9.79582057E+08   3.02995880E+09   1.79970239E+07   0.095469913     
  71               3.23363503E+00   1.26057698E+00   3425.53475521    8.76874115E-06   2.66542726E+18   8.42722989E+08   3.16674296E+09   1.75364540E+07   0.095802149     
  72               3.91472538E+00   1.39535012E+00   3458.83268059    9.57290461E-06   2.92199507E+18   7.24087959E+08   3.28535304E+09   1.70712742E+07   0.096205587     
  73               4.73927163E+00   1.54398412E+00   3493.19917949    1.04422131E-05   3.20143965E+18   6.22222367E+08   3.38725145E+09   1.66011538E+07   0.096674887     
  74               5.73748947E+00   1.70793572E+00   3527.25686157    1.13919376E-05   3.50719791E+18   5.34741987E+08   3.47480750E+09   1.61257873E+07   0.097234858     
  75               6.94595877E+00   1.88882249E+00   3562.50559960    1.24184490E-05   3.84026708E+18   4.59649499E+08   3.54998153E+09   1.56448555E+07   0.097888349     
  76               8.40896415E+00   2.08843039E+00   3597.54176062    1.35398635E-05   4.20474827E+18   3.94650445E+08   3.61502086E+09   1.51580616E+07   0.098633483     
  77               1.01801177E+01   2.30874272E+00   3633.89327378    1.47516255E-05   4.60181558E+18   3.38544787E+08   3.67116703E+09   1.46650909E+07   0.09941176      
  78               1.23243238E+01   2.55195816E+00   3670.08639517    1.60756721E-05   5.03643348E+18   2.89658063E+08   3.72009013E+09   1.41656373E+07   0.10017802      
  79               1.49201573E+01   2.82053699E+00   3707.64894604    1.75069241E-05   5.51009431E+18   2.47702963E+08   3.76207633E+09   1.36593558E+07   0.10092588      
  80               1.80627429E+01   3.11721881E+00   3745.07501667    1.90718180E-05   6.02882401E+18   2.11424277E+08   3.79838698E+09   1.31459051E+07   0.10166517      
  81               2.18672415E+01   3.44507383E+00   3783.93324916    2.07644248E-05   6.59448533E+18   1.80781637E+08   3.82900426E+09   1.26249074E+07   0.10239136      
  82               2.64730696E+01   3.80752671E+00   3822.68532816    2.26165812E-05   7.21440050E+18   1.54590209E+08   3.85517701E+09   1.20959909E+07   0.10311935      
  83               3.20490087E+01   4.20842103E+00   3862.94561910    2.46213830E-05   7.89089797E+18   1.32782070E+08   3.87699850E+09   1.15587484E+07   0.10388592      
  84               3.87993903E+01   4.65203562E+00   3903.17312810    2.68165555E-05   8.63278760E+18   1.14183773E+08   3.89563082E+09   1.10127930E+07   0.10472915      
  85               4.69715834E+01   5.14315946E+00   3945.04652221    2.91934813E-05   9.44286325E+18   9.86593089E+07   3.91121661E+09   1.04577115E+07   0.10565181      
  86               5.68650599E+01   5.68712055E+00   3986.99529589    3.17969419E-05   1.03317182E+19   8.51893687E+07   3.92474332E+09   9.89311081E+06   0.10661085      
  87               6.88423680E+01   6.28989844E+00   4030.70142448    3.46174063E-05   1.13028729E+19   7.37666286E+07   3.93614780E+09   9.31856098E+06   0.10756038      
  88               8.33424188E+01   6.95817395E+00   4074.52524496    3.77091849E-05   1.23692711E+19   6.37059065E+07   3.94619214E+09   8.73364433E+06   0.10848258      
  89               1.00896570E+02   7.69946537E+00   4120.17249186    4.10619545E-05   1.35353974E+19   5.51845049E+07   3.95472568E+09   8.13790538E+06   0.10943648      
  90               1.22148096E+02   8.52216159E+00   4166.01705123    4.47396601E-05   1.48168049E+19   4.76983001E+07   3.96225841E+09   7.53091371E+06   0.11043121      
  91               1.47875764E+02   9.43567006E+00   4213.81056420    4.87302075E-05   1.62189815E+19   4.13738521E+07   3.96868000E+09   6.91221718E+06   0.11151457      
  92               1.79022369E+02   1.04504561E+01   4261.93054821    5.31083908E-05   1.77604808E+19   3.58118267E+07   3.97425941E+09   6.28140011E+06   0.11267023      
  93               2.16729286E+02   1.15782206E+01   4312.15393187    5.78600609E-05   1.94479309E+19   3.11156629E+07   3.97898175E+09   5.63803384E+06   0.11395936      
  94               2.62378292E+02   1.28319364E+01   4362.87335902    6.30715992E-05   2.13032287E+19   2.69859465E+07   3.98314546E+09   4.98173320E+06   0.11534178      
  95               3.17642204E+02   1.42260426E+01   4415.87025473    6.87263895E-05   2.33342389E+19   2.34811688E+07   3.98669408E+09   4.31211282E+06   0.11679299      
  96               3.84546179E+02   1.57765061E+01   4469.47380982    7.49263947E-05   2.55670295E+19   2.03802204E+07   3.98982994E+09   3.62884171E+06   0.11820232      
  97               4.65541927E+02   1.75010323E+01   4525.40096750    8.16550246E-05   2.80112468E+19   1.77306687E+07   3.99244633E+09   2.93161676E+06   0.11955479      
  98               5.63597555E+02   1.94191288E+01   4581.91645572    8.90330007E-05   3.06978822E+19   1.53901444E+07   3.99480572E+09   2.22021558E+06   0.12088097      
  99               6.82306330E+02   2.15522186E+01   4640.79629971    9.70383809E-05   3.36376244E+19   1.34011124E+07   3.99688698E+09   1.49448707E+06   0.12228315      
  100              8.26018359E+02   2.39236129E+01   4700.34527220    1.05806276E-04   3.68657306E+19   1.16542653E+07   3.99880043E+09   7.54391674E+05   0.12378563      
  101              1.00000000E+03   2.65585061E+01   4762.39218982    1.15304505E-04   4.03928340E+19   1.09365717E+07   3.99968781E+09   0.00000000E+00   0.12547336      
