# ATMO pressure-temperature profile
# Effective temperature = 1000.0K
# log(g) = 5.5cm/s^2
# M/H = 0.0
# Optical depth grid in band 17 (1.20-1.33microns)
# All parameters in cgs units
#
# Model Level      Optical Depth    Pressure         Temperature      Density          Number Density   Rad Flux         Conv Flux        Radial Extension Adiabatic Gradient
#                                   [Ba]             [K]              [g/cm^3]         [/cm^3]          [ergs/s/cm^2/sr] [ergs/s/cm^2/sr] [cm]             [K/Ba]          
  1                8.00000000E-07   1.00000000E-05   256.46288562     1.10554492E-09   2.82423815E+14   5.66977802E+07   0.00000000E+00   1.76091666E+06   0.30760279      
  2                9.86413681E-07   3.75497191E-05   284.83368982     3.73777253E-09   9.54863245E+14   5.66977802E+07   0.00000000E+00   1.71805921E+06   0.30249404      
  3                1.21626494E-06   7.19758515E-05   299.37478132     6.81657955E-09   1.74139558E+15   5.66977802E+07   0.00000000E+00   1.69649173E+06   0.30258561      
  4                1.49967547E-06   1.14158873E-04   303.97240673     1.06481015E-08   2.72020321E+15   5.66977802E+07   0.00000000E+00   1.68083436E+06   0.3025765       
  5                1.84912550E-06   1.65782637E-04   313.82827930     1.49775809E-08   3.82624529E+15   5.66977802E+07   0.00000000E+00   1.66790749E+06   0.30280854      
  6                2.28000336E-06   2.29104817E-04   316.85278250     2.05009013E-08   5.23724072E+15   5.66977802E+07   0.00000000E+00   1.65648005E+06   0.30198958      
  7                2.81128314E-06   3.06736847E-04   325.41721668     2.67251381E-08   6.82733578E+15   5.66977802E+07   0.00000000E+00   1.64599200E+06   0.30218971      
  8                3.46636019E-06   4.02060578E-04   328.13716400     3.47401705E-08   8.87486821E+15   5.66977802E+07   0.00000000E+00   1.63609906E+06   0.3015648       
  9                4.27408139E-06   5.19140028E-04   336.37037812     4.37583466E-08   1.11787338E+16   5.66977801E+07   0.00000000E+00   1.62660319E+06   0.3017194       
  10               5.27001545E-06   6.63087249E-04   339.20174103     5.54252896E-08   1.41591911E+16   5.66977802E+07   0.00000000E+00   1.61736006E+06   0.30121738      
  11               6.49801917E-06   8.40149174E-04   347.42497710     6.85628653E-08   1.75154463E+16   5.66977800E+07   0.00000000E+00   1.60827711E+06   0.30133477      
  12               8.01216876E-06   1.05804682E-03   350.45645370     8.55983647E-08   2.18673755E+16   5.66977801E+07   0.00000000E+00   1.59928264E+06   0.30092714      
  13               9.87914110E-06   1.32623664E-03   358.71162608     1.04825858E-07   2.67794349E+16   5.66977799E+07   0.00000000E+00   1.59032950E+06   0.30102084      
  14               1.21811499E-05   1.65624175E-03   361.84577010     1.29776045E-07   3.31532470E+16   5.66977800E+07   0.00000000E+00   1.58138225E+06   0.30068669      
  15               1.50195662E-05   2.06225461E-03   370.17647665     1.57952336E-07   4.03514649E+16   5.66977798E+07   0.00000000E+00   1.57241458E+06   0.30077506      
  16               1.85193820E-05   2.56159764E-03   373.44497927     1.94481342E-07   4.96832651E+16   5.66977803E+07   0.00000000E+00   1.56340515E+06   0.30056991      
  17               2.28347147E-05   3.17571307E-03   382.01204293     2.35698131E-07   6.02129690E+16   5.66977800E+07   0.00000000E+00   1.55433461E+06   0.30053188      
  18               2.81555937E-05   3.93093277E-03   385.55833732     2.89066975E-07   7.38467450E+16   5.66977804E+07   0.00000000E+00   1.54518513E+06   0.30036002      
  19               3.47163285E-05   4.85971193E-03   394.45116314     3.49307920E-07   8.92366226E+16   5.66977808E+07   0.00000000E+00   1.53594221E+06   0.30032685      
  20               4.28058268E-05   6.00144241E-03   398.23605089     4.27276207E-07   1.09154315E+17   5.66977821E+07   0.00000000E+00   1.52659665E+06   0.30018149      
  21               5.27803164E-05   7.40504698E-03   407.53393377     5.15176365E-07   1.31610301E+17   5.66977810E+07   0.00000000E+00   1.51713618E+06   0.30014602      
  22               6.50790328E-05   9.12969556E-03   411.58167756     6.28916766E-07   1.60666785E+17   5.66977807E+07   0.00000000E+00   1.50755484E+06   0.30003004      
  23               8.02435604E-05   1.12478134E-02   421.21109050     7.57110931E-07   1.93416778E+17   5.66977787E+07   0.00000000E+00   1.49784809E+06   0.30004589      
  24               9.89416822E-05   1.38476110E-02   425.49993349     9.22715048E-07   2.35722586E+17   5.66977750E+07   0.00000000E+00   1.48801192E+06   0.29997897      
  25               1.21996786E-04   1.70381104E-02   435.55811736     1.10908712E-06   2.83335607E+17   5.66977709E+07   0.00000000E+00   1.47803854E+06   0.29986358      
  26               1.50424124E-04   2.09527433E-02   440.20532564     1.34953139E-06   3.44755688E+17   5.66977748E+07   0.00000000E+00   1.46791999E+06   0.29972679      
  27               1.85475517E-04   2.57561779E-02   450.94116352     1.61941745E-06   4.13701765E+17   5.66977811E+07   0.00000000E+00   1.45764500E+06   0.29973419      
  28               2.28694484E-04   3.16558505E-02   456.57955697     1.96578201E-06   5.02184569E+17   5.66977303E+07   0.00000000E+00   1.44718863E+06   0.29969297      
  29               2.81984210E-04   3.89047616E-02   468.22158453     2.35588558E-06   6.01834622E+17   5.66976722E+07   0.00000000E+00   1.43653669E+06   0.29965379      
  30               3.47691354E-04   4.78176143E-02   474.95472157     2.85455887E-06   7.29224976E+17   5.66977046E+07   0.00000000E+00   1.42566818E+06   0.29957269      
  31               4.28709385E-04   5.87739882E-02   487.24392563     3.42010177E-06   8.73704490E+17   5.66976898E+07   0.00000000E+00   1.41457954E+06   0.29954078      
  32               5.28606003E-04   7.22580104E-02   495.15958505     4.13772068E-06   1.05697971E+18   5.66976881E+07   0.00000000E+00   1.40324449E+06   0.29947765      
  33               6.51780242E-04   8.88761582E-02   509.00792798     4.95084045E-06   1.26469723E+18   5.66976809E+07   0.00000000E+00   1.39163367E+06   0.29942754      
  34               8.03656185E-04   1.09368528E-01   518.62938109     5.97933983E-06   1.52742920E+18   5.66976536E+07   0.00000000E+00   1.37972328E+06   0.29931585      
  35               9.90921819E-04   1.34674347E-01   534.23390299     7.14774471E-06   1.82590960E+18   5.66976182E+07   0.00000000E+00   1.36748248E+06   0.29924234      
  36               1.22182355E-03   1.65953046E-01   545.73425842     8.62221908E-06   2.20257066E+18   5.66975623E+07   0.00000000E+00   1.35488295E+06   0.29915211      
  37               1.50652933E-03   2.04659248E-01   563.53739257     1.02972459E-05   2.63047680E+18   5.66974733E+07   0.00000000E+00   1.34189289E+06   0.29906527      
  38               1.85757643E-03   2.52594704E-01   577.57000706     1.24002687E-05   3.16771024E+18   5.66973856E+07   0.00000000E+00   1.32847820E+06   0.29891074      
  39               2.29042351E-03   3.11990763E-01   598.21506141     1.47874446E-05   3.77755009E+18   5.66973504E+07   0.00000000E+00   1.31460757E+06   0.29878067      
  40               2.82413135E-03   3.85562814E-01   615.30493647     1.77669224E-05   4.53869063E+18   5.66973858E+07   0.00000000E+00   1.30025399E+06   0.29857974      
  41               3.48220225E-03   4.76524064E-01   638.84758299     2.11491262E-05   5.40273194E+18   5.66973104E+07   0.00000000E+00   1.28541499E+06   0.29838158      
  42               4.29361493E-03   5.88827181E-01   659.06390574     2.53316691E-05   6.47121995E+18   5.66971314E+07   0.00000000E+00   1.27007187E+06   0.29805754      
  43               5.29410063E-03   7.27024703E-01   685.68466369     3.00625573E-05   7.67981169E+18   5.66968966E+07   0.00000000E+00   1.25423549E+06   0.29772451      
  44               6.52771662E-03   8.96386858E-01   709.36436846     3.58282847E-05   9.15275738E+18   5.66966610E+07   0.00000000E+00   1.23791661E+06   0.29731653      
  45               8.04878622E-03   1.10288748E+00   739.61712443     4.22787711E-05   1.08006549E+19   5.66966896E+07   0.00000000E+00   1.22113832E+06   0.29691428      
  46               9.92429106E-03   1.35317673E+00   767.16680539     5.00105962E-05   1.27758722E+19   5.66967907E+07   0.00000000E+00   1.20392558E+06   0.29631267      
  47               1.22368206E-02   1.65470163E+00   801.06907095     5.85663486E-05   1.49615150E+19   5.66969577E+07   0.00000000E+00   1.18630708E+06   0.29564007      
  48               1.50882091E-02   2.01607909E+00   832.26867241     6.86821925E-05   1.75456660E+19   5.66972355E+07   0.00000000E+00   1.16828871E+06   0.29484231      
  49               1.86040198E-02   2.44696323E+00   869.57029333     7.97850888E-05   2.03820840E+19   5.66974019E+07   0.00000000E+00   1.14988193E+06   0.29405275      
  50               2.29390746E-02   2.95725977E+00   904.03609646     9.27474809E-05   2.36935177E+19   5.66976336E+07   0.00000000E+00   1.13112288E+06   0.29306423      
  51               2.82842712E-02   3.55683007E+00   944.20445600     1.06805947E-04   2.72849342E+19   5.66977687E+07   0.00000000E+00   1.11207302E+06   0.29201208      
  52               3.48749902E-02   4.25832005E+00   981.43908755     1.23019780E-04   3.14268453E+19   5.66980296E+07   0.00000000E+00   1.09272054E+06   0.29076373      
  53               4.30014593E-02   5.07720621E+00   1024.46339444    1.40520869E-04   3.58966728E+19   5.66980108E+07   0.00000000E+00   1.07302500E+06   0.28950239      
  54               5.30215347E-02   6.02953638E+00   1064.70279284    1.60570743E-04   4.10186503E+19   5.66981622E+07   0.00000000E+00   1.05297638E+06   0.28808759      
  55               6.53764590E-02   7.13296075E+00   1110.66829904    1.82093044E-04   4.65169571E+19   5.66980934E+07   0.00000000E+00   1.03257009E+06   0.28667901      
  56               8.06102920E-02   8.40941044E+00   1153.84443423    2.06643648E-04   5.27890845E+19   5.66986650E+07   0.00000000E+00   1.01176126E+06   0.28512664      
  57               9.93938685E-02   9.89105754E+00   1202.54983012    2.33203888E-04   5.95751969E+19   5.66985540E+07   0.00000000E+00   9.90417576E+05   0.2836079       
  58               1.22554340E-01   1.16142429E+01   1248.11236814    2.63829587E-04   6.74004903E+19   5.66986171E+07   0.00000000E+00   9.68448795E+05   0.28198758      
  59               1.51111597E-01   1.36217577E+01   1298.48852998    2.97416891E-04   7.59837763E+19   5.66984806E+07   0.00000000E+00   9.45785653E+05   0.28041512      
  60               1.86323183E-01   1.59606978E+01   1344.64061032    3.36511174E-04   8.59748628E+19   5.66979301E+07   0.00000000E+00   9.22405825E+05   0.27876194      
  61               2.29739671E-01   1.86953994E+01   1394.80309068    3.79973644E-04   9.70840053E+19   5.66963912E+07   0.00000000E+00   8.98221176E+05   0.2771782       
  62               2.83272943E-01   2.18959355E+01   1440.14406625    4.30992679E-04   1.10124362E+20   5.66942186E+07   0.00000000E+00   8.73211100E+05   0.27546468      
  63               3.49280383E-01   2.56291292E+01   1489.60460541    4.87699880E-04   1.24620269E+20   5.66947008E+07   0.00000000E+00   8.47461280E+05   0.27374888      
  64               4.30668686E-01   2.99418045E+01   1534.44071012    5.53096240E-04   1.41336294E+20   5.66983011E+07   0.00000000E+00   8.21202597E+05   0.27191065      
  65               5.31021855E-01   3.48832982E+01   1584.11730401    6.24146746E-04   1.59498294E+20   5.67119917E+07   0.00000000E+00   7.94606446E+05   0.27003945      
  66               6.54759028E-01   4.04988338E+01   1629.80146550    7.04302678E-04   1.79983898E+20   5.67337848E+07   0.00000000E+00   7.67822690E+05   0.26800662      
  67               8.07329079E-01   4.67802984E+01   1681.30144243    7.88655655E-04   2.01531641E+20   5.67540422E+07   0.00000000E+00   7.41169716E+05   0.26611807      
  68               9.95450561E-01   5.36567511E+01   1730.08427048    8.79393541E-04   2.24637861E+20   5.67406856E+07   0.00000000E+00   7.15056954E+05   0.26412112      
  69               1.22740757E+00   6.10380456E+01   1786.30960278    9.68873229E-04   2.47496879E+20   5.66673588E+07   0.00000000E+00   6.89769082E+05   0.26236511      
  70               1.51341452E+00   6.88000977E+01   1843.25528512    1.05852465E-03   2.70351888E+20   5.37400921E+07   2.95829165E+06   6.65530699E+05   0.26051904      
  71               1.86606598E+00   7.66578746E+01   1895.55664795    1.14742018E-03   2.92917856E+20   4.85535756E+07   8.14497415E+06   6.42982851E+05   0.25894742      
  72               2.30089127E+00   8.42030931E+01   1942.25115498    1.23141135E-03   3.14013628E+20   4.24803656E+07   1.42184351E+07   6.22908417E+05   0.25738897      
  73               2.83703828E+00   9.11207466E+01   1981.78548699    1.30594535E-03   3.33032383E+20   3.73170791E+07   1.93819741E+07   6.05658160E+05   0.25605701      
  74               3.49811672E+00   9.89200741E+01   2024.03656918    1.38805720E-03   3.53990753E+20   3.22460534E+07   2.44533621E+07   5.87339578E+05   0.25469418      
  75               4.31323774E+00   1.05549254E+02   2057.38669987    1.45745438E-03   3.71590910E+20   2.66779064E+07   3.00220870E+07   5.72600214E+05   0.25356084      
  76               5.31829590E+00   1.10764250E+02   2082.91793916    1.51067758E-03   3.85170743E+20   2.29816008E+07   3.37188832E+07   5.61486202E+05   0.25234042      
  77               6.55754979E+00   1.16839520E+02   2110.82865740    1.57241951E-03   4.00924524E+20   2.10846230E+07   3.56162388E+07   5.49021102E+05   0.25134179      
  78               8.08557104E+00   1.23876390E+02   2142.32181890    1.64255634E-03   4.18822177E+20   1.95216927E+07   3.71795670E+07   5.35174742E+05   0.25030749      
  79               9.96964736E+00   1.31967994E+02   2176.15128874    1.72251455E-03   4.39243527E+20   1.68945620E+07   3.98063116E+07   5.19962489E+05   0.24961517      
  80               1.22927457E+01   1.38093154E+02   2201.21554336    1.78349668E-03   4.54396959E+20   1.35849934E+07   4.31138299E+07   5.08910116E+05   0.24901758      
  81               1.51571657E+01   1.42575928E+02   2218.45477289    1.82704147E-03   4.65501911E+20   1.18630762E+07   4.48341850E+07   5.01057097E+05   0.24830656      
  82               1.86890445E+01   1.47912943E+02   2239.08525925    1.87791371E-03   4.78477354E+20   1.13551110E+07   4.53422661E+07   4.91945666E+05   0.24749662      
  83               2.30439114E+01   1.54237433E+02   2262.04418223    1.93826947E-03   4.93872159E+20   1.08413556E+07   4.58561411E+07   4.81462782E+05   0.24655674      
  84               2.84135369E+01   1.61696414E+02   2288.81684292    2.00815120E-03   5.11699728E+20   1.03311497E+07   4.63664640E+07   4.69507096E+05   0.24550057      
  85               3.50343769E+01   1.70451445E+02   2318.24100661    2.08990585E-03   5.32559262E+20   9.74059737E+06   4.69571283E+07   4.55992706E+05   0.24429549      
  86               4.31979859E+01   1.80679126E+02   2351.73317648    2.18384201E-03   5.56475151E+20   9.14068936E+06   4.75571400E+07   4.40852991E+05   0.24295278      
  87               5.32638553E+01   1.92575575E+02   2388.00548541    2.29211229E-03   5.84106075E+20   8.49107329E+06   4.82068523E+07   4.24038281E+05   0.24146676      
  88               6.56752445E+01   2.06357961E+02   2428.42108457    2.41506358E-03   6.15492936E+20   7.84888647E+06   4.88491248E+07   4.05513932E+05   0.23984436      
  89               8.09786996E+01   2.22268344E+02   2471.56529106    2.55559129E-03   6.51375419E+20   7.17268275E+06   4.95254000E+07   3.85261762E+05   0.23806218      
  90               9.98481215E+01   2.40579869E+02   2518.76772478    2.71394595E-03   6.91826197E+20   6.51536157E+06   5.01827721E+07   3.63274083E+05   0.23610864      
  91               1.23114441E+02   2.61612094E+02   2568.52637542    2.89359827E-03   7.37733708E+20   5.87787706E+06   5.08202910E+07   3.39540305E+05   0.23400908      
  92               1.51802212E+02   2.85739503E+02   2622.23310583    3.09516238E-03   7.89268607E+20   5.29903696E+06   5.13991459E+07   3.14045508E+05   0.23171065      
  93               1.87174723E+02   3.13398521E+02   2678.30068059    3.32298625E-03   8.47546336E+20   4.75112361E+06   5.19470574E+07   2.86772519E+05   0.22933716      
  94               2.30789634E+02   3.45101193E+02   2738.24054945    3.57810141E-03   9.12852696E+20   4.24506869E+06   5.24530993E+07   2.57698324E+05   0.22677564      
  95               2.84567566E+02   3.81452442E+02   2800.35611511    3.86610551E-03   9.86626955E+20   3.76160286E+06   5.29365439E+07   2.26791176E+05   0.22411368      
  96               3.50876675E+02   4.23172083E+02   2866.29957614    4.18875400E-03   1.06935344E+21   3.31946887E+06   5.33786561E+07   1.94006973E+05   0.22153005      
  97               4.32636941E+02   4.71118367E+02   2934.44097408    4.55316233E-03   1.16286821E+21   2.90319293E+06   5.37949040E+07   1.59288571E+05   0.21898512      
  98               5.33448747E+02   5.26347278E+02   3006.57260589    4.96242972E-03   1.26802123E+21   2.51719238E+06   5.41809294E+07   1.22546193E+05   0.21607154      
  99               6.57751428E+02   5.90193614E+02   3080.85457758    5.42716043E-03   1.38755161E+21   2.17350633E+06   5.45247560E+07   8.36410078E+04   0.21306362      
  100              8.11018759E+02   6.63738260E+02   3158.87546828    5.94878979E-03   1.52191426E+21   1.89377096E+06   5.48047068E+07   4.27096381E+04   0.20990247      
  101              1.00000000E+03   7.47947842E+02   3237.91450513    6.53514243E-03   1.67313805E+21   1.75302336E+06   5.49455689E+07   0.00000000E+00   0.20690017      
