# ATMO pressure-temperature profile
# Effective temperature = 1300.0K
# log(g) = 2.5cm/s^2
# M/H = 0.0
# Optical depth grid in band 17 (1.20-1.33microns)
# All parameters in cgs units
#
# Model Level      Optical Depth    Pressure         Temperature      Density          Number Density   Rad Flux         Conv Flux        Radial Extension Adiabatic Gradient
#                                   [Ba]             [K]              [g/cm^3]         [/cm^3]          [ergs/s/cm^2/sr] [ergs/s/cm^2/sr] [cm]             [K/Ba]          
  1                1.00000000E-04   1.00000000E-05   552.79825428     5.12803787E-10   1.31026511E+14   1.61939582E+08   0.00000000E+00   1.85000211E+09   0.29768535      
  2                1.17489755E-04   1.76764639E-05   618.09364430     8.10150731E-10   2.07141422E+14   1.61939580E+08   0.00000000E+00   1.81228447E+09   0.2979837       
  3                1.38038426E-04   3.16843702E-05   646.78390614     1.38762529E-09   3.54822960E+14   1.61939580E+08   0.00000000E+00   1.77050451E+09   0.29795498      
  4                1.62181010E-04   4.94291855E-05   663.41499305     2.11046810E-09   5.39664700E+14   1.61939579E+08   0.00000000E+00   1.73771413E+09   0.29786386      
  5                1.90546072E-04   7.06253540E-05   679.25842100     2.94508587E-09   7.53097917E+14   1.61939579E+08   0.00000000E+00   1.71082851E+09   0.29774968      
  6                2.23872114E-04   9.56509022E-05   690.06260824     3.92620307E-09   1.00398313E+15   1.61939579E+08   0.00000000E+00   1.68755573E+09   0.29762666      
  7                2.63026799E-04   1.25000672E-04   702.41293516     5.04065959E-09   1.28897854E+15   1.61939579E+08   0.00000000E+00   1.66669282E+09   0.29749204      
  8                3.09029543E-04   1.59347420E-04   710.99407077     6.34815502E-09   1.62332283E+15   1.61939578E+08   0.00000000E+00   1.64749207E+09   0.29757632      
  9                3.63078055E-04   1.99459445E-04   721.88107751     7.82625637E-09   2.00131194E+15   1.61939578E+08   0.00000000E+00   1.62949615E+09   0.29745334      
  10               4.26579519E-04   2.46297831E-04   729.51933696     9.56290850E-09   2.44539837E+15   1.61939578E+08   0.00000000E+00   1.61237512E+09   0.29733297      
  11               5.01187234E-04   3.00950883E-04   739.80077570     1.15224403E-08   2.94650158E+15   1.61939578E+08   0.00000000E+00   1.59591066E+09   0.29720741      
  12               5.88843655E-04   3.64727007E-04   747.00603846     1.38295643E-08   3.53646733E+15   1.61939578E+08   0.00000000E+00   1.57993416E+09   0.29708401      
  13               6.91830971E-04   4.39106076E-04   757.03784449     1.64291376E-08   4.20124197E+15   1.61939577E+08   0.00000000E+00   1.56433004E+09   0.29695311      
  14               8.12830516E-04   5.25881205E-04   764.08375651     1.94944297E-08   4.98508447E+15   1.61939577E+08   0.00000000E+00   1.54899684E+09   0.29682226      
  15               9.54992586E-04   6.27106560E-04   774.08827385     2.29463725E-08   5.86781881E+15   1.61939577E+08   0.00000000E+00   1.53386202E+09   0.29668153      
  16               1.12201845E-03   7.45243371E-04   781.16733245     2.70220310E-08   6.91002929E+15   1.61939577E+08   0.00000000E+00   1.51885933E+09   0.29654022      
  17               1.31825674E-03   8.83113820E-04   791.35737031     3.16088714E-08   8.08294957E+15   1.61939576E+08   0.00000000E+00   1.50394142E+09   0.29638886      
  18               1.54881662E-03   1.04410256E-03   798.66826582     3.70290051E-08   9.46896633E+15   1.61939576E+08   0.00000000E+00   1.48906083E+09   0.29623455      
  19               1.81970086E-03   1.23205831E-03   809.19217317     4.31272330E-08   1.10282202E+16   1.61939575E+08   0.00000000E+00   1.47418746E+09   0.29606728      
  20               2.13796209E-03   1.45159011E-03   816.85098582     5.03354059E-08   1.28714360E+16   1.61939574E+08   0.00000000E+00   1.45928751E+09   0.29589465      
  21               2.51188643E-03   1.70800011E-03   827.83770181     5.84402984E-08   1.49440576E+16   1.61939572E+08   0.00000000E+00   1.44433748E+09   0.29570761      
  22               2.95120923E-03   2.00756114E-03   835.94788256     6.80235800E-08   1.73946389E+16   1.61939572E+08   0.00000000E+00   1.42931300E+09   0.29551459      
  23               3.46736850E-03   2.35735871E-03   847.42917096     7.87933570E-08   2.01487497E+16   1.61939572E+08   0.00000000E+00   1.41420377E+09   0.2953046       
  24               4.07380278E-03   2.76583101E-03   856.05882606     9.15143806E-08   2.34017250E+16   1.61939573E+08   0.00000000E+00   1.39899223E+09   0.2950858       
  25               4.78630092E-03   3.24257714E-03   868.20649221     1.05786951E-07   2.70516106E+16   1.61939575E+08   0.00000000E+00   1.38366983E+09   0.29484724      
  26               5.62341325E-03   3.79902147E-03   877.55288233     1.22620471E-07   3.13562624E+16   1.61939578E+08   0.00000000E+00   1.36821999E+09   0.29459843      
  27               6.60693448E-03   4.44798074E-03   890.48283870     1.41481439E-07   3.61795519E+16   1.61939582E+08   0.00000000E+00   1.35263931E+09   0.29432751      
  28               7.76247117E-03   5.20457880E-03   900.63326757     1.63681367E-07   4.18565514E+16   1.61939587E+08   0.00000000E+00   1.33691702E+09   0.29404351      
  29               9.12010839E-03   6.08572924E-03   914.50296252     1.88489367E-07   4.82007004E+16   1.61939596E+08   0.00000000E+00   1.32105322E+09   0.29373405      
  30               1.07151931E-02   7.11137413E-03   925.66344547     2.17600095E-07   5.56450136E+16   1.61939606E+08   0.00000000E+00   1.30503832E+09   0.29340842      
  31               1.25892541E-02   8.30434158E-03   940.65096394     2.50053667E-07   6.39444034E+16   1.61939621E+08   0.00000000E+00   1.28886562E+09   0.29305291      
  32               1.47910839E-02   9.69160293E-03   952.95481287     2.88057403E-07   7.36629563E+16   1.61939638E+08   0.00000000E+00   1.27251997E+09   0.29267712      
  33               1.73780083E-02   1.13030963E-02   969.30369560     3.30286894E-07   8.44623960E+16   1.61939658E+08   0.00000000E+00   1.25599870E+09   0.29224759      
  34               2.04173794E-02   1.31735956E-02   983.08892350     3.79546010E-07   9.70593467E+16   1.61939683E+08   0.00000000E+00   1.23929242E+09   0.29219329      
  35               2.39883292E-02   1.53411203E-02   1001.17201412    4.34009803E-07   1.10987537E+17   1.61939714E+08   0.00000000E+00   1.22240426E+09   0.29176522      
  36               2.81838293E-02   1.78488290E-02   1016.72692760    4.97228124E-07   1.27154356E+17   1.61939752E+08   0.00000000E+00   1.20533363E+09   0.29121328      
  37               3.31131121E-02   2.07427184E-02   1036.79465183    5.66658934E-07   1.44910136E+17   1.61939794E+08   0.00000000E+00   1.18809339E+09   0.29054097      
  38               3.89045145E-02   2.40737030E-02   1054.51940251    6.46600917E-07   1.65353794E+17   1.61939835E+08   0.00000000E+00   1.17069161E+09   0.28981682      
  39               4.57088190E-02   2.78945736E-02   1077.11954571    7.33504237E-07   1.87577896E+17   1.61939877E+08   0.00000000E+00   1.15314703E+09   0.2890434       
  40               5.37031796E-02   3.22617069E-02   1097.50001314    8.32585619E-07   2.12916171E+17   1.61939922E+08   0.00000000E+00   1.13547523E+09   0.28822911      
  41               6.30957344E-02   3.72311413E-02   1123.04191452    9.38978367E-07   2.40124362E+17   1.61939972E+08   0.00000000E+00   1.11770206E+09   0.2873711       
  42               7.41310241E-02   4.28643946E-02   1146.50521043    1.05892525E-06   2.70798654E+17   1.61940039E+08   0.00000000E+00   1.09983723E+09   0.28653376      
  43               8.70963590E-02   4.92338563E-02   1175.36251470    1.18641336E-06   3.03401594E+17   1.61940144E+08   0.00000000E+00   1.08186706E+09   0.28568686      
  44               1.02329299E-01   5.64161250E-02   1202.22353198    1.32911213E-06   3.39894289E+17   1.61940260E+08   0.00000000E+00   1.06378022E+09   0.28482168      
  45               1.20226443E-01   6.44888642E-02   1234.58820288    1.47946888E-06   3.78345388E+17   1.61940397E+08   0.00000000E+00   1.04557536E+09   0.28388813      
  46               1.41253754E-01   7.35291947E-02   1264.97335676    1.64634745E-06   4.21021497E+17   1.61940523E+08   0.00000000E+00   1.02725767E+09   0.28285497      
  47               1.65958691E-01   8.36074537E-02   1301.30624282    1.81973997E-06   4.65362435E+17   1.61940645E+08   0.00000000E+00   1.00884484E+09   0.28165553      
  48               1.94984460E-01   9.47761485E-02   1336.21119951    2.00895552E-06   5.13747579E+17   1.61940735E+08   0.00000000E+00   9.90372878E+08   0.28025929      
  49               2.29086765E-01   1.07026203E-01   1378.22471100    2.19955192E-06   5.62465548E+17   1.61940790E+08   0.00000000E+00   9.71944431E+08   0.27883435      
  50               2.69153480E-01   1.20233180E-01   1423.59899321    2.39238448E-06   6.11733835E+17   1.60549172E+08   1.41441067E+06   9.53737950E+08   0.27765654      
  51               3.16227766E-01   1.33999313E-01   1466.98726770    2.58859551E-06   6.61610011E+17   1.57588717E+08   4.38727765E+06   9.36243798E+08   0.2762933       
  52               3.71535229E-01   1.48253311E-01   1508.45131990    2.78538171E-06   7.11867134E+17   1.53494092E+08   8.50316018E+06   9.19457126E+08   0.27448901      
  53               4.36515832E-01   1.62929019E-01   1547.88222147    2.98401480E-06   7.62406115E+17   1.48238018E+08   1.37947414E+07   9.03359244E+08   0.2723064       
  54               5.12861384E-01   1.77100139E-01   1583.31481251    3.17247287E-06   8.10172442E+17   1.41879597E+08   2.01738497E+07   8.88793987E+08   0.27008487      
  55               6.02559586E-01   1.89696136E-01   1612.83510261    3.34038987E-06   8.51911255E+17   1.35332096E+08   2.67024431E+07   8.76556770E+08   0.26802958      
  56               7.07945784E-01   2.00680903E-01   1637.29662847    3.48096975E-06   8.87778287E+17   1.29833670E+08   3.21841274E+07   8.66369863E+08   0.26620233      
  57               8.31763771E-01   2.12968449E-01   1663.32824629    3.63607355E-06   9.27391574E+17   1.24644082E+08   3.73646070E+07   8.55447944E+08   0.26440823      
  58               9.77237221E-01   2.23988644E-01   1685.59955479    3.77714291E-06   9.62492675E+17   1.20194125E+08   4.17595383E+07   8.46043090E+08   0.26271951      
  59               1.14815362E+00   2.32985491E-01   1703.08211293    3.88845155E-06   9.90875588E+17   1.16688954E+08   4.52201118E+07   8.38619390E+08   0.26126669      
  60               1.34896288E+00   2.43091967E-01   1722.06067016    4.01231657E-06   1.02246394E+18   1.13044968E+08   4.88748351E+07   8.30528171E+08   0.25992471      
  61               1.58489319E+00   2.54404225E-01   1742.49532028    4.14966448E-06   1.05749553E+18   1.09150684E+08   5.27797475E+07   8.21761283E+08   0.25859977      
  62               1.86208714E+00   2.67017035E-01   1764.41149712    4.30114097E-06   1.09613723E+18   1.04936313E+08   5.70049591E+07   8.12320373E+08   0.25723345      
  63               2.18776162E+00   2.81017595E-01   1787.70485861    4.46748442E-06   1.13857995E+18   1.00346317E+08   6.16069342E+07   8.02220349E+08   0.25595798      
  64               2.57039578E+00   2.96472829E-01   1812.34982240    4.64884099E-06   1.18486456E+18   9.53363831E+07   6.66312787E+07   7.91495968E+08   0.25466946      
  65               3.01995172E+00   3.13406250E-01   1838.10765982    4.84518178E-06   1.23498746E+18   8.99046986E+07   7.20700536E+07   7.80213141E+08   0.25321571      
  66               3.54813389E+00   3.31725461E-01   1864.69642495    5.05487326E-06   1.28853585E+18   8.43216047E+07   7.76405305E+07   7.68507442E+08   0.25153438      
  67               4.16869383E+00   3.51602563E-01   1892.10242029    5.27965328E-06   1.34596334E+18   7.91170565E+07   8.28356398E+07   7.56340090E+08   0.2496461       
  68               4.89778819E+00   3.73554685E-01   1920.85666811    5.52467183E-06   1.40859151E+18   7.42687282E+07   8.76914083E+07   7.43486584E+08   0.24754593      
  69               5.75439937E+00   3.97753424E-01   1950.81076751    5.79141282E-06   1.47680999E+18   6.95053284E+07   9.24628984E+07   7.29958120E+08   0.2452298       
  70               6.76082975E+00   4.24385999E-01   1981.95592842    6.08104685E-06   1.55093249E+18   6.47773386E+07   9.71984785E+07   7.15766458E+08   0.24260789      
  71               7.94328235E+00   4.53658043E-01   2014.11048581    6.39539406E-06   1.63144022E+18   6.00884751E+07   1.01894432E+08   7.00923104E+08   0.23966836      
  72               9.33254301E+00   4.85796156E-01   2047.25758452    6.73591742E-06   1.71872908E+18   5.54712605E+07   1.06515730E+08   6.85438841E+08   0.23637994      
  73               1.09647820E+01   5.21052498E-01   2081.19962814    7.10487495E-06   1.81339988E+18   5.09804898E+07   1.11005710E+08   6.69322621E+08   0.23283399      
  74               1.28824955E+01   5.59705431E-01   2115.94500525    7.50403016E-06   1.91593594E+18   4.66489086E+07   1.15332960E+08   6.52582450E+08   0.22899952      
  75               1.51356125E+01   6.02061641E-01   2151.27881183    7.93614335E-06   2.02707631E+18   4.25039848E+07   1.19472399E+08   6.35225701E+08   0.22495653      
  76               1.77827941E+01   6.48458289E-01   2187.23236763    8.40329834E-06   2.14740006E+18   3.85609054E+07   1.23407057E+08   6.17259313E+08   0.22066731      
  77               2.08929613E+01   6.99265976E-01   2223.56993986    8.90884935E-06   2.27780972E+18   3.48301241E+07   1.27126923E+08   5.98689909E+08   0.21619953      
  78               2.45470892E+01   7.54891068E-01   2260.34421547    9.45525836E-06   2.41899820E+18   3.13063694E+07   1.30639118E+08   5.79524065E+08   0.21146865      
  79               2.88403150E+01   8.15779456E-01   2297.28055088    1.00466426E-05   2.57208056E+18   2.79351094E+07   1.33999512E+08   5.59768364E+08   0.20645556      
  80               3.38844156E+01   8.82306825E-01   2334.36104205    1.06861268E-05   2.73764702E+18   2.47559687E+07   1.37168296E+08   5.39463623E+08   0.20126332      
  81               3.98107171E+01   9.55009319E-01   2371.35235796    1.13764721E-05   2.91700624E+18   2.19190864E+07   1.39995411E+08   5.18611936E+08   0.19618849      
  82               4.67735141E+01   1.03458941E+00   2408.47588736    1.21229748E-05   3.11136932E+18   1.94086103E+07   1.42496742E+08   4.97182917E+08   0.19120863      
  83               5.49540874E+01   1.12167838E+00   2445.46671360    1.29312330E-05   3.32225093E+18   1.71248797E+07   1.44773961E+08   4.75186847E+08   0.18626827      
  84               6.45654229E+01   1.21695748E+00   2482.46319693    1.38049627E-05   3.55073635E+18   1.50377293E+07   1.46856954E+08   4.52635789E+08   0.18144456      
  85               7.58577575E+01   1.32115524E+00   2519.22299538    1.47503576E-05   3.79850829E+18   1.31609431E+07   1.48728009E+08   4.29544591E+08   0.17691764      
  86               8.91250938E+01   1.43508037E+00   2555.97503536    1.57712649E-05   4.06673110E+18   1.15133741E+07   1.50367347E+08   4.05923918E+08   0.17249495      
  87               1.04712855E+02   1.55960125E+00   2592.40272611    1.68754629E-05   4.35749548E+18   1.00624462E+07   1.51808986E+08   3.81786635E+08   0.1682434       
  88               1.23026877E+02   1.69564588E+00   2628.77164228    1.80669758E-05   4.67205706E+18   8.79782549E+06   1.53064453E+08   3.57147907E+08   0.16421043      
  89               1.44543977E+02   1.84420686E+00   2664.78069217    1.93543879E-05   5.01272638E+18   7.69662152E+06   1.54157082E+08   3.32024430E+08   0.16050933      
  90               1.69824365E+02   2.00633872E+00   2700.75942617    2.07414870E-05   5.38076708E+18   6.73649235E+06   1.55109581E+08   3.06434667E+08   0.15691126      
  91               1.99526231E+02   2.18316541E+00   2736.30109189    2.22387307E-05   5.77894549E+18   5.89559759E+06   1.55946738E+08   2.80398303E+08   0.15352801      
  92               2.34422882E+02   2.37588090E+00   2771.80126738    2.38495892E-05   6.20852476E+18   5.16655468E+06   1.56676247E+08   2.53935937E+08   0.15038774      
  93               2.75422870E+02   2.58575067E+00   2806.86275785    2.55855717E-05   6.67254187E+18   4.53205060E+06   1.57315641E+08   2.27068937E+08   0.14761819      
  94               3.23593657E+02   2.81410847E+00   2841.95977262    2.74492128E-05   7.17213980E+18   3.98114858E+06   1.57873667E+08   1.99819301E+08   0.14504619      
  95               3.80189396E+02   3.06236947E+00   2876.61082439    2.94541264E-05   7.71085107E+18   3.49786126E+06   1.58367409E+08   1.72208590E+08   0.14270227      
  96               4.46683592E+02   3.33203597E+00   2911.32599198    3.16023416E-05   8.28981202E+18   3.07807750E+06   1.58801318E+08   1.44257324E+08   0.14052777      
  97               5.24807460E+02   3.62471186E+00   2945.59316211    3.39095759E-05   8.91305457E+18   2.71108280E+06   1.59185850E+08   1.15984249E+08   0.13859502      
  98               6.16595002E+02   3.94211339E+00   2979.98134527    3.63770332E-05   9.58167435E+18   2.39311968E+06   1.59524110E+08   8.74056350E+07   0.13679685      
  99               7.24435960E+02   4.28607055E+00   3013.92208533    3.90233494E-05   1.03003773E+19   2.11315463E+06   1.59827278E+08   5.85364124E+07   0.13515871      
  100              8.51138038E+02   4.65847627E+00   3048.01260160    4.18485510E-05   1.10701363E+19   1.86844581E+06   1.60099855E+08   2.93943301E+07   0.13362998      
  101              1.00000000E+03   5.06127810E+00   3081.64260083    4.48733045E-05   1.18960771E+19   1.74482476E+06   1.60243574E+08   0.00000000E+00   0.132289        
