# ATMO pressure-temperature profile
# Effective temperature = 550.0K
# log(g) = 5.5cm/s^2
# M/H = 0.0
# Optical depth grid in band 17 (1.20-1.33microns)
# All parameters in cgs units
#
# Model Level      Optical Depth    Pressure         Temperature      Density          Number Density   Rad Flux         Conv Flux        Radial Extension Adiabatic Gradient
#                                   [Ba]             [K]              [g/cm^3]         [/cm^3]          [ergs/s/cm^2/sr] [ergs/s/cm^2/sr] [cm]             [K/Ba]          
  1                8.00000000E-07   1.00000000E-05   122.25531549     2.30551590E-09   5.92458710E+14   5.18816336E+06   0.00000000E+00   1.21905643E+06   0.33778435      
  2                9.86413681E-07   1.75471480E-04   103.49951789     4.77810899E-08   1.22798780E+16   5.18816336E+06   0.00000000E+00   1.16920116E+06   0.31479502      
  3                1.21626494E-06   2.91931858E-04   112.49778990     7.31941434E-08   1.87959093E+16   5.18816336E+06   0.00000000E+00   1.16297231E+06   0.32185642      
  4                1.49967547E-06   3.49502040E-04   113.45561757     8.68885485E-08   2.23125677E+16   5.18816336E+06   0.00000000E+00   1.16068946E+06   0.32055991      
  5                1.84912550E-06   4.19749639E-04   126.42939129     9.36442500E-08   2.40473998E+16   5.18816336E+06   0.00000000E+00   1.15822677E+06   0.32525503      
  6                2.28000336E-06   5.05641119E-04   124.93602076     1.14154634E-07   2.93143693E+16   5.18816337E+06   0.00000000E+00   1.15559975E+06   0.32468099      
  7                2.81128314E-06   6.10893463E-04   135.57131398     1.27097354E-07   3.26379981E+16   5.18816342E+06   0.00000000E+00   1.15283653E+06   0.32591695      
  8                3.46636019E-06   7.39676382E-04   137.03538428     1.52246691E-07   3.90962290E+16   5.18816316E+06   0.00000000E+00   1.14990890E+06   0.32591358      
  9                4.27408139E-06   8.97817145E-04   141.80001279     1.78587263E-07   4.58603605E+16   5.18816302E+06   0.00000000E+00   1.14687609E+06   0.3257307       
  10               5.27001545E-06   1.09197040E-03   143.58786709     2.14502307E-07   5.50831748E+16   5.18816295E+06   0.00000000E+00   1.14373917E+06   0.32566658      
  11               6.49801917E-06   1.33020332E-03   149.40031470     2.51133971E-07   6.44899967E+16   5.18816281E+06   0.00000000E+00   1.14049329E+06   0.32515904      
  12               8.01216876E-06   1.62259412E-03   150.27639332     3.04549601E-07   7.82068823E+16   5.18816285E+06   0.00000000E+00   1.13714993E+06   0.32518477      
  13               9.87914110E-06   1.98133646E-03   156.76768807     3.56484734E-07   9.15435009E+16   5.18816286E+06   0.00000000E+00   1.13370696E+06   0.32435491      
  14               1.21811499E-05   2.42151796E-03   156.85329653     4.35444530E-07   1.11820102E+17   5.18816329E+06   0.00000000E+00   1.13017395E+06   0.324476        
  15               1.50195662E-05   2.96111867E-03   164.95059595     5.06342414E-07   1.30025270E+17   5.18816326E+06   0.00000000E+00   1.12653996E+06   0.3230485       
  16               1.85193820E-05   3.62251356E-03   164.50086916     6.21132433E-07   1.59502562E+17   5.18816234E+06   0.00000000E+00   1.12281049E+06   0.32327966      
  17               2.28347147E-05   4.43441942E-03   168.60940727     7.41813925E-07   1.90493782E+17   5.18816403E+06   0.00000000E+00   1.11902810E+06   0.3225476       
  18               2.81555937E-05   5.42837194E-03   173.30449289     8.83523488E-07   2.26874463E+17   5.18816264E+06   0.00000000E+00   1.11514559E+06   0.32151576      
  19               3.47163285E-05   6.64546834E-03   173.90737879     1.07786882E-06   2.76779183E+17   5.18816127E+06   0.00000000E+00   1.11120163E+06   0.32159333      
  20               4.28058268E-05   8.13596137E-03   179.71913811     1.27694701E-06   3.27899225E+17   5.18816223E+06   0.00000000E+00   1.10718408E+06   0.32029748      
  21               5.27803164E-05   9.95926849E-03   181.12748220     1.55091807E-06   3.98262055E+17   5.18816542E+06   0.00000000E+00   1.10308696E+06   0.32012723      
  22               6.50790328E-05   1.21846401E-02   186.89433106     1.83932888E-06   4.72217870E+17   5.18816577E+06   0.00000000E+00   1.09892021E+06   0.31891246      
  23               8.02435604E-05   1.48948830E-02   188.62176417     2.22786107E-06   5.71967211E+17   5.18815722E+06   0.00000000E+00   1.09468637E+06   0.31858418      
  24               9.89416822E-05   1.81992411E-02   194.16643238     2.64420543E-06   6.78898684E+17   5.18816473E+06   0.00000000E+00   1.09038115E+06   0.31716393      
  25               1.21996786E-04   2.22001687E-02   196.65518707     3.18620289E-06   8.17667447E+17   5.18817129E+06   0.00000000E+00   1.08602200E+06   0.31671005      
  26               1.50424124E-04   2.70468153E-02   203.15730286     3.75693205E-06   9.64294160E+17   5.18817220E+06   0.00000000E+00   1.08159216E+06   0.31541117      
  27               1.85475517E-04   3.28646134E-02   205.56958954     4.51732227E-06   1.15796518E+18   5.18816935E+06   0.00000000E+00   1.07712563E+06   0.31506705      
  28               2.28694484E-04   3.97786129E-02   212.91924584     5.27621119E-06   1.35319553E+18   5.18816495E+06   0.00000000E+00   1.07264718E+06   0.3137719       
  29               2.81984210E-04   4.78398501E-02   216.19734578     6.27395488E-06   1.60274818E+18   5.18817979E+06   0.00000000E+00   1.06821421E+06   0.31304206      
  30               3.47691354E-04   5.69707901E-02   228.03497956     7.08357848E-06   1.80957510E+18   5.18814954E+06   0.00000000E+00   1.06388291E+06   0.31086045      
  31               4.28709385E-04   6.80299152E-02   234.52385073     8.22460126E-06   2.10106144E+18   5.18815037E+06   0.00000000E+00   1.05930110E+06   0.30989448      
  32               5.28606003E-04   8.14299145E-02   245.37009567     9.40945101E-06   2.40374385E+18   5.18815563E+06   0.00000000E+00   1.05448423E+06   0.30832514      
  33               6.51780242E-04   9.76681235E-02   251.47902258     1.10116657E-05   2.81304655E+18   5.18815740E+06   0.00000000E+00   1.04943960E+06   0.30762595      
  34               8.03656185E-04   1.17347164E-01   261.99084231     1.26995527E-05   3.24423515E+18   5.18815926E+06   0.00000000E+00   1.04417720E+06   0.30640274      
  35               9.90921819E-04   1.41186988E-01   268.28028282     1.49213410E-05   3.81181450E+18   5.18815756E+06   0.00000000E+00   1.03870068E+06   0.30576342      
  36               1.22182355E-03   1.70067435E-01   278.97819815     1.72843414E-05   4.41546795E+18   5.18815804E+06   0.00000000E+00   1.03301381E+06   0.30469601      
  37               1.50652933E-03   2.05056786E-01   285.84642766     2.03396425E-05   5.19597696E+18   5.18815557E+06   0.00000000E+00   1.02711264E+06   0.30416419      
  38               1.85757643E-03   2.47459790E-01   297.16479411     2.36107196E-05   6.03160821E+18   5.18815706E+06   0.00000000E+00   1.02099378E+06   0.30340596      
  39               2.29042351E-03   2.98843507E-01   304.94144394     2.77862098E-05   7.09828138E+18   5.18815492E+06   0.00000000E+00   1.01464989E+06   0.30300454      
  40               2.82413135E-03   3.61109476E-01   317.18452796     3.22796509E-05   8.24617847E+18   5.18815777E+06   0.00000000E+00   1.00807525E+06   0.30236506      
  41               3.48220225E-03   4.36546473E-01   326.19571788     3.79449660E-05   9.69344316E+18   5.18815506E+06   0.00000000E+00   1.00125904E+06   0.30194915      
  42               4.29361493E-03   5.27911467E-01   339.78698667     4.40510531E-05   1.12533077E+19   5.18815924E+06   0.00000000E+00   9.94192212E+05   0.3014542       
  43               5.29410063E-03   6.38501848E-01   350.49575101     5.16513101E-05   1.31948738E+19   5.18815526E+06   0.00000000E+00   9.86860616E+05   0.30116941      
  44               6.52771662E-03   7.72327387E-01   365.98306112     5.98332239E-05   1.52850298E+19   5.18816101E+06   0.00000000E+00   9.79248119E+05   0.30081179      
  45               8.04878622E-03   9.34201359E-01   379.02418024     6.98836329E-05   1.78525154E+19   5.18815383E+06   0.00000000E+00   9.71331895E+05   0.30057151      
  46               9.92429106E-03   1.12994135E+00   397.09999724     8.06787033E-05   2.06101834E+19   5.18816320E+06   0.00000000E+00   9.63088371E+05   0.30033213      
  47               1.22368206E-02   1.36631984E+00   413.19847130     9.37554580E-05   2.39507715E+19   5.18815454E+06   0.00000000E+00   9.54493681E+05   0.30017912      
  48               1.50882091E-02   1.65114451E+00   434.78753000     1.07674012E-04   2.75064057E+19   5.18816747E+06   0.00000000E+00   9.45529226E+05   0.30000091      
  49               1.86040198E-02   1.99356540E+00   455.02027236     1.24223174E-04   3.17340558E+19   5.18815432E+06   0.00000000E+00   9.36166474E+05   0.29984323      
  50               2.29390746E-02   2.40457103E+00   481.05279181     1.41725231E-04   3.62051799E+19   5.18817068E+06   0.00000000E+00   9.26371055E+05   0.29965746      
  51               2.82842712E-02   2.89659344E+00   506.12022266     1.62282106E-04   4.14533556E+19   5.18815549E+06   0.00000000E+00   9.16111246E+05   0.29950569      
  52               3.48749902E-02   3.48387470E+00   536.12534808     1.84260782E-04   4.70675969E+19   5.18816780E+06   0.00000000E+00   9.05371490E+05   0.29932268      
  53               4.30014593E-02   4.18383949E+00   563.63429413     2.10481643E-04   5.37654698E+19   5.18815455E+06   0.00000000E+00   8.94131843E+05   0.29913488      
  54               5.30215347E-02   5.01828741E+00   595.55059288     2.38931410E-04   6.10327177E+19   5.18817262E+06   0.00000000E+00   8.82365117E+05   0.29890732      
  55               6.53764590E-02   6.01124634E+00   624.05642104     2.73134589E-04   6.97696443E+19   5.18814912E+06   0.00000000E+00   8.70073572E+05   0.2986776       
  56               8.06102920E-02   7.19027967E+00   656.25611915     3.10676072E-04   7.93593782E+19   5.18817712E+06   0.00000000E+00   8.57274334E+05   0.29834225      
  57               9.93938685E-02   8.58975177E+00   685.00077989     3.55569254E-04   9.08270873E+19   5.18814295E+06   0.00000000E+00   8.43959110E+05   0.29797381      
  58               1.22554340E-01   1.02534411E+01   718.44969522     4.04675280E-04   1.03371095E+20   5.18818110E+06   0.00000000E+00   8.30089723E+05   0.29748246      
  59               1.51111597E-01   1.22274570E+01   749.88406767     4.62353418E-04   1.18104884E+20   5.18812623E+06   0.00000000E+00   8.15658250E+05   0.29696478      
  60               1.86323183E-01   1.45641466E+01   787.65207633     5.24300885E-04   1.33929565E+20   5.18819042E+06   0.00000000E+00   8.00650195E+05   0.29625515      
  61               2.29739671E-01   1.73331408E+01   824.91174019     5.95796277E-04   1.52193330E+20   5.18812967E+06   0.00000000E+00   7.84983278E+05   0.29546321      
  62               2.83272943E-01   2.06259278E+01   869.63682407     6.72516836E-04   1.71791397E+20   5.17841886E+06   9.74884580E+03   7.68533321E+05   0.29440257      
  63               3.49280383E-01   2.45226292E+01   913.63125320     7.61067672E-04   1.94411488E+20   5.12866380E+06   5.94910655E+04   7.51309275E+05   0.29325282      
  64               4.30668686E-01   2.90782915E+01   961.78540682     8.57264478E-04   2.18986096E+20   5.10311656E+06   8.50489150E+04   7.33473858E+05   0.29185394      
  65               5.31021855E-01   3.43502282E+01   1008.06252807    9.66194355E-04   2.46812979E+20   5.13553633E+06   5.26171036E+04   7.15155728E+05   0.29040597      
  66               6.54759028E-01   4.04299287E+01   1058.38869433    1.08313040E-03   2.76683731E+20   5.18816802E+06   0.00000000E+00   6.96362106E+05   0.28874093      
  67               8.07329079E-01   4.73820566E+01   1105.12137227    1.21573234E-03   3.10548738E+20   5.18785407E+06   0.00000000E+00   6.77203671E+05   0.2871562       
  68               9.95450561E-01   5.52558563E+01   1152.02131069    1.36003505E-03   3.47411060E+20   5.18789813E+06   0.00000000E+00   6.57839871E+05   0.28550566      
  69               1.22740757E+00   6.41202997E+01   1194.83051519    1.52166955E-03   3.88700480E+20   5.18833388E+06   0.00000000E+00   6.38354153E+05   0.28397011      
  70               1.51341452E+00   7.41231771E+01   1238.35544345    1.69722209E-03   4.33545365E+20   5.19036888E+06   0.00000000E+00   6.18670957E+05   0.28236697      
  71               1.86606598E+00   8.54142387E+01   1278.80256396    1.89389507E-03   4.83785241E+20   5.19286151E+06   0.00000000E+00   5.98755622E+05   0.28086619      
  72               2.30089127E+00   9.81050906E+01   1321.28321725    2.10534742E-03   5.37800825E+20   5.19537428E+06   0.00000000E+00   5.78657701E+05   0.27927274      
  73               2.83703828E+00   1.12276390E+02   1361.91119740    2.33758235E-03   5.97125325E+20   5.19456780E+06   0.00000000E+00   5.58457089E+05   0.27777087      
  74               3.49811672E+00   1.28002231E+02   1405.64295373    2.58207316E-03   6.59581337E+20   5.18998552E+06   0.00000000E+00   5.38215415E+05   0.27614491      
  75               4.31323774E+00   1.45542246E+02   1448.68781747    2.84864929E-03   7.27679439E+20   5.18115477E+06   0.00000000E+00   5.17763852E+05   0.2745452       
  76               5.31829590E+00   1.65146858E+02   1495.80298320    3.13053680E-03   7.99690175E+20   5.17425580E+06   0.00000000E+00   4.97003733E+05   0.27283022      
  77               6.55754979E+00   1.86962090E+02   1542.90908020    3.43584998E-03   8.77685775E+20   5.17322456E+06   0.00000000E+00   4.75969152E+05   0.27118369      
  78               8.08557104E+00   2.11045828E+02   1594.35903046    3.75326740E-03   9.58774522E+20   5.15041508E+06   3.79787155E+04   4.54760996E+05   0.26941896      
  79               9.96964736E+00   2.37387576E+02   1645.43328102    4.09059333E-03   1.04496934E+21   4.90468195E+06   2.83624818E+05   4.33501756E+05   0.2676689       
  80               1.22927457E+01   2.65956015E+02   1696.16827566    4.44808196E-03   1.13570809E+21   4.62583820E+06   5.62467591E+05   4.12319427E+05   0.26592599      
  81               1.51571657E+01   2.97028791E+02   1746.48826846    4.82457804E-03   1.23185251E+21   4.35460160E+06   8.33707130E+05   3.91108245E+05   0.26423126      
  82               1.86890445E+01   3.30916508E+02   1796.99459408    5.22398070E-03   1.33382085E+21   4.08087674E+06   1.10743257E+06   3.69762359E+05   0.26253157      
  83               2.30439114E+01   3.67801889E+02   1847.27970959    5.64819224E-03   1.44213904E+21   3.78910043E+06   1.39920768E+06   3.48289003E+05   0.26088105      
  84               2.84135369E+01   4.07858492E+02   1897.72139987    6.09701818E-03   1.55669272E+21   3.47692717E+06   1.71138133E+06   3.26703464E+05   0.2592426       
  85               3.50343769E+01   4.51188493E+02   1947.77556924    6.57200659E-03   1.67781835E+21   3.13462901E+06   2.05369292E+06   3.05057130E+05   0.25764431      
  86               4.31979859E+01   4.97515109E+02   1997.40594739    7.06867029E-03   1.80412147E+21   2.75497771E+06   2.43338088E+06   2.83562907E+05   0.25604723      
  87               5.32638553E+01   5.45734950E+02   2045.00564237    7.57699437E-03   1.93291651E+21   2.45312160E+06   2.73524872E+06   2.62726626E+05   0.25452226      
  88               6.56752445E+01   5.98936498E+02   2093.98881311    8.12857934E-03   2.07172574E+21   2.21407305E+06   2.97433594E+06   2.41288380E+05   0.25293622      
  89               8.09786996E+01   6.55140140E+02   2141.73448682    8.69363482E-03   2.21561562E+21   1.93719260E+06   3.25138763E+06   2.20145599E+05   0.25138886      
  90               9.98481215E+01   7.13445091E+02   2188.13865678    9.26628348E-03   2.36162836E+21   1.75020676E+06   3.43850556E+06   1.99603131E+05   0.24988352      
  91               1.23114441E+02   7.80680533E+02   2237.64691151    9.91474755E-03   2.52701390E+21   1.56159656E+06   3.62729706E+06   1.77420892E+05   0.24827449      
  92               1.51802212E+02   8.47339448E+02   2283.60075492    1.05472745E-02   2.68759044E+21   1.28904513E+06   3.90020352E+06   1.56806786E+05   0.24679788      
  93               1.87174723E+02   9.08975899E+02   2323.27024228    1.11209133E-02   2.83386057E+21   1.12501504E+06   4.06444037E+06   1.38809884E+05   0.24552768      
  94               2.30789634E+02   9.81056719E+02   2367.25344048    1.17805030E-02   3.00175470E+21   1.06531996E+06   4.12417657E+06   1.18894752E+05   0.24414323      
  95               2.84567566E+02   1.06511656E+03   2414.94766256    1.25361970E-02   3.19459092E+21   9.17060662E+05   4.27208442E+06   9.70209407E+04   0.24263093      
  96               3.50876675E+02   1.13416228E+03   2452.03081360    1.31585472E-02   3.35023380E+21   7.06388529E+05   4.48149220E+06   8.00186076E+04   0.24145038      
  97               4.32636941E+02   1.18664422E+03   2478.77666856    1.36184579E-02   3.46744010E+21   6.00852169E+05   4.58602904E+06   6.76208783E+04   0.24054475      
  98               5.33448747E+02   1.24862118E+03   2509.40058232    1.41543049E-02   3.60401461E+21   5.75927728E+05   4.61105186E+06   5.35045300E+04   0.23949699      
  99               6.57751428E+02   1.32147537E+03   2543.49651034    1.47786821E-02   3.76316938E+21   5.49124833E+05   4.63794955E+06   3.75753733E+04   0.23828499      
  100              8.11018759E+02   1.40674239E+03   2581.72108245    1.54984654E-02   3.94667253E+21   5.22166001E+05   4.66499829E+06   1.97589961E+04   0.23690801      
  101              1.00000000E+03   1.50613958E+03   2623.54781421    1.63279241E-02   4.15816843E+21   5.06523546E+05   4.68065989E+06   0.00000000E+00   0.23539653      
