# ATMO pressure-temperature profile
# Effective temperature = 2200.0K
# log(g) = 3.5cm/s^2
# M/H = 0.0
# Optical depth grid in band 17 (1.20-1.33microns)
# All parameters in cgs units
#
# Model Level      Optical Depth    Pressure         Temperature      Density          Number Density   Rad Flux         Conv Flux        Radial Extension Adiabatic Gradient
#                                   [Ba]             [K]              [g/cm^3]         [/cm^3]          [ergs/s/cm^2/sr] [ergs/s/cm^2/sr] [cm]             [K/Ba]          
  1                3.00000000E-06   1.00000000E-05   695.66831969     4.07122532E-10   1.04117472E+14   1.32818451E+09   0.00000000E+00   2.97442676E+08   0.2976221       
  2                3.65048058E-06   1.63242678E-05   779.77992155     5.92931141E-10   1.51630827E+14   1.32818451E+09   0.00000000E+00   2.93372136E+08   0.29508763      
  3                4.44200282E-06   2.33365480E-05   819.49091304     8.06556854E-10   2.06261567E+14   1.32818451E+09   0.00000000E+00   2.90165572E+08   0.2948528       
  4                5.40514834E-06   3.14803044E-05   844.94741044     1.05524117E-09   2.69857867E+14   1.32818451E+09   0.00000000E+00   2.87374112E+08   0.29313948      
  5                6.57712968E-06   4.10329624E-05   870.06270883     1.33574876E-09   3.41592366E+14   1.32818451E+09   0.00000000E+00   2.84829708E+08   0.29324624      
  6                8.00322805E-06   5.22797263E-05   888.89390938     1.66581138E-09   4.25999622E+14   1.32818451E+09   0.00000000E+00   2.82445455E+08   0.29183183      
  7                9.73854285E-06   6.55490475E-05   909.97987777     2.04022014E-09   5.21747571E+14   1.32818451E+09   0.00000000E+00   2.80169324E+08   0.29200404      
  8                1.18501205E-05   8.12189090E-05   926.28413690     2.48344960E-09   6.35095104E+14   1.32818451E+09   0.00000000E+00   2.77967924E+08   0.29088856      
  9                1.44195449E-05   9.97594243E-05   945.41155722     2.98865263E-09   7.64291214E+14   1.32818450E+09   0.00000000E+00   2.75815854E+08   0.29104938      
  10               1.75460896E-05   1.21731717E-04   960.43956462     3.58984839E-09   9.18035645E+14   1.32818450E+09   0.00000000E+00   2.73694566E+08   0.2915826       
  11               2.13505531E-05   1.47799068E-04   978.69755135     4.27725933E-09   1.09382800E+15   1.32818450E+09   0.00000000E+00   2.71590903E+08   0.29180606      
  12               2.59799264E-05   1.78737598E-04   993.23761958     5.09688849E-09   1.30343265E+15   1.32818449E+09   0.00000000E+00   2.69495516E+08   0.29060895      
  13               3.16130723E-05   2.15465185E-04   1011.21116594    6.03500457E-09   1.54333814E+15   1.32818448E+09   0.00000000E+00   2.67401399E+08   0.29084656      
  14               3.84676354E-05   2.59056652E-04   1025.66656463    7.15370269E-09   1.82942408E+15   1.32818447E+09   0.00000000E+00   2.65303438E+08   0.28960126      
  15               4.68084520E-05   3.10779924E-04   1043.68424423    8.43385502E-09   2.15679897E+15   1.32818446E+09   0.00000000E+00   2.63197685E+08   0.28984576      
  16               5.69577817E-05   3.72117257E-04   1058.29668636    9.95897536E-09   2.54681978E+15   1.32818444E+09   0.00000000E+00   2.61081252E+08   0.28854479      
  17               6.93077586E-05   4.44812557E-04   1076.55834595    1.17025821E-08   2.99271463E+15   1.32818442E+09   0.00000000E+00   2.58951848E+08   0.28879351      
  18               8.43355422E-05   5.30899008E-04   1091.48613211    1.37764059E-08   3.52305588E+15   1.32818440E+09   0.00000000E+00   2.56807842E+08   0.28743566      
  19               1.02621753E-04   6.32761387E-04   1110.13508051    1.61438198E-08   4.12847807E+15   1.32818437E+09   0.00000000E+00   2.54647896E+08   0.28768374      
  20               1.24872905E-04   7.53175625E-04   1125.46908323    1.89541730E-08   4.84717307E+15   1.32818434E+09   0.00000000E+00   2.52471078E+08   0.2862591       
  21               1.51948705E-04   8.95517802E-04   1144.53173278    2.21609606E-08   5.66724810E+15   1.32818430E+09   0.00000000E+00   2.50274801E+08   0.28650761      
  22               1.84895266E-04   1.06381328E-03   1160.31614656    2.59675785E-08   6.64071605E+15   1.32818426E+09   0.00000000E+00   2.48056286E+08   0.28502465      
  23               2.24985526E-04   1.26280647E-03   1179.95444463    3.03119421E-08   7.75170787E+15   1.32818421E+09   0.00000000E+00   2.45813356E+08   0.28527135      
  24               2.73768430E-04   1.49797992E-03   1196.42094298    3.54622042E-08   9.06875828E+15   1.32818414E+09   0.00000000E+00   2.43545065E+08   0.2837034       
  25               3.33128779E-04   1.77576507E-03   1216.87533726    4.13316794E-08   1.05697632E+16   1.32818406E+09   0.00000000E+00   2.41250583E+08   0.28394276      
  26               4.05360046E-04   2.10344808E-03   1234.20736951    4.82715627E-08   1.23443862E+16   1.32818395E+09   0.00000000E+00   2.38930694E+08   0.28229631      
  27               4.93252992E-04   2.48950055E-03   1255.66510356    5.61550429E-08   1.43603241E+16   1.32818381E+09   0.00000000E+00   2.36585889E+08   0.28252249      
  28               6.00203489E-04   2.94256596E-03   1274.06541556    6.54185575E-08   1.67286278E+16   1.32818362E+09   0.00000000E+00   2.34222049E+08   0.28075004      
  29               7.30343727E-04   3.47330127E-03   1296.72883177    7.58686959E-08   1.94007772E+16   1.32818339E+09   0.00000000E+00   2.31839748E+08   0.28095385      
  30               8.88701864E-04   4.08910129E-03   1316.44276627    8.79942968E-08   2.24984047E+16   1.32818308E+09   0.00000000E+00   2.29456394E+08   0.27905943      
  31               1.08139630E-03   4.80215194E-03   1340.48658841    1.01484017E-07   2.59477236E+16   1.32818271E+09   0.00000000E+00   2.27070262E+08   0.2792335       
  32               1.31587206E-03   5.61177645E-03   1361.68918878    1.16789695E-07   2.98502665E+16   1.32818216E+09   0.00000000E+00   2.24718462E+08   0.2771441       
  33               1.60118847E-03   6.52299546E-03   1387.35273120    1.33255438E-07   3.40554029E+16   1.32818152E+09   0.00000000E+00   2.22408608E+08   0.27727126      
  34               1.94836913E-03   7.56487752E-03   1410.09069192    1.52054564E-07   3.88580224E+16   1.32818076E+09   0.00000000E+00   2.20094001E+08   0.27492722      
  35               2.37082789E-03   8.75053824E-03   1437.50644270    1.72554018E-07   4.40910871E+16   1.32818001E+09   0.00000000E+00   2.17779264E+08   0.27499905      
  36               2.88488706E-03   1.00361916E-02   1462.20802172    1.94670508E-07   4.97147912E+16   1.32817926E+09   0.00000000E+00   2.15560875E+08   0.27267239      
  37               3.51040806E-03   1.13456244E-02   1490.45181747    2.16018463E-07   5.51361329E+16   1.32817843E+09   0.00000000E+00   2.13541576E+08   0.27280418      
  38               4.27155881E-03   1.26852826E-02   1516.24858671    2.37595741E-07   6.05976214E+16   1.32817753E+09   0.00000000E+00   2.11671563E+08   0.26900646      
  39               5.19774750E-03   1.39953570E-02   1545.36777896    2.57423083E-07   6.55960922E+16   1.32817760E+09   0.00000000E+00   2.09996192E+08   0.26882055      
  40               6.32475876E-03   1.53462625E-02   1565.60446102    2.78615987E-07   7.09980484E+16   1.32817736E+09   0.00000000E+00   2.08401053E+08   0.26504441      
  41               7.69613634E-03   1.69051784E-02   1593.89008785    3.01459623E-07   7.68222861E+16   1.32817696E+09   0.00000000E+00   2.06700048E+08   0.26502163      
  42               9.36486541E-03   1.86970355E-02   1617.17809616    3.28598831E-07   8.37415013E+16   1.32817624E+09   0.00000000E+00   2.04899701E+08   0.26152824      
  43               1.13954198E-02   2.07473760E-02   1648.95847445    3.57581673E-07   9.11337618E+16   1.32817541E+09   0.00000000E+00   2.03008202E+08   0.26136281      
  44               1.38662528E-02   2.30779858E-02   1676.34111333    3.91225956E-07   9.97151953E+16   1.32817424E+09   0.00000000E+00   2.01037736E+08   0.25698394      
  45               1.68728289E-02   2.57016635E-02   1712.93213740    4.26345341E-07   1.08679321E+17   1.32817333E+09   0.00000000E+00   1.99006232E+08   0.25626059      
  46               2.05313114E-02   2.85973917E-02   1746.21895483    4.65276135E-07   1.18618811E+17   1.32817236E+09   0.00000000E+00   1.96950231E+08   0.25004614      
  47               2.49830512E-02   3.17275576E-02   1787.97427984    5.04037772E-07   1.28529025E+17   1.32817615E+09   0.00000000E+00   1.94906217E+08   0.24833333      
  48               3.04000477E-02   3.51544841E-02   1823.09712816    5.47596146E-07   1.39667951E+17   1.32817534E+09   0.00000000E+00   1.92843472E+08   0.24233907      
  49               3.69915946E-02   3.90051169E-02   1869.01200525    5.92420124E-07   1.51159460E+17   1.32743917E+09   6.54553239E+05   1.90705545E+08   0.23574091      
  50               4.50123658E-02   4.32998982E-02   1914.91358811    6.41566183E-07   1.63781006E+17   1.32408891E+09   3.96344362E+06   1.88502555E+08   0.2283351       
  51               5.47722558E-02   4.80960940E-02   1960.64005737    6.95575556E-07   1.77679685E+17   1.31791771E+09   1.01144870E+07   1.86232102E+08   0.22024503      
  52               6.66483519E-02   5.34591410E-02   2005.97769554    7.55084837E-07   1.93028625E+17   1.30854401E+09   1.94854964E+07   1.83891912E+08   0.2118286       
  53               8.10995048E-02   5.94636789E-02   2050.87662485    8.20752261E-07   2.10009083E+17   1.29554234E+09   3.24902453E+07   1.81479862E+08   0.20293167      
  54               9.86840557E-02   6.61978209E-02   2095.03887648    8.93474450E-07   2.28863981E+17   1.27854860E+09   4.94799109E+07   1.78993028E+08   0.19400444      
  55               1.20081410E-01   7.37628909E-02   2138.60600476    9.74078351E-07   2.49823327E+17   1.25726455E+09   7.07539197E+07   1.76428617E+08   0.18564433      
  56               1.46118284E-01   8.22724154E-02   2181.51863450    1.06356123E-06   2.73162551E+17   1.23138705E+09   9.66269139E+07   1.73784745E+08   0.17754501      
  57               1.77800653E-01   9.18542813E-02   2223.76194794    1.16300818E-06   2.99183025E+17   1.20069948E+09   1.27327128E+08   1.71060216E+08   0.16987166      
  58               2.16352610E-01   1.02651900E-01   2265.34103596    1.27360465E-06   3.28215617E+17   1.16506459E+09   1.62999924E+08   1.68254564E+08   0.16272766      
  59               2.63263667E-01   1.14825440E-01   2306.28759499    1.39662971E-06   3.60620570E+17   1.12437757E+09   2.03737688E+08   1.65368050E+08   0.15574939      
  60               3.20346302E-01   1.28509692E-01   2346.29338963    1.53337927E-06   3.96715715E+17   1.07868710E+09   2.49484035E+08   1.62410840E+08   0.14943775      
  61               3.89805984E-01   1.43899157E-01   2385.69539432    1.68488712E-06   4.36886975E+17   1.02848715E+09   2.99748119E+08   1.59383034E+08   0.14404106      
  62               4.74326391E-01   1.61257387E-01   2424.58108947    1.85345061E-06   4.81735603E+17   9.74251701E+08   3.54062150E+08   1.56276728E+08   0.13921423      
  63               5.77173093E-01   1.80821512E-01   2463.07881658    2.04070223E-06   5.31737913E+17   9.16103193E+08   4.12294327E+08   1.53095500E+08   0.13483501      
  64               7.02319722E-01   2.02832655E-01   2501.05158560    2.24844868E-06   5.87409634E+17   8.54204564E+08   4.74282480E+08   1.49845932E+08   0.13098612      
  65               8.54601502E-01   2.27567160E-01   2538.70035178    2.47840643E-06   6.49267982E+17   7.89055750E+08   5.39527905E+08   1.46532411E+08   0.12758254      
  66               1.03990206E+00   2.55347942E-01   2575.91623500    2.73300107E-06   7.18003341E+17   7.21495304E+08   6.07153853E+08   1.43156801E+08   0.12451871      
  67               1.26538076E+00   2.86526339E-01   2612.88297414    3.01441494E-06   7.94274156E+17   6.52419132E+08   6.76260926E+08   1.39721647E+08   0.1217684       
  68               1.53974930E+00   3.21483186E-01   2649.47320273    3.32539929E-06   8.78869862E+17   5.82832726E+08   7.45845516E+08   1.36230066E+08   0.11939136      
  69               1.87360830E+00   3.60629079E-01   2685.91540472    3.66825168E-06   9.72510396E+17   5.13809837E+08   8.14849677E+08   1.32685624E+08   0.11732777      
  70               2.27985690E+00   4.04406171E-01   2722.04739220    4.04606133E-06   1.07608835E+18   4.46584936E+08   8.82033105E+08   1.29092155E+08   0.11552471      
  71               2.77419111E+00   4.53291594E-01   2758.07960561    4.46134238E-06   1.19041039E+18   3.82603793E+08   9.45954000E+08   1.25453483E+08   0.11391326      
  72               3.37571026E+00   5.07801262E-01   2793.81339110    4.91765621E-06   1.31650411E+18   3.23450568E+08   1.00503353E+09   1.21773263E+08   0.11250177      
  73               4.10765492E+00   5.68492346E-01   2829.48195035    5.41772175E-06   1.45526985E+18   2.70553958E+08   1.05785007E+09   1.18054920E+08   0.11127056      
  74               4.99830483E+00   6.35967845E-01   2864.88084456    5.96560153E-06   1.60788296E+18   2.24921368E+08   1.10340193E+09   1.14301544E+08   0.11022325      
  75               6.08207157E+00   7.10881865E-01   2900.26426437    6.56425623E-06   1.77535703E+18   1.86894268E+08   1.14134864E+09   1.10515772E+08   0.10930189      
  76               7.40082804E+00   7.93947311E-01   2935.39846811    7.21848652E-06   1.95907227E+18   1.56087317E+08   1.17208326E+09   1.06699710E+08   0.10851665      
  77               9.00552635E+00   8.85943814E-01   2970.56427458    7.93159825E-06   2.16019554E+18   1.31524578E+08   1.19658593E+09   1.02854867E+08   0.10783094      
  78               1.09581663E+01   9.87728694E-01   3005.51196782    8.70934798E-06   2.38037318E+18   1.11901668E+08   1.21616026E+09   9.89821096E+07   0.10726624      
  79               1.33341911E+01   1.10023004E+00   3040.55119555    9.55537289E-06   2.62093963E+18   9.59586718E+07   1.23206591E+09   9.50822298E+07   0.10679389      
  80               1.62254019E+01   1.22442939E+00   3075.40332168    1.04761837E-05   2.88374932E+18   8.26777265E+07   1.24532151E+09   9.11566515E+07   0.10642225      
  81               1.97435049E+01   1.36141052E+00   3110.39410038    1.14756671E-05   3.17029388E+18   7.14670956E+07   1.25651757E+09   8.72058984E+07   0.10612201      
  82               2.40244270E+01   1.51237553E+00   3145.23494349    1.25617945E-05   3.48283090E+18   6.18736908E+07   1.26610594E+09   8.32296756E+07   0.10591208      
  83               2.92335681E+01   1.67865701E+00   3180.28474568    1.37391140E-05   3.82315409E+18   5.36708002E+07   1.27430819E+09   7.92270227E+07   0.10578561      
  84               3.55721908E+01   1.86173229E+00   3215.25356916    1.50172575E-05   4.19399436E+18   4.65975591E+07   1.28138213E+09   7.51964765E+07   0.10575184      
  85               4.32851972E+01   2.06323881E+00   3250.52175057    1.64015368E-05   4.59750554E+18   4.05125988E+07   1.28747056E+09   7.11361547E+07   0.10576447      
  86               5.26705906E+01   2.28498978E+00   3285.76688995    1.79037679E-05   5.03701626E+18   3.52172288E+07   1.29277181E+09   6.70439282E+07   0.1058228       
  87               6.40909893E+01   2.52899533E+00   3321.38079569    1.95302403E-05   5.51512293E+18   3.06295846E+07   1.29736746E+09   6.29174229E+07   0.10589658      
  88               7.79876373E+01   2.79748530E+00   3357.01638894    2.12953899E-05   6.03587436E+18   2.66127487E+07   1.30139092E+09   5.87541022E+07   0.10599279      
  89               9.48974517E+01   3.09293568E+00   3393.08095719    2.32066981E-05   6.60241026E+18   2.31246144E+07   1.30488092E+09   5.45512550E+07   0.10611258      
  90               1.15473768E+02   3.41809167E+00   3429.22182874    2.52815305E-05   7.21961378E+18   2.00722176E+07   1.30793995E+09   5.03061188E+07   0.10628824      
  91               1.40511583E+02   3.77599822E+00   3465.87770727    2.75284620E-05   7.89122427E+18   1.74321927E+07   1.31059064E+09   4.60158411E+07   0.10651058      
  92               1.70978268E+02   4.17003012E+00   3502.68215813    2.99683247E-05   8.62311746E+18   1.51259425E+07   1.31291037E+09   4.16775636E+07   0.10679005      
  93               2.08050949E+02   4.60392418E+00   3540.09000892    3.26110546E-05   9.41975698E+18   1.31277197E+07   1.31492365E+09   3.72884337E+07   0.10711275      
  94               2.53161982E+02   5.08181759E+00   3577.71626985    3.54815754E-05   1.02881909E+19   1.13771854E+07   1.31668010E+09   3.28456481E+07   0.10749885      
  95               3.08054300E+02   5.60829452E+00   3616.03914752    3.85912303E-05   1.12337183E+19   9.85904737E+06   1.31820251E+09   2.83463782E+07   0.10792923      
  96               3.74848746E+02   6.18843538E+00   3654.65157065    4.19698897E-05   1.22648071E+19   8.52708923E+06   1.31953881E+09   2.37878093E+07   0.10840217      
  97               4.56126023E+02   6.82788460E+00   3694.04133287    4.56309461E-05   1.33878322E+19   7.37282043E+06   1.32069705E+09   1.91670213E+07   0.10889782      
  98               5.55026396E+02   7.53291700E+00   3733.77937675    4.96104437E-05   1.46130332E+19   6.36487424E+06   1.32170853E+09   1.44810323E+07   0.10942528      
  99               6.75371026E+02   8.31052602E+00   3774.37251379    5.39242872E-05   1.59481236E+19   5.49730094E+06   1.32257450E+09   9.72667991E+06   0.10998546      
  100              8.21809604E+02   9.16849004E+00   3815.38459657    5.86156288E-05   1.74054532E+19   4.74180254E+06   1.32332328E+09   4.90077401E+06   0.11059892      
  101              1.00000000E+03   1.01154730E+01   3857.35004098    6.37029656E-05   1.89942864E+19   4.40632201E+06   1.32365636E+09   0.00000000E+00   0.11124685      
