# ATMO pressure-temperature profile
# Effective temperature = 450.0K
# log(g) = 4.5cm/s^2
# M/H = 0.0
# Optical depth grid in band 17 (1.20-1.33microns)
# All parameters in cgs units
#
# Model Level      Optical Depth    Pressure         Temperature      Density          Number Density   Rad Flux         Conv Flux        Radial Extension Adiabatic Gradient
#                                   [Ba]             [K]              [g/cm^3]         [/cm^3]          [ergs/s/cm^2/sr] [ergs/s/cm^2/sr] [cm]             [K/Ba]          
  1                5.00000000E-05   1.00000000E-05   68.28654933      4.12736759E-09   1.06069537E+15   2.32490327E+06   0.00000000E+00   1.07912919E+07   0.34612403      
  2                5.91534807E-05   1.35495580E-03   98.88963487      3.86174274E-07   9.92430709E+16   2.32490327E+06   0.00000000E+00   9.72596130E+06   0.31481371      
  3                6.99826855E-05   2.14869694E-03   113.12720386     5.35460323E-07   1.37573236E+17   2.32490105E+06   2.24994156E+00   9.67075941E+06   0.31484142      
  4                8.27943887E-05   2.60408401E-03   121.47327421     6.04514154E-07   1.55274483E+17   2.32489969E+06   3.59462863E+00   9.64544638E+06   0.31486016      
  5                9.79515255E-05   2.96150900E-03   125.15235687     6.67440958E-07   1.71395677E+17   2.32489963E+06   2.71362237E+01   9.62765140E+06   0.31487528      
  6                1.15883473E-04   3.31152592E-03   131.02233805     7.12888555E-07   1.83066405E+17   2.32490051E+06   1.66678507E+01   9.61160521E+06   0.31488848      
  7                1.37098216E-04   3.72282330E-03   134.50121287     7.80701573E-07   2.00480466E+17   2.32490207E+06   2.54258401E+00   9.59417099E+06   0.31489999      
  8                1.62196734E-04   4.20608963E-03   141.26931425     8.39787717E-07   2.15653507E+17   2.32490326E+06   0.00000000E+00   9.57529719E+06   0.31518746      
  9                1.91890027E-04   4.77394059E-03   144.82120518     9.29787507E-07   2.38765015E+17   2.32490340E+06   0.00000000E+00   9.55497560E+06   0.31938776      
  10               2.27019260E-04   5.44153056E-03   150.08411141     1.02264575E-06   2.62610565E+17   2.32490332E+06   0.00000000E+00   9.53332573E+06   0.32124446      
  11               2.68579588E-04   6.22635534E-03   153.01991449     1.14769066E-06   2.94721478E+17   2.32490333E+06   0.00000000E+00   9.51041717E+06   0.32322407      
  12               3.17748350E-04   7.14897266E-03   157.84187804     1.27749887E-06   3.28055434E+17   2.32490327E+06   0.00000000E+00   9.48632206E+06   0.32406011      
  13               3.75918418E-04   8.23349215E-03   160.43470830     1.44752148E-06   3.71716284E+17   2.32490324E+06   0.00000000E+00   9.46110209E+06   0.32505568      
  14               4.44737657E-04   9.50814954E-03   165.01333361     1.62523844E-06   4.17352294E+17   2.32490311E+06   0.00000000E+00   9.43482226E+06   0.32543534      
  15               5.26155608E-04   1.10057684E-02   167.56753121     1.85255436E-06   4.75725400E+17   2.32490304E+06   0.00000000E+00   9.40752887E+06   0.32585166      
  16               6.22478712E-04   1.27646036E-02   172.22635296     2.09050347E-06   5.36826030E+17   2.32490325E+06   0.00000000E+00   9.37926611E+06   0.325959        
  17               7.36435649E-04   1.48293121E-02   174.98913500     2.39031003E-06   6.13812547E+17   2.32490365E+06   0.00000000E+00   9.35005779E+06   0.32596074      
  18               8.71254639E-04   1.72519457E-02   179.68407840     2.70819976E-06   6.95431447E+17   2.32490454E+06   0.00000000E+00   9.31994705E+06   0.32586007      
  19               1.03075489E-03   2.00926349E-02   182.54775766     3.10467240E-06   7.97234767E+17   2.32490547E+06   0.00000000E+00   9.28896741E+06   0.32553334      
  20               1.21945479E-03   2.34206372E-02   187.32432345     3.52681610E-06   9.05587406E+17   2.32490667E+06   0.00000000E+00   9.25716298E+06   0.32526369      
  21               1.44269991E-03   2.73149335E-02   190.26471507     4.04975741E-06   1.03984290E+18   2.32490719E+06   0.00000000E+00   9.22457739E+06   0.32469398      
  22               1.70681442E-03   3.18639108E-02   195.59112853     4.59628512E-06   1.17998304E+18   2.32491079E+06   0.00000000E+00   9.19123427E+06   0.3243224       
  23               2.01928028E-03   3.71637392E-02   199.12754312     5.26582526E-06   1.35180456E+18   2.32491372E+06   0.00000000E+00   9.15716734E+06   0.32359054      
  24               2.38894914E-03   4.33071541E-02   204.86396641     5.96802007E-06   1.53115765E+18   2.32489540E+06   0.00000000E+00   9.12250922E+06   0.32311747      
  25               2.82629313E-03   5.03628213E-02   208.92250394     6.80750707E-06   1.74602585E+18   2.32487595E+06   0.00000000E+00   9.08750145E+06   0.32256248      
  26               3.34370152E-03   5.83688516E-02   216.28506103     7.63354904E-06   1.95470159E+18   2.32491732E+06   0.00000000E+00   9.05237262E+06   0.32200997      
  27               3.95583167E-03   6.72889091E-02   223.99239226     8.50670653E-06   2.17588561E+18   2.32490593E+06   0.00000000E+00   9.01736264E+06   0.3209201       
  28               4.68002425E-03   7.73209341E-02   234.33578750     9.35535564E-06   2.38992522E+18   2.32491281E+06   0.00000000E+00   8.98179576E+06   0.32015673      
  29               5.53679448E-03   8.87497475E-02   243.42808623     1.03370893E-05   2.64071955E+18   2.32488632E+06   0.00000000E+00   8.94504453E+06   0.31890787      
  30               6.55041330E-03   1.02059967E-01   253.53775109     1.14133889E-05   2.91567175E+18   2.32489402E+06   0.00000000E+00   8.90629390E+06   0.31811862      
  31               7.74959494E-03   1.17564433E-01   261.93485204     1.27257825E-05   3.25093665E+18   2.32489828E+06   0.00000000E+00   8.86561143E+06   0.31688924      
  32               9.16831029E-03   1.35626758E-01   271.56320184     1.41604251E-05   3.61743138E+18   2.32489714E+06   0.00000000E+00   8.82306205E+06   0.31633235      
  33               1.08467493E-02   1.56669271E-01   279.89288358     1.58706164E-05   4.05431797E+18   2.32489976E+06   0.00000000E+00   8.77867436E+06   0.31428366      
  34               1.28324595E-02   1.81185949E-01   289.77486390     1.77282404E-05   4.52886781E+18   2.32489701E+06   0.00000000E+00   8.73245415E+06   0.31291256      
  35               1.51816929E-02   2.09757683E-01   298.66075799     1.99132224E-05   5.08704471E+18   2.32490039E+06   0.00000000E+00   8.68436656E+06   0.31090977      
  36               1.79609996E-02   2.43054495E-01   309.47679881     2.22678040E-05   5.68854766E+18   2.32489691E+06   0.00000000E+00   8.63436389E+06   0.30979065      
  37               2.12491128E-02   2.81845306E-01   319.72639805     2.49939065E-05   6.38495955E+18   2.32490110E+06   0.00000000E+00   8.58236752E+06   0.30817752      
  38               2.51391797E-02   3.27013888E-01   332.40382917     2.78934357E-05   7.12567514E+18   2.32489737E+06   0.00000000E+00   8.52827111E+06   0.30728416      
  39               2.97413996E-02   3.79566868E-01   345.17331362     3.11783348E-05   7.96483759E+18   2.32489989E+06   0.00000000E+00   8.47191774E+06   0.30602419      
  40               3.51861462E-02   4.40646067E-01   361.82501897     3.45297276E-05   8.82098624E+18   2.32133970E+06   3.55982088E+03   8.41305096E+06   0.30523808      
  41               4.16276604E-02   5.11576982E-01   378.09684571     3.83627525E-05   9.80017387E+18   2.30983501E+06   1.50650550E+04   8.35142210E+06   0.30416583      
  42               4.92484201E-02   5.93919589E-01   396.21426141     4.25010918E-05   1.08573387E+19   2.29156294E+06   3.33361102E+04   8.28693541E+06   0.30352852      
  43               5.82643093E-02   6.89450238E-01   413.94067889     4.72245757E-05   1.20639814E+19   2.26790235E+06   5.69976733E+04   8.21950450E+06   0.30278734      
  44               6.89307339E-02   8.00190919E-01   433.64168411     5.23198621E-05   1.33655993E+19   2.23992557E+06   8.49738092E+04   8.14905300E+06   0.3023209       
  45               8.15498567E-02   9.28515804E-01   452.92301183     5.81258256E-05   1.48487793E+19   2.20913578E+06   1.15764136E+05   8.07546736E+06   0.30169906      
  46               9.64791575E-02   1.07716497E+00   474.32636785     6.43889729E-05   1.64486703E+19   2.17810644E+06   1.46793954E+05   7.99863000E+06   0.30122173      
  47               1.14141560E-01   1.24928467E+00   495.27204486     7.15212273E-05   1.82702056E+19   2.15143382E+06   1.73467194E+05   7.91842325E+06   0.30072005      
  48               1.35037411E-01   1.44851258E+00   518.51611327     7.92114362E-05   2.02341914E+19   2.13221272E+06   1.92688790E+05   7.83471999E+06   0.3004928       
  49               1.59758657E-01   1.67920823E+00   541.30294084     8.79630517E-05   2.24693240E+19   2.12425903E+06   2.00643186E+05   7.74732254E+06   0.30022703      
  50               1.89005613E-01   1.94669373E+00   566.63619613     9.74156921E-05   2.48839406E+19   2.12625356E+06   1.98648564E+05   7.65594576E+06   0.30002483      
  51               2.23606798E-01   2.25760773E+00   591.57120682     1.08212180E-04   2.76418620E+19   2.13384257E+06   1.91060104E+05   7.56018487E+06   0.29984171      
  52               2.64542408E-01   2.62009230E+00   619.42654802     1.19938899E-04   3.06374500E+19   2.13851374E+06   1.86388449E+05   7.45956771E+06   0.29974102      
  53               3.12972084E-01   3.04440773E+00   647.03817633     1.33414815E-04   3.40799344E+19   2.13393866E+06   1.90964952E+05   7.35349403E+06   0.29959576      
  54               3.70267763E-01   3.54360151E+00   678.07148939     1.48182782E-04   3.78525580E+19   2.11470406E+06   2.10197257E+05   7.24122259E+06   0.29944977      
  55               4.38052539E-01   4.13407631E+00   709.11990855     1.65304096E-04   4.22264576E+19   2.08264654E+06   2.42258613E+05   7.12191669E+06   0.29925077      
  56               5.18246648E-01   4.83485869E+00   744.14271965     1.84224984E-04   4.70601588E+19   2.03909284E+06   2.85808029E+05   6.99492704E+06   0.299115        
  57               6.13121862E-01   5.66589757E+00   779.23020921     2.06167453E-04   5.26658112E+19   1.99527422E+06   3.29631219E+05   6.86008096E+06   0.29887722      
  58               7.25365844E-01   6.64788022E+00   818.44774396     2.30306780E-04   5.88326037E+19   1.96065279E+06   3.64249217E+05   6.71757218E+06   0.29863015      
  59               8.58158289E-01   7.80009126E+00   857.28467820     2.57980776E-04   6.59022833E+19   1.95026788E+06   3.74635949E+05   6.56809111E+06   0.29823708      
  60               1.01526100E+00   9.14183447E+00   900.02020201     2.87999953E-04   7.35710468E+19   1.97030625E+06   3.54596444E+05   6.41242989E+06   0.29790773      
  61               1.20112443E+00   1.06871793E+01   941.60350704     3.21813921E-04   8.22092842E+19   2.02315970E+06   3.01745162E+05   6.25191050E+06   0.29735508      
  62               1.42101382E+00   1.24469482E+01   986.52187084     3.57738319E-04   9.13864911E+19   2.10378857E+06   2.21112641E+05   6.08790020E+06   0.29682744      
  63               1.68115827E+00   1.44305143E+01   1029.39010615    3.97479592E-04   1.01537779E+20   2.21009954E+06   1.14809818E+05   5.92155607E+06   0.2959718       
  64               1.98892727E+00   1.66506377E+01   1075.24670109    4.39075647E-04   1.12162735E+20   2.32489635E+06   0.00000000E+00   5.75350129E+06   0.29513075      
  65               2.35303941E+00   1.91267046E+01   1118.53995823    4.84850386E-04   1.23855269E+20   2.32503155E+06   0.00000000E+00   5.58379827E+06   0.2939845       
  66               2.78380943E+00   2.18853950E+01   1157.31043024    5.36194276E-04   1.36971548E+20   2.32456128E+06   0.00000000E+00   5.41270285E+06   0.29287145      
  67               3.29344035E+00   2.49544858E+01   1195.60884568    5.91801043E-04   1.51176868E+20   2.32521033E+06   0.00000000E+00   5.24041242E+06   0.29140724      
  68               3.89636920E+00   2.83593285E+01   1231.24743690    6.53078186E-04   1.66830881E+20   2.32448155E+06   0.00000000E+00   5.06722074E+06   0.29009398      
  69               4.60967600E+00   3.21285715E+01   1267.73901715    7.18578528E-04   1.83563952E+20   2.32541516E+06   0.00000000E+00   4.89322648E+06   0.28839595      
  70               5.45356761E+00   3.63094486E+01   1302.85727369    7.90192874E-04   2.01859248E+20   2.32439255E+06   0.00000000E+00   4.71777206E+06   0.28689107      
  71               6.45195012E+00   4.09449032E+01   1339.54611104    8.66661689E-04   2.21395108E+20   2.32560093E+06   0.00000000E+00   4.54063817E+06   0.28499072      
  72               7.63310614E+00   4.60695572E+01   1375.69513024    9.49501361E-04   2.42559159E+20   2.32433330E+06   0.00000000E+00   4.36199238E+06   0.28349883      
  73               9.03049593E+00   5.17200289E+01   1413.76460614    1.03724404E-03   2.64976582E+20   2.32563136E+06   0.00000000E+00   4.18194061E+06   0.28174791      
  74               1.06837053E+01   5.79384662E+01   1451.89319560    1.13142572E-03   2.89040143E+20   2.32448233E+06   0.00000000E+00   4.00041873E+06   0.28030858      
  75               1.26395671E+01   6.47670901E+01   1492.16112391    1.23062522E-03   3.14386945E+20   2.32545716E+06   0.00000000E+00   3.81741554E+06   0.27857752      
  76               1.49534878E+01   7.22759811E+01   1532.83269294    1.33684166E-03   3.41527029E+20   2.32474938E+06   0.00000000E+00   3.63228636E+06   0.27712337      
  77               1.76910170E+01   8.05138016E+01   1575.74545958    1.44862847E-03   3.70092350E+20   2.32519885E+06   0.00000000E+00   3.44509060E+06   0.27533286      
  78               2.09297047E+01   8.94962497E+01   1619.23075381    1.56696686E-03   4.00333499E+20   2.32497979E+06   0.00000000E+00   3.25655684E+06   0.27376785      
  79               2.47612977E+01   9.91905350E+01   1665.09401403    1.68909660E-03   4.31476664E+20   2.30007129E+06   2.48279025E+04   3.06811502E+06   0.27190926      
  80               2.92943389E+01   1.09537745E+02   1710.68961797    1.81583253E-03   4.63786836E+20   2.17453501E+06   1.50364693E+05   2.88127192E+06   0.27030021      
  81               3.46572422E+01   1.20496721E+02   1755.01359234    1.94733320E-03   4.97302433E+20   2.02541410E+06   2.99486787E+05   2.69696966E+06   0.26853157      
  82               4.10019301E+01   1.32003095E+02   1798.57164193    2.08160645E-03   5.31596622E+20   1.87861354E+06   4.46289744E+05   2.51624313E+06   0.26698253      
  83               4.85081376E+01   1.44162688E+02   1841.07917470    2.22092035E-03   5.67160852E+20   1.73485192E+06   5.90053307E+05   2.33740652E+06   0.26520731      
  84               5.73885036E+01   1.56896986E+02   1882.89623265    2.36366659E-03   6.03551112E+20   1.58344230E+06   7.41466486E+05   2.16164644E+06   0.26381374      
  85               6.78945948E+01   1.70038119E+02   1923.03056302    2.50876585E-03   6.40451055E+20   1.43409201E+06   8.90825707E+05   1.99099228E+06   0.26211813      
  86               8.03240320E+01   1.83680606E+02   1962.31193096    2.65722731E-03   6.77986581E+20   1.29147996E+06   1.03344628E+06   1.82389726E+06   0.26079395      
  87               9.50289215E+01   1.97528326E+02   1999.67526747    2.80551435E-03   7.15477117E+20   1.14020080E+06   1.18475178E+06   1.66350934E+06   0.25930141      
  88               1.12425830E+02   2.11137201E+02   2034.49285343    2.94847896E-03   7.51682485E+20   1.00745778E+06   1.31755582E+06   1.51387619E+06   0.25797233      
  89               1.33007583E+02   2.24866523E+02   2067.67438125    3.08981341E-03   7.87713879E+20   9.12949404E+05   1.41211391E+06   1.37003392E+06   0.25675414      
  90               1.57357229E+02   2.39323894E+02   2101.01461280    3.23616559E-03   8.25054859E+20   8.29901739E+05   1.49530295E+06   1.22545388E+06   0.25556073      
  91               1.86164557E+02   2.53915706E+02   2132.88164680    3.38241798E-03   8.62280663E+20   7.23511066E+05   1.60201032E+06   1.08598181E+06   0.25433882      
  92               2.20245630E+02   2.66985260E+02   2160.28220275    3.51166334E-03   8.95164060E+20   6.21793569E+05   1.70451430E+06   9.66060147E+05   0.25326788      
  93               2.60565913E+02   2.79372123E+02   2185.12223792    3.63310241E-03   9.26047303E+20   5.56246401E+05   1.77084442E+06   8.56393912E+05   0.25219842      
  94               3.08267614E+02   2.92114144E+02   2209.84952463    3.75619422E-03   9.57449161E+20   5.20255713E+05   1.81121577E+06   7.47318782E+05   0.25124368      
  95               3.64702046E+02   3.06519161E+02   2236.63168356    3.89410829E-03   9.92633654E+20   4.96567865E+05   1.83312797E+06   6.28212120E+05   0.25020874      
  96               4.31467909E+02   3.22776644E+02   2265.73512770    4.04779185E-03   1.03185531E+21   4.58092852E+05   1.87186990E+06   4.98720842E+05   0.24922138      
  97               5.10456573E+02   3.38715887E+02   2293.00599325    4.19816915E-03   1.06993210E+21   3.95933041E+05   1.93292019E+06   3.76443814E+05   0.24820732      
  98               6.03905660E+02   3.52158571E+02   2315.26313381    4.32401494E-03   1.10170101E+21   3.38080920E+05   1.98853217E+06   2.76666111E+05   0.24735815      
  99               7.14462436E+02   3.64482370E+02   2334.97005929    4.43884841E-03   1.13063142E+21   3.02784078E+05   2.02406130E+06   1.87707736E+05   0.24657453      
  100              8.45258798E+02   3.77081063E+02   2354.63042789    4.55395281E-03   1.15994611E+21   2.84759436E+05   2.04008548E+06   9.90939808E+04   0.24590661      
  101              1.00000000E+03   3.91555549E+02   2376.47451871    4.68514425E-03   1.19340008E+21   2.78869975E+05   2.04599043E+06   0.00000000E+00   0.24515501      
