# ATMO pressure-temperature profile
# Effective temperature = 900.0K
# log(g) = 3.5cm/s^2
# M/H = 0.0
# Optical depth grid in band 17 (1.20-1.33microns)
# All parameters in cgs units
#
# Model Level      Optical Depth    Pressure         Temperature      Density          Number Density   Rad Flux         Conv Flux        Radial Extension Adiabatic Gradient
#                                   [Ba]             [K]              [g/cm^3]         [/cm^3]          [ergs/s/cm^2/sr] [ergs/s/cm^2/sr] [cm]             [K/Ba]          
  1                5.00000000E-05   1.00000000E-05   264.78796789     1.07077921E-09   2.73544252E+14   3.72003208E+07   0.00000000E+00   1.48795720E+08   0.306665        
  2                5.91534807E-05   2.90733628E-05   317.84197403     2.59326878E-09   6.62536574E+14   3.72003208E+07   0.00000000E+00   1.45175415E+08   0.30222151      
  3                6.99826855E-05   5.67459427E-05   329.08365124     4.88870055E-09   1.24897673E+15   3.72003208E+07   0.00000000E+00   1.42717712E+08   0.30107796      
  4                8.27943887E-05   9.07599481E-05   348.62466951     7.38066859E-09   1.88565381E+15   3.72003208E+07   0.00000000E+00   1.40927041E+08   0.30032128      
  5                9.79515255E-05   1.31892167E-04   353.06103215     1.05908410E-08   2.70579605E+15   3.72003208E+07   0.00000000E+00   1.39455849E+08   0.29983817      
  6                1.15883473E-04   1.80906887E-04   368.31782614     1.39248436E-08   3.55760889E+15   3.72003209E+07   0.00000000E+00   1.38179507E+08   0.30119248      
  7                1.37098216E-04   2.39257214E-04   370.84549809     1.82908073E-08   4.67302248E+15   3.72003209E+07   0.00000000E+00   1.37023309E+08   0.30096769      
  8                1.62196734E-04   3.08320932E-04   384.36615910     2.27413568E-08   5.81010132E+15   3.72003209E+07   0.00000000E+00   1.35952465E+08   0.30075051      
  9                1.91890027E-04   3.90015809E-04   385.86105825     2.86557073E-08   7.32111283E+15   3.72003209E+07   0.00000000E+00   1.34940463E+08   0.30060014      
  10               2.27019260E-04   4.86355033E-04   398.53142684     3.45978012E-08   8.83927569E+15   3.72003209E+07   0.00000000E+00   1.33972913E+08   0.30045155      
  11               2.68579588E-04   5.99970232E-04   399.41932168     4.25858284E-08   1.08799393E+16   3.72003207E+07   0.00000000E+00   1.33036901E+08   0.30034744      
  12               3.17748350E-04   7.33743927E-04   411.80993447     5.05138557E-08   1.29054615E+16   3.72003210E+07   0.00000000E+00   1.32124821E+08   0.30023773      
  13               3.75918418E-04   8.91285163E-04   412.54549310     6.12503832E-08   1.56484263E+16   3.72003206E+07   0.00000000E+00   1.31229178E+08   0.30016342      
  14               4.44737657E-04   1.07667245E-03   425.10166749     7.18047857E-08   1.83449542E+16   3.72003211E+07   0.00000000E+00   1.30345184E+08   0.300074        
  15               5.26155608E-04   1.29493728E-03   425.84260673     8.62111091E-08   2.20254841E+16   3.72003205E+07   0.00000000E+00   1.29467930E+08   0.3000124       
  16               6.22478712E-04   1.55172774E-03   438.69892898     1.00279340E-07   2.56197442E+16   3.72003209E+07   0.00000000E+00   1.28594572E+08   0.29993809      
  17               7.36435649E-04   1.85436226E-03   439.83271494     1.19533790E-07   3.05374585E+16   3.72003210E+07   0.00000000E+00   1.27720450E+08   0.29988695      
  18               8.71254639E-04   2.21058580E-03   453.06028333     1.38337793E-07   3.53408689E+16   3.72003261E+07   0.00000000E+00   1.26844443E+08   0.29982223      
  19               1.03075489E-03   2.62963306E-03   454.61040011     1.64000807E-07   4.18968744E+16   3.72003209E+07   0.00000000E+00   1.25964672E+08   0.29977499      
  20               1.21945479E-03   3.12185937E-03   467.37303485     1.89382068E-07   4.83810760E+16   3.72003241E+07   0.00000000E+00   1.25081445E+08   0.299716        
  21               1.44269991E-03   3.70007041E-03   469.16308562     2.23602156E-07   5.71231297E+16   3.72003213E+07   0.00000000E+00   1.24192901E+08   0.29967319      
  22               1.70681442E-03   4.37872588E-03   482.31467386     2.57398596E-07   6.57571714E+16   3.72003247E+07   0.00000000E+00   1.23298343E+08   0.29961808      
  23               2.01928028E-03   5.17526153E-03   484.50794342     3.02845318E-07   7.73672642E+16   3.72003210E+07   0.00000000E+00   1.22396166E+08   0.29957658      
  24               2.38894914E-03   6.10940959E-03   498.25158718     3.47647523E-07   8.88129695E+16   3.72003255E+07   0.00000000E+00   1.21485758E+08   0.29952407      
  25               2.82629313E-03   7.20493182E-03   501.17190563     4.07598151E-07   1.04128353E+17   3.72003202E+07   0.00000000E+00   1.20565445E+08   0.29948407      
  26               3.34370152E-03   8.48866422E-03   515.80358328     4.66598377E-07   1.19201258E+17   3.72003269E+07   0.00000000E+00   1.19634580E+08   0.29943037      
  27               3.95583167E-03   9.99288388E-03   519.62986835     5.45236978E-07   1.39290845E+17   3.72003192E+07   0.00000000E+00   1.18691503E+08   0.29938912      
  28               4.68002425E-03   1.17542144E-02   535.32174707     6.22538944E-07   1.59039338E+17   3.72003285E+07   0.00000000E+00   1.17735487E+08   0.29932869      
  29               5.53679448E-03   1.38160657E-02   540.44315953     7.24807016E-07   1.85165557E+17   3.72003179E+07   0.00000000E+00   1.16764837E+08   0.29934921      
  30               6.55041330E-03   1.62272048E-02   557.44954920     8.25325909E-07   2.10845331E+17   3.72003300E+07   0.00000000E+00   1.15779015E+08   0.29925962      
  31               7.74959494E-03   1.90443292E-02   563.98532959     9.57382139E-07   2.44581561E+17   3.72003174E+07   0.00000000E+00   1.14776823E+08   0.29914783      
  32               9.16831029E-03   2.23306497E-02   582.48672906     1.08693148E-06   2.77677803E+17   3.72003305E+07   0.00000000E+00   1.13758077E+08   0.29904876      
  33               1.08467493E-02   2.61583421E-02   590.77017349     1.25538961E-06   3.20713687E+17   3.72003170E+07   0.00000000E+00   1.12721869E+08   0.29899572      
  34               1.28324595E-02   3.06074077E-02   611.11614929     1.42000259E-06   3.62767713E+17   3.72003308E+07   0.00000000E+00   1.11668125E+08   0.2989222       
  35               1.51816929E-02   3.57670086E-02   621.40298069     1.63190774E-06   4.16903102E+17   3.72003169E+07   0.00000000E+00   1.10596301E+08   0.29883557      
  36               1.79609996E-02   4.17387178E-02   643.83808929     1.83801209E-06   4.69556955E+17   3.72003300E+07   0.00000000E+00   1.09505924E+08   0.29868813      
  37               2.12491128E-02   4.86381394E-02   656.59353869     2.10022673E-06   5.36545044E+17   3.72003182E+07   0.00000000E+00   1.08395457E+08   0.29853623      
  38               2.51391797E-02   5.65924422E-02   681.56460900     2.35416730E-06   6.01419139E+17   3.72003292E+07   0.00000000E+00   1.07264228E+08   0.29833728      
  39               2.97413996E-02   6.57371042E-02   697.13837983     2.67348206E-06   6.82994829E+17   3.72003213E+07   0.00000000E+00   1.06111544E+08   0.29814426      
  40               3.51861462E-02   7.62176210E-02   724.98489186     2.98067817E-06   7.61469078E+17   3.72003307E+07   0.00000000E+00   1.04937492E+08   0.29784783      
  41               4.16276604E-02   8.81802402E-02   743.84653304     3.36106023E-06   8.58645254E+17   3.72003283E+07   0.00000000E+00   1.03742319E+08   0.29752916      
  42               4.92484201E-02   1.01783332E-01   774.96526681     3.72378509E-06   9.51306066E+17   3.72003377E+07   0.00000000E+00   1.02526391E+08   0.29708693      
  43               5.82643093E-02   1.17218959E-01   797.41780632     4.16774781E-06   1.06472578E+18   3.72003438E+07   0.00000000E+00   1.01287361E+08   0.29664721      
  44               6.89307339E-02   1.34731589E-01   832.00988235     4.59121823E-06   1.17291566E+18   3.72003579E+07   0.00000000E+00   1.00021346E+08   0.29608137      
  45               8.15498567E-02   1.54589714E-01   858.10969968     5.10765274E-06   1.30485911E+18   3.72003746E+07   0.00000000E+00   9.87245679E+07   0.29551667      
  46               9.64791575E-02   1.77247801E-01   896.50433150     5.60532925E-06   1.43203721E+18   3.72003975E+07   0.00000000E+00   9.73854370E+07   0.29471968      
  47               1.14141560E-01   2.03335657E-01   927.04948530     6.21838173E-06   1.58868014E+18   3.72004245E+07   0.00000000E+00   9.59880696E+07   0.29384507      
  48               1.35037411E-01   2.34400931E-01   970.45566556     6.84698065E-06   1.74948197E+18   3.72004529E+07   0.00000000E+00   9.44824256E+07   0.29275774      
  49               1.59758657E-01   2.72772303E-01   1006.54599507    7.68120584E-06   1.96287428E+18   3.72004771E+07   0.00000000E+00   9.28091534E+07   0.29169049      
  50               1.89005613E-01   3.22787911E-01   1055.90460641    8.66307761E-06   2.21420800E+18   3.72004949E+07   0.00000000E+00   9.08700530E+07   0.29039017      
  51               2.23606798E-01   3.89229983E-01   1096.40803895    1.00591599E-05   2.57134243E+18   3.72004876E+07   0.00000000E+00   8.86192221E+07   0.28905917      
  52               2.64542408E-01   4.77059518E-01   1147.16784365    1.17819635E-05   3.01211425E+18   3.72004583E+07   0.00000000E+00   8.60678657E+07   0.28754277      
  53               3.12972084E-01   5.89972501E-01   1186.53117391    1.40863931E-05   3.60145885E+18   3.72003884E+07   0.00000000E+00   8.32962069E+07   0.28599266      
  54               3.70267763E-01   7.30606445E-01   1235.78990623    1.67478042E-05   4.28217780E+18   3.72003033E+07   0.00000000E+00   8.04007432E+07   0.28422695      
  55               4.38052539E-01   9.01310068E-01   1273.91196308    2.00420501E-05   5.12460795E+18   3.72002417E+07   0.00000000E+00   7.74543268E+07   0.28252164      
  56               5.18246648E-01   1.10370009E+00   1322.54897300    2.36391105E-05   6.04456643E+18   3.72001899E+07   0.00000000E+00   7.45139338E+07   0.2807866       
  57               6.13121862E-01   1.33974824E+00   1359.99934082    2.79042506E-05   7.13526876E+18   3.72001666E+07   0.00000000E+00   7.16075666E+07   0.27927405      
  58               7.25365844E-01   1.61039093E+00   1408.20079819    3.23925779E-05   8.28309362E+18   3.72001265E+07   0.00000000E+00   6.87608766E+07   0.27776137      
  59               8.58158289E-01   1.91767996E+00   1445.21060279    3.75856556E-05   9.61104987E+18   3.72001176E+07   0.00000000E+00   6.59759486E+07   0.27629583      
  60               1.01526100E+00   2.26176601E+00   1493.49458954    4.29003766E-05   1.09690713E+19   3.72000743E+07   0.00000000E+00   6.32661610E+07   0.27466262      
  61               1.20112443E+00   2.64357080E+00   1530.88077386    4.89176088E-05   1.25076413E+19   3.72001123E+07   0.00000000E+00   6.06305605E+07   0.27318206      
  62               1.42101382E+00   3.05325657E+00   1580.42233274    5.47498251E-05   1.39931659E+19   3.72000189E+07   0.00000000E+00   5.81270298E+07   0.27157702      
  63               1.68115827E+00   3.48192058E+00   1619.83076588    6.09202166E-05   1.55695140E+19   3.72001361E+07   0.00000000E+00   5.57798441E+07   0.27010234      
  64               1.98892727E+00   3.91704776E+00   1672.17117857    6.63995835E-05   1.69669575E+19   3.70811179E+07   1.19049106E+05   5.36163297E+07   0.26848236      
  65               2.35303941E+00   4.31688581E+00   1716.06204237    7.13434475E-05   1.82206311E+19   3.37755320E+07   3.42648329E+06   5.17791822E+07   0.26694058      
  66               2.78380943E+00   4.64863650E+00   1750.38112438    7.53686756E-05   1.92361789E+19   3.00400161E+07   7.16014552E+06   5.03484670E+07   0.26516281      
  67               3.29344035E+00   4.98955558E+00   1783.24054578    7.94450756E-05   2.02664543E+19   2.64916862E+07   1.07102372E+07   4.89552188E+07   0.26347002      
  68               3.89636920E+00   5.27388582E+00   1809.55872020    8.27744988E-05   2.11097885E+19   2.33946208E+07   1.38070030E+07   4.78463967E+07   0.26207006      
  69               4.60967600E+00   5.49238516E+00   1828.68328052    8.53013442E-05   2.17544611E+19   2.12986871E+07   1.59028406E+07   4.70241086E+07   0.26091558      
  70               5.45356761E+00   5.73875947E+00   1849.88789679    8.81048136E-05   2.24697609E+19   1.98376214E+07   1.73634360E+07   4.61254024E+07   0.25997329      
  71               6.45195012E+00   6.01545379E+00   1872.44837755    9.12384710E-05   2.32693569E+19   1.84510031E+07   1.87499358E+07   4.51494883E+07   0.25907164      
  72               7.63310614E+00   6.32489646E+00   1897.08999178    9.46801523E-05   2.41485649E+19   1.65082247E+07   2.06924999E+07   4.40966494E+07   0.25817865      
  73               9.03049593E+00   6.55095463E+00   1914.13376229    9.72777203E-05   2.47889509E+19   1.43967436E+07   2.28041309E+07   4.33516770E+07   0.25730874      
  74               1.06837053E+01   6.70918290E+00   1926.10318055    9.90069839E-05   2.52299229E+19   1.30529028E+07   2.41478463E+07   4.28418246E+07   0.25654407      
  75               1.26395671E+01   6.89055189E+00   1939.11503309    1.00999642E-04   2.57380876E+19   1.22820734E+07   2.49184598E+07   4.22682759E+07   0.25591039      
  76               1.49534878E+01   7.09762412E+00   1954.04783123    1.03238038E-04   2.63089579E+19   1.16556344E+07   2.55448412E+07   4.16270041E+07   0.2552131       
  77               1.76910170E+01   7.33310255E+00   1970.16819443    1.05788216E-04   2.69594045E+19   1.10773872E+07   2.61231299E+07   4.09144584E+07   0.25456167      
  78               2.09297047E+01   7.60016422E+00   1988.37643208    1.08634140E-04   2.76853622E+19   1.05049364E+07   2.66956863E+07   4.01266694E+07   0.25387582      
  79               2.47612977E+01   7.90072218E+00   2007.81632268    1.11833665E-04   2.85015612E+19   9.90155088E+06   2.72992526E+07   3.92643682E+07   0.25312161      
  80               2.92943389E+01   8.23822489E+00   2029.36895901    1.15368285E-04   2.94034621E+19   9.38283685E+06   2.78182247E+07   3.83247574E+07   0.25225224      
  81               3.46572422E+01   8.61796865E+00   2052.31481515    1.19331757E-04   3.04149264E+19   8.90598024E+06   2.82953842E+07   3.73013002E+07   0.25130191      
  82               4.10019301E+01   9.04386503E+00   2077.51597059    1.23703474E-04   3.15308400E+19   8.43926594E+06   2.87625005E+07   3.61928011E+07   0.25021213      
  83               4.85081376E+01   9.52006591E+00   2104.08086788    1.28565024E-04   3.27720318E+19   7.95719251E+06   2.92451103E+07   3.49987079E+07   0.24902023      
  84               5.73885036E+01   1.00509971E+01   2132.86683276    1.33893022E-04   3.41327473E+19   7.48322055E+06   2.97197187E+07   3.37190368E+07   0.24766016      
  85               6.78945948E+01   1.06413953E+01   2162.91508780    1.39776218E-04   3.56356716E+19   7.00026755E+06   3.02034073E+07   3.23542962E+07   0.24620907      
  86               8.03240320E+01   1.12963536E+01   2195.09973470    1.46188003E-04   3.72743313E+19   6.53124247E+06   3.06733352E+07   3.09053845E+07   0.24460598      
  87               9.50289215E+01   1.20213679E+01   2228.40026357    1.53226639E-04   3.90738789E+19   6.06015753E+06   3.11455884E+07   2.93735054E+07   0.24287839      
  88               1.12425830E+02   1.28223975E+01   2263.70917393    1.60863368E-04   4.10274425E+19   5.60613710E+06   3.16012597E+07   2.77600610E+07   0.24092512      
  89               1.33007583E+02   1.37059253E+01   2299.93467951    1.69209689E-04   4.31637033E+19   5.14940784E+06   3.20600829E+07   2.60665800E+07   0.23880828      
  90               1.57357229E+02   1.46785704E+01   2337.99012817    1.78249276E-04   4.54743947E+19   4.71218553E+06   3.24998715E+07   2.42954826E+07   0.2364891       
  91               1.86164557E+02   1.57481361E+01   2376.73755747    1.88075554E-04   4.79925440E+19   4.30088734E+06   3.29141720E+07   2.24482176E+07   0.23405011      
  92               2.20245630E+02   1.69235490E+01   2417.18154161    1.98676351E-04   5.07116819E+19   3.92520024E+06   3.32936591E+07   2.05253328E+07   0.23141321      
  93               2.60565913E+02   1.82140850E+01   2458.11378721    2.10200214E-04   5.36699532E+19   3.56509532E+06   3.36581981E+07   1.85283112E+07   0.22868098      
  94               3.08267614E+02   1.96299632E+01   2500.59410233    2.22610403E-04   5.68593802E+19   3.22975734E+06   3.39989731E+07   1.64584595E+07   0.22577918      
  95               3.64702046E+02   2.11825804E+01   2543.35574078    2.36082447E-04   6.03250366E+19   2.91395399E+06   3.43211099E+07   1.43167394E+07   0.22280934      
  96               4.31467909E+02   2.28844429E+01   2587.54182545    2.50576817E-04   6.40588010E+19   2.62653564E+06   3.46164894E+07   1.21040246E+07   0.21967335      
  97               5.10456573E+02   2.47493391E+01   2631.80726853    2.66300782E-04   6.81138399E+19   2.35907295E+06   3.48930694E+07   9.82104795E+06   0.21650041      
  98               6.03905660E+02   2.67924167E+01   2677.39150354    2.83208856E-04   7.24812789E+19   2.11674215E+06   3.51463177E+07   7.46844236E+06   0.21321465      
  99               7.14462436E+02   2.90302351E+01   2722.87332888    3.01544369E-04   7.72234063E+19   1.89296141E+06   3.53824179E+07   5.04685654E+06   0.20992848      
  100              8.45258798E+02   3.14807620E+01   2769.58193739    3.21251700E-04   8.23297614E+19   1.69302162E+06   3.55976733E+07   2.55704969E+06   0.20650136      
  101              1.00000000E+03   3.41633995E+01   2815.98009777    3.42617400E-04   8.78733814E+19   1.58425861E+06   3.57234452E+07   0.00000000E+00   0.20315473      
