# ATMO pressure-temperature profile
# Effective temperature = 1200.0K
# log(g) = 3.5cm/s^2
# M/H = 0.0
# Optical depth grid in band 17 (1.20-1.33microns)
# All parameters in cgs units
#
# Model Level      Optical Depth    Pressure         Temperature      Density          Number Density   Rad Flux         Conv Flux        Radial Extension Adiabatic Gradient
#                                   [Ba]             [K]              [g/cm^3]         [/cm^3]          [ergs/s/cm^2/sr] [ergs/s/cm^2/sr] [cm]             [K/Ba]          
  1                3.00000000E-06   1.00000000E-05   395.23219950     7.17335877E-10   1.83262464E+14   1.17570621E+08   0.00000000E+00   1.87891925E+08   0.29785581      
  2                3.65048058E-06   1.21926740E-05   436.11166921     7.92655932E-10   2.02500964E+14   1.17570621E+08   0.00000000E+00   1.86972382E+08   0.29746153      
  3                4.44200282E-06   1.47078440E-05   461.10236204     9.04346972E-10   2.31034857E+14   1.17570621E+08   0.00000000E+00   1.86032967E+08   0.29742835      
  4                5.40514834E-06   1.76731853E-05   472.10503752     1.06135239E-09   2.71145272E+14   1.17570621E+08   0.00000000E+00   1.85075823E+08   0.29744657      
  5                6.57712968E-06   2.11963166E-05   488.40120989     1.23045863E-09   3.14347135E+14   1.17570621E+08   0.00000000E+00   1.84100910E+08   0.29749706      
  6                8.00322805E-06   2.53928910E-05   496.02204241     1.45142466E-09   3.70797684E+14   1.17570621E+08   0.00000000E+00   1.83107876E+08   0.29753005      
  7                9.73854285E-06   3.04027462E-05   509.80358616     1.69080346E-09   4.31952277E+14   1.17570621E+08   0.00000000E+00   1.82096573E+08   0.29759392      
  8                1.18501205E-05   3.63893444E-05   516.11820054     1.99897888E-09   5.10682407E+14   1.17570621E+08   0.00000000E+00   1.81066828E+08   0.297627        
  9                1.44195449E-05   4.35557064E-05   528.54803822     2.33637985E-09   5.96879188E+14   1.17570621E+08   0.00000000E+00   1.80018196E+08   0.29768885      
  10               1.75460896E-05   5.21412883E-05   534.06801730     2.76801206E-09   7.07149155E+14   1.17570621E+08   0.00000000E+00   1.78950583E+08   0.29771763      
  11               2.13505531E-05   6.24390938E-05   545.68188200     3.24413779E-09   8.28786936E+14   1.17570621E+08   0.00000000E+00   1.77863879E+08   0.29777119      
  12               2.59799264E-05   7.47958705E-05   550.67640034     3.85090984E-09   9.83800403E+14   1.17570621E+08   0.00000000E+00   1.76758340E+08   0.29779395      
  13               3.16130723E-05   8.96360512E-05   561.78741978     4.52368117E-09   1.15567720E+15   1.17570621E+08   0.00000000E+00   1.75633963E+08   0.29783571      
  14               3.84676354E-05   1.07461969E-04   566.42005190     5.37894897E-09   1.37417490E+15   1.17570621E+08   0.00000000E+00   1.74491198E+08   0.29878741      
  15               4.68084520E-05   1.28888999E-04   577.24780436     6.33043690E-09   1.61725834E+15   1.17570621E+08   0.00000000E+00   1.73330025E+08   0.29871694      
  16               5.69577817E-05   1.54643536E-04   581.68308855     7.53746895E-09   1.92562259E+15   1.17570621E+08   0.00000000E+00   1.72150997E+08   0.29868693      
  17               6.93077586E-05   1.85616067E-04   592.47176698     8.88231560E-09   2.26920507E+15   1.17570621E+08   0.00000000E+00   1.70953976E+08   0.29861072      
  18               8.43355422E-05   2.22854279E-04   596.89965487     1.05851770E-08   2.70424160E+15   1.17570621E+08   0.00000000E+00   1.69739535E+08   0.29857739      
  19               1.02621753E-04   2.67647491E-04   607.82609908     1.24841975E-08   3.18940501E+15   1.17570621E+08   0.00000000E+00   1.68507327E+08   0.29849296      
  20               1.24872905E-04   3.21508432E-04   612.30207808     1.48868847E-08   3.80322898E+15   1.17570621E+08   0.00000000E+00   1.67257956E+08   0.29845656      
  21               1.51948705E-04   3.86308657E-04   623.38293608     1.75692543E-08   4.48854279E+15   1.17570621E+08   0.00000000E+00   1.65990891E+08   0.29836361      
  22               1.84895266E-04   4.64252878E-04   627.89303287     2.09625116E-08   5.35543534E+15   1.17570621E+08   0.00000000E+00   1.64706534E+08   0.2983229       
  23               2.24985526E-04   5.58093639E-04   639.12141796     2.47569099E-08   6.32483995E+15   1.17570621E+08   0.00000000E+00   1.63403898E+08   0.298219        
  24               2.73768430E-04   6.71041934E-04   643.70411302     2.95554186E-08   7.55073478E+15   1.17570621E+08   0.00000000E+00   1.62083475E+08   0.29817382      
  25               3.33128779E-04   8.07102532E-04   655.20053835     3.49239240E-08   8.92237154E+15   1.17570621E+08   0.00000000E+00   1.60744250E+08   0.29805892      
  26               4.05360046E-04   9.70932632E-04   660.03602439     4.17052945E-08   1.06548490E+16   1.17570621E+08   0.00000000E+00   1.59386760E+08   0.29800652      
  27               4.93252992E-04   1.16837309E-03   671.94102988     4.92965257E-08   1.25943636E+16   1.17570621E+08   0.00000000E+00   1.58009758E+08   0.29787544      
  28               6.00203489E-04   1.40619062E-03   677.19084744     5.88708676E-08   1.50403851E+16   1.17570620E+08   0.00000000E+00   1.56613758E+08   0.29781299      
  29               7.30343727E-04   1.69295215E-03   689.70757452     6.95887545E-08   1.77789263E+16   1.17570621E+08   0.00000000E+00   1.55196976E+08   0.29766348      
  30               8.88701864E-04   2.03854354E-03   695.61193557     8.30832660E-08   2.12265203E+16   1.17570620E+08   0.00000000E+00   1.53759712E+08   0.29758693      
  31               1.08139630E-03   2.45567051E-03   708.90432939     9.82048389E-08   2.50904416E+16   1.17570622E+08   0.00000000E+00   1.52299393E+08   0.29741189      
  32               1.31587206E-03   2.95891066E-03   715.64067706     1.17216285E-07   2.99476448E+16   1.17570620E+08   0.00000000E+00   1.50816141E+08   0.29731543      
  33               1.60118847E-03   3.56747015E-03   729.96154540     1.38547304E-07   3.53986097E+16   1.17570622E+08   0.00000000E+00   1.49306015E+08   0.29710908      
  34               1.94836913E-03   4.30333367E-03   737.82842758     1.65343366E-07   4.22450158E+16   1.17570620E+08   0.00000000E+00   1.47768551E+08   0.29698599      
  35               2.37082789E-03   5.19635723E-03   753.41591865     1.95516533E-07   4.99562750E+16   1.17570624E+08   0.00000000E+00   1.46197891E+08   0.2967372       
  36               2.88488706E-03   6.28100774E-03   762.75133675     2.33433208E-07   5.96447456E+16   1.17570619E+08   0.00000000E+00   1.44592366E+08   0.2965756       
  37               3.51040806E-03   7.60701268E-03   780.04569492     2.76430832E-07   7.06349978E+16   1.17570626E+08   0.00000000E+00   1.42941633E+08   0.29627137      
  38               4.27155881E-03   9.23276342E-03   791.22639199     3.30762707E-07   8.45194733E+16   1.17570620E+08   0.00000000E+00   1.41241422E+08   0.29605728      
  39               5.19774750E-03   1.12428341E-02   810.47159019     3.93182346E-07   1.00476349E+17   1.17570630E+08   0.00000000E+00   1.39478778E+08   0.29559815      
  40               6.32475876E-03   1.37383218E-02   823.82817996     4.72652127E-07   1.20787747E+17   1.17570620E+08   0.00000000E+00   1.37648199E+08   0.29535176      
  41               7.69613634E-03   1.68659121E-02   845.44582541     5.65376391E-07   1.44494025E+17   1.17570634E+08   0.00000000E+00   1.35734911E+08   0.29487852      
  42               9.36486541E-03   2.08030742E-02   861.28784833     6.84506271E-07   1.74946411E+17   1.17570620E+08   0.00000000E+00   1.33733542E+08   0.29452636      
  43               1.13954198E-02   2.57980003E-02   885.55640232     8.25540620E-07   2.11006414E+17   1.17570640E+08   0.00000000E+00   1.31632274E+08   0.29401801      
  44               1.38662528E-02   3.21618510E-02   904.47146163     1.00762048E-06   2.57556199E+17   1.17570615E+08   0.00000000E+00   1.29425773E+08   0.29357898      
  45               1.68728289E-02   4.03105524E-02   932.02668561     1.22547265E-06   3.13268150E+17   1.17570649E+08   0.00000000E+00   1.27106793E+08   0.29280544      
  46               2.05313114E-02   5.07756334E-02   954.47973438     1.50724466E-06   3.85313724E+17   1.17570609E+08   0.00000000E+00   1.24671782E+08   0.29209332      
  47               2.49830512E-02   6.42521329E-02   986.11935731     1.84595167E-06   4.71936867E+17   1.17570665E+08   0.00000000E+00   1.22116831E+08   0.29120554      
  48               3.04000477E-02   8.16277825E-02   1013.13386171    2.28253004E-06   5.83575442E+17   1.17570597E+08   0.00000000E+00   1.19439976E+08   0.29040299      
  49               3.69915946E-02   1.03923675E-01   1049.55601326    2.80497193E-06   7.17190809E+17   1.17570707E+08   0.00000000E+00   1.16653482E+08   0.28920635      
  50               4.50123658E-02   1.32363086E-01   1081.68409192    3.46634929E-06   8.86323533E+17   1.17570596E+08   0.00000000E+00   1.13769304E+08   0.28814889      
  51               5.47722558E-02   1.68114661E-01   1123.10080490    4.24008990E-06   1.08420821E+18   1.17570777E+08   0.00000000E+00   1.10820300E+08   0.28687819      
  52               6.66483519E-02   2.12397659E-01   1159.70545697    5.18777294E-06   1.32656295E+18   1.17570574E+08   0.00000000E+00   1.07834503E+08   0.28570932      
  53               8.10995048E-02   2.66289295E-01   1204.75995415    6.26068361E-06   1.60095463E+18   1.17570870E+08   0.00000000E+00   1.04844153E+08   0.28412105      
  54               9.86840557E-02   3.30924014E-01   1244.14294819    7.53392531E-06   1.92656577E+18   1.17570573E+08   0.00000000E+00   1.01868070E+08   0.28263253      
  55               1.20081410E-01   4.07124088E-01   1291.50456436    8.92870980E-06   2.28326696E+18   1.17570990E+08   0.00000000E+00   9.89300718E+07   0.28076863      
  56               1.46118284E-01   4.95797635E-01   1332.93621917    1.05353853E-05   2.69414473E+18   1.17570511E+08   0.00000000E+00   9.60388928E+07   0.27918193      
  57               1.77800653E-01   5.97652314E-01   1382.47075797    1.22447185E-05   3.13125539E+18   1.17571171E+08   0.00000000E+00   9.32030469E+07   0.27759389      
  58               2.16352610E-01   7.13547627E-01   1426.44742647    1.41685894E-05   3.62320608E+18   1.17570509E+08   0.00000000E+00   9.04205848E+07   0.27606298      
  59               2.63263667E-01   8.43755960E-01   1479.23531970    1.61572767E-05   4.13147782E+18   1.17571655E+08   0.00000000E+00   8.76991527E+07   0.27406156      
  60               3.20346302E-01   9.83960777E-01   1526.44266129    1.82673948E-05   4.66899202E+18   1.17568339E+08   0.00000000E+00   8.51182481E+07   0.27221737      
  61               3.89805984E-01   1.13153197E+00   1582.21818021    2.02682611E-05   5.17995870E+18   1.17572758E+08   0.00000000E+00   8.26929738E+07   0.26999433      
  62               4.74326391E-01   1.27900640E+00   1635.33371056    2.21716501E-05   5.66489894E+18   1.14258172E+08   3.36036718E+06   8.04929880E+07   0.26791641      
  63               5.77173093E-01   1.41690319E+00   1680.48969317    2.39197910E-05   6.10703155E+18   1.08451438E+08   9.19747917E+06   7.85993277E+07   0.26604545      
  64               7.02319722E-01   1.53851421E+00   1717.72107225    2.54313137E-05   6.48746022E+18   1.01951522E+08   1.56806946E+07   7.70400340E+07   0.26446421      
  65               8.54601502E-01   1.64586001E+00   1748.40425240    2.67349345E-05   6.81831211E+18   9.60619484E+07   2.15387318E+07   7.57381360E+07   0.26303137      
  66               1.03990206E+00   1.74056571E+00   1774.39384492    2.78586857E-05   7.10503530E+18   9.11778454E+07   2.64229612E+07   7.46407575E+07   0.26164973      
  67               1.26538076E+00   1.84899394E+00   1802.47057205    2.91313524E-05   7.43007408E+18   8.58365340E+07   3.17401361E+07   7.34371581E+07   0.26037397      
  68               1.53974930E+00   1.93432719E+00   1823.84221662    3.01458234E-05   7.68189757E+18   8.09065145E+07   3.66005748E+07   7.25264427E+07   0.25945191      
  69               1.87360830E+00   1.99725503E+00   1838.91105926    3.08709715E-05   7.86680959E+18   7.71021250E+07   4.03634732E+07   7.18741324E+07   0.25873686      
  70               2.27985690E+00   2.07073610E+00   1856.29002785    3.17064511E-05   8.07987725E+18   7.35036142E+07   4.39704022E+07   7.11314098E+07   0.25789858      
  71               2.77419111E+00   2.15603983E+00   1875.55779461    3.26726443E-05   8.32630217E+18   6.97679746E+07   4.77148625E+07   7.02932975E+07   0.25690988      
  72               3.37571026E+00   2.25449083E+00   1897.28947675    3.37721939E-05   8.60678026E+18   6.57825740E+07   5.17102489E+07   6.93560623E+07   0.25577641      
  73               4.10765492E+00   2.36737200E+00   1920.96459282    3.50247448E-05   8.92633097E+18   6.14325004E+07   5.60687482E+07   6.83181643E+07   0.25450615      
  74               4.99830483E+00   2.49542157E+00   1946.96547463    3.64244855E-05   9.28349513E+18   5.68492550E+07   6.06549076E+07   6.71844741E+07   0.2530805       
  75               6.08207157E+00   2.64012493E+00   1974.72671501    3.79926338E-05   9.68374435E+18   5.25292318E+07   6.49783815E+07   6.59543960E+07   0.25145122      
  76               7.40082804E+00   2.80490453E+00   2005.06241752    3.97502224E-05   1.01324863E+19   4.85786862E+07   6.89362199E+07   6.46135324E+07   0.24957857      
  77               9.00552635E+00   2.99182718E+00   2037.34547747    4.17235421E-05   1.06364735E+19   4.47353580E+07   7.27863146E+07   6.31620814E+07   0.24748734      
  78               1.09581663E+01   3.20314407E+00   2072.05026126    4.39172827E-05   1.11970090E+19   4.10051270E+07   7.65223654E+07   6.16009950E+07   0.24517893      
  79               1.33341911E+01   3.44132132E+00   2108.48995427    4.63608965E-05   1.18216890E+19   3.74026413E+07   8.01298897E+07   5.99317967E+07   0.24261572      
  80               1.62254019E+01   3.70909686E+00   2147.11684815    4.90608392E-05   1.25123342E+19   3.39826090E+07   8.35544844E+07   5.81562621E+07   0.23981289      
  81               1.97435049E+01   4.00951323E+00   2187.20684828    5.20514587E-05   1.32778462E+19   3.07485783E+07   8.67921498E+07   5.62763324E+07   0.23683495      
  82               2.40244270E+01   4.34594560E+00   2229.23841739    5.53410300E-05   1.41206148E+19   2.77031844E+07   8.98402373E+07   5.42940748E+07   0.23348815      
  83               2.92335681E+01   4.72215246E+00   2272.38303972    5.89719108E-05   1.50516567E+19   2.48332640E+07   9.27138726E+07   5.22115831E+07   0.2299115       
  84               3.55721908E+01   5.14231437E+00   2317.18022788    6.29542304E-05   1.60740253E+19   2.21120057E+07   9.54379338E+07   5.00309382E+07   0.22592795      
  85               4.32851972E+01   5.61072405E+00   2362.66067839    6.73443637E-05   1.72005921E+19   1.95465590E+07   9.80023059E+07   4.77559504E+07   0.22187682      
  86               5.26705906E+01   6.13253672E+00   2409.52683367    7.21393581E-05   1.84346217E+19   1.72381029E+07   1.00309566E+08   4.53884927E+07   0.21762419      
  87               6.40909893E+01   6.71380500E+00   2456.78684241    7.74129540E-05   1.97937046E+19   1.51396128E+07   1.02408090E+08   4.29287568E+07   0.21331104      
  88               7.79876373E+01   7.36088588E+00   2505.22895460    8.31769388E-05   2.12818071E+19   1.32506746E+07   1.04296613E+08   4.03786655E+07   0.2089886       
  89               9.48974517E+01   8.08099408E+00   2553.83214294    8.95085291E-05   2.29191380E+19   1.15571654E+07   1.05989555E+08   3.77394800E+07   0.20459751      
  90               1.15473768E+02   8.88202903E+00   2603.39999782    9.64248004E-05   2.47113873E+19   1.00827370E+07   1.07463001E+08   3.50128177E+07   0.20020088      
  91               1.40511583E+02   9.77265811E+00   2652.89686840    1.04015168E-04   2.66819876E+19   8.77377842E+06   1.08770950E+08   3.22005222E+07   0.19584829      
  92               1.70978268E+02   1.07623437E+01   2703.18226143    1.12298133E-04   2.88374840E+19   7.63143973E+06   1.09912851E+08   2.93047124E+07   0.19156725      
  93               2.08050949E+02   1.18613404E+01   2753.19396012    1.21376892E-04   3.12049004E+19   6.61632574E+06   1.10928707E+08   2.63279123E+07   0.18737332      
  94               2.53161982E+02   1.30807405E+01   2803.83273446    1.31269997E-04   3.37913907E+19   5.73360069E+06   1.11813647E+08   2.32729662E+07   0.18335124      
  95               3.08054300E+02   1.44324614E+01   2854.04564528    1.42093609E-04   3.66273358E+19   4.96229868E+06   1.12589013E+08   2.01431044E+07   0.17966363      
  96               3.74848746E+02   1.59293113E+01   2904.86676279    1.53858756E-04   3.97188460E+19   4.29961604E+06   1.13258099E+08   1.69417153E+07   0.17608429      
  97               4.56126023E+02   1.75850727E+01   2955.09034718    1.66705518E-04   4.31021808E+19   3.72294115E+06   1.13843749E+08   1.36722998E+07   0.17279088      
  98               5.55026396E+02   1.94144535E+01   3005.90243928    1.80633656E-04   4.67817139E+19   3.22700246E+06   1.14353102E+08   1.03385064E+07   0.16968742      
  99               6.75371026E+02   2.14328246E+01   3056.00360628    1.95803680E-04   5.07985583E+19   2.78790364E+06   1.14810499E+08   6.94459996E+06   0.16677692      
  100              8.21809604E+02   2.36552440E+01   3106.60191205    2.12194238E-04   5.51528127E+19   2.40571587E+06   1.15213262E+08   3.49667553E+06   0.16400989      
  101              1.00000000E+03   2.60978966E+01   3156.32560766    2.29983259E-04   5.98893428E+19   2.21009405E+06   1.15422868E+08   0.00000000E+00   0.16157764      
