# ATMO pressure-temperature profile
# Effective temperature = 1700.0K
# log(g) = 3.5cm/s^2
# M/H = 0.0
# Optical depth grid in band 17 (1.20-1.33microns)
# All parameters in cgs units
#
# Model Level      Optical Depth    Pressure         Temperature      Density          Number Density   Rad Flux         Conv Flux        Radial Extension Adiabatic Gradient
#                                   [Ba]             [K]              [g/cm^3]         [/cm^3]          [ergs/s/cm^2/sr] [ergs/s/cm^2/sr] [cm]             [K/Ba]          
  1                3.00000000E-06   1.00000000E-05   595.57725623     4.75680920E-10   1.21615165E+14   4.73555467E+08   0.00000000E+00   2.29883388E+08   0.29799798      
  2                3.65048058E-06   1.47092378E-05   634.80474557     6.56310098E-10   1.67832415E+14   4.73555467E+08   0.00000000E+00   2.27217582E+08   0.29792816      
  3                4.44200282E-06   2.18216743E-05   653.50456343     9.45777340E-10   2.41860689E+14   4.73555467E+08   0.00000000E+00   2.24362811E+08   0.29782139      
  4                5.40514834E-06   3.07437343E-05   671.21785745     1.29728611E-09   3.31756129E+14   4.73555467E+08   0.00000000E+00   2.21815663E+08   0.29762218      
  5                6.57712968E-06   4.16757424E-05   683.14862469     1.72786442E-09   4.41869460E+14   4.73555467E+08   0.00000000E+00   2.19506645E+08   0.29750752      
  6                8.00322805E-06   5.49435866E-05   697.27081578     2.23179545E-09   5.70744003E+14   4.73555467E+08   0.00000000E+00   2.17370067E+08   0.29726397      
  7                9.73854285E-06   7.10016988E-05   707.08643113     2.84403457E-09   7.27314216E+14   4.73555467E+08   0.00000000E+00   2.15354488E+08   0.29714278      
  8                1.18501205E-05   9.03878042E-05   719.92280744     3.55599764E-09   9.09389097E+14   4.73555467E+08   0.00000000E+00   2.13426773E+08   0.29685756      
  9                1.44195449E-05   1.13773817E-04   728.91868450     4.42079893E-09   1.13054820E+15   4.73555467E+08   0.00000000E+00   2.11561575E+08   0.29706799      
  10               1.75460896E-05   1.41946189E-04   741.25767751     5.42366094E-09   1.38701250E+15   4.73555467E+08   0.00000000E+00   2.09742179E+08   0.29683888      
  11               2.13505531E-05   1.75866293E-04   749.87831546     6.64247303E-09   1.69870378E+15   4.73555467E+08   0.00000000E+00   2.07955091E+08   0.29674356      
  12               2.59799264E-05   2.16662985E-04   761.97961134     8.05345270E-09   2.05952568E+15   4.73555467E+08   0.00000000E+00   2.06191210E+08   0.29649667      
  13               3.16130723E-05   2.65730022E-04   770.36039438     9.76983614E-09   2.49846066E+15   4.73555467E+08   0.00000000E+00   2.04441947E+08   0.29639717      
  14               3.84676354E-05   3.24713732E-04   782.37879254     1.17552991E-08   3.00614154E+15   4.73555467E+08   0.00000000E+00   2.02701453E+08   0.29613233      
  15               4.68084520E-05   3.95613921E-04   790.65728200     1.41720812E-08   3.62417475E+15   4.73555467E+08   0.00000000E+00   2.00964398E+08   0.29602682      
  16               5.69577817E-05   4.80819663E-04   802.73453341     1.69652308E-08   4.33846515E+15   4.73555467E+08   0.00000000E+00   1.99226708E+08   0.29573801      
  17               6.93077586E-05   5.83196955E-04   811.04187897     2.03667504E-08   5.20832178E+15   4.73555467E+08   0.00000000E+00   1.97485050E+08   0.29562678      
  18               8.43355422E-05   7.06146664E-04   823.30422751     2.42931376E-08   6.21241423E+15   4.73555467E+08   0.00000000E+00   1.95737116E+08   0.29531423      
  19               1.02621753E-04   8.53757389E-04   831.74419748     2.90732797E-08   7.43482131E+15   4.73555467E+08   0.00000000E+00   1.93980693E+08   0.29519501      
  20               1.24872905E-04   1.03087857E-03   844.29417530     3.45829791E-08   8.84381317E+15   4.73555467E+08   0.00000000E+00   1.92214280E+08   0.29485534      
  21               1.51948705E-04   1.24331905E-03   852.89936443     4.12889444E-08   1.05587045E+16   4.73555467E+08   0.00000000E+00   1.90436454E+08   0.29472653      
  22               1.84895266E-04   1.49796033E-03   865.75826249     4.90063178E-08   1.25322632E+16   4.73555467E+08   0.00000000E+00   1.88646319E+08   0.29435885      
  23               2.24985526E-04   1.80303009E-03   874.62352522     5.83889315E-08   1.49316451E+16   4.73555467E+08   0.00000000E+00   1.86842853E+08   0.29421846      
  24               2.73768430E-04   2.16826047E-03   887.90460815     6.91661042E-08   1.76876844E+16   4.73555467E+08   0.00000000E+00   1.85025434E+08   0.2938197       
  25               3.33128779E-04   2.60524652E-03   897.07553723     8.22561319E-08   2.10351518E+16   4.73555467E+08   0.00000000E+00   1.83193387E+08   0.29366553      
  26               4.05360046E-04   3.12767547E-03   910.83644505     9.72588782E-08   2.48717947E+16   4.73555467E+08   0.00000000E+00   1.81346337E+08   0.29323165      
  27               4.93252992E-04   3.75181880E-03   920.49135166     1.15443739E-07   2.95221500E+16   4.73555467E+08   0.00000000E+00   1.79483673E+08   0.29306026      
  28               6.00203489E-04   4.49713805E-03   934.90733161     1.36243379E-07   3.48412312E+16   4.73555467E+08   0.00000000E+00   1.77604359E+08   0.29258847      
  29               7.30343727E-04   5.38714275E-03   945.17163134     1.61434290E-07   4.12832278E+16   4.73555467E+08   0.00000000E+00   1.75706619E+08   0.29239436      
  30               8.88701864E-04   6.44962296E-03   960.38812031     1.90210745E-07   4.86422199E+16   4.73555467E+08   0.00000000E+00   1.73789251E+08   0.29187487      
  31               1.08139630E-03   7.71765849E-03   971.48685864     2.25007138E-07   5.75406106E+16   4.73555467E+08   0.00000000E+00   1.71850974E+08   0.29165079      
  32               1.31587206E-03   9.23014548E-03   987.74559176     2.64673598E-07   6.76845095E+16   4.73555467E+08   0.00000000E+00   1.69891055E+08   0.29112608      
  33               1.60118847E-03   1.10331011E-02   999.86265187     3.12539223E-07   7.99250823E+16   4.73555466E+08   0.00000000E+00   1.67908718E+08   0.2912495       
  34               1.94836913E-03   1.31802027E-02   1017.51834519    3.66882165E-07   9.38222148E+16   4.73555467E+08   0.00000000E+00   1.65903613E+08   0.29051378      
  35               2.37082789E-03   1.57344707E-02   1031.20319110    4.32170023E-07   1.10518181E+17   4.73555466E+08   0.00000000E+00   1.63875109E+08   0.29007635      
  36               2.88488706E-03   1.87685648E-02   1050.63630415    5.05970122E-07   1.29391128E+17   4.73555466E+08   0.00000000E+00   1.61823289E+08   0.2891718       
  37               3.51040806E-03   2.23666647E-02   1066.13664871    5.94202487E-07   1.51954720E+17   4.73555466E+08   0.00000000E+00   1.59748167E+08   0.28870247      
  38               4.27155881E-03   2.66238720E-02   1087.93045603    6.93131503E-07   1.77253950E+17   4.73555465E+08   0.00000000E+00   1.57650436E+08   0.28773623      
  39               5.19774750E-03   3.16478237E-02   1106.17990088    8.10332823E-07   2.07225849E+17   4.73555466E+08   0.00000000E+00   1.55530582E+08   0.2872243       
  40               6.32475876E-03   3.75570541E-02   1131.04493691    9.40494936E-07   2.40512415E+17   4.73555463E+08   0.00000000E+00   1.53390053E+08   0.28626664      
  41               7.69613634E-03   4.44912346E-02   1152.63355506    1.09327073E-06   2.79581891E+17   4.73555466E+08   0.00000000E+00   1.51227569E+08   0.28574088      
  42               9.36486541E-03   5.26090833E-02   1181.48308105    1.26118051E-06   3.22521794E+17   4.73555463E+08   0.00000000E+00   1.49041375E+08   0.28471597      
  43               1.13954198E-02   6.20836514E-02   1207.65822342    1.45605212E-06   3.72356593E+17   4.73555466E+08   0.00000000E+00   1.46830408E+08   0.28403103      
  44               1.38662528E-02   7.30973539E-02   1241.57269535    1.66752698E-06   4.26437455E+17   4.73555458E+08   0.00000000E+00   1.44595248E+08   0.28273296      
  45               1.68728289E-02   8.58364557E-02   1273.17002881    1.90953935E-06   4.88327531E+17   4.73555458E+08   0.00000000E+00   1.42337694E+08   0.28171803      
  46               2.05313114E-02   1.00477326E-01   1313.25727986    2.16701861E-06   5.54171375E+17   4.73555435E+08   0.00000000E+00   1.40061697E+08   0.27991314      
  47               2.49830512E-02   1.17162488E-01   1351.78712598    2.45487104E-06   6.27778040E+17   4.73555432E+08   0.00000000E+00   1.37774069E+08   0.27865101      
  48               3.04000477E-02   1.35937966E-01   1399.95779945    2.75035956E-06   7.03317886E+17   4.73555380E+08   0.00000000E+00   1.35489073E+08   0.27712889      
  49               3.69915946E-02   1.55945752E-01   1454.19873994    3.03901224E-06   7.76739918E+17   4.72196925E+08   1.35836126E+06   1.33300380E+08   0.27565853      
  50               4.50123658E-02   1.77000854E-01   1505.62979156    3.33162021E-06   8.51496766E+17   4.68973132E+08   4.58629771E+06   1.31207879E+08   0.27316908      
  51               5.47722558E-02   1.99118469E-01   1554.61729538    3.63099824E-06   9.27713528E+17   4.64100099E+08   9.47250800E+06   1.29196869E+08   0.27061738      
  52               6.66483519E-02   2.20358725E-01   1597.63238934    3.91251194E-06   9.99031619E+17   4.57914969E+08   1.56441893E+07   1.27414740E+08   0.26822782      
  53               8.10995048E-02   2.38906911E-01   1632.50151623    4.15662331E-06   1.05998802E+18   4.51618244E+08   2.18846787E+07   1.25960110E+08   0.2661799       
  54               9.86840557E-02   2.54809017E-01   1660.64509613    4.35807572E-06   1.11138314E+18   4.46348163E+08   2.72236096E+07   1.24778601E+08   0.26422096      
  55               1.20081410E-01   2.73021941E-01   1691.13542689    4.58510043E-06   1.16935130E+18   4.40749062E+08   3.31323209E+07   1.23490179E+08   0.26251036      
  56               1.46118284E-01   2.89785791E-01   1717.70980210    4.79522570E-06   1.22194915E+18   4.35620908E+08   3.81609003E+07   1.22359497E+08   0.26101137      
  57               1.77800653E-01   3.04246298E-01   1739.64526015    4.97089026E-06   1.26674863E+18   4.31167475E+08   4.22372685E+07   1.21422880E+08   0.2595485       
  58               2.16352610E-01   3.20863262E-01   1763.76314977    5.17051396E-06   1.31766670E+18   4.26040674E+08   4.73797021E+07   1.20386383E+08   0.25821366      
  59               2.63263667E-01   3.39842428E-01   1790.09732654    5.39554078E-06   1.37507629E+18   4.20018610E+08   5.34172321E+07   1.19250082E+08   0.25694144      
  60               3.20346302E-01   3.61361008E-01   1818.49873475    5.64724864E-06   1.43930928E+18   4.12874886E+08   6.05770879E+07   1.18017323E+08   0.25546491      
  61               3.89805984E-01   3.85519245E-01   1848.74934725    5.92576777E-06   1.51040658E+18   4.04443097E+08   6.90232498E+07   1.16696711E+08   0.25373894      
  62               4.74326391E-01   4.12287295E-01   1880.40989199    6.22994601E-06   1.58808325E+18   3.94910100E+08   7.85646038E+07   1.15303544E+08   0.25170068      
  63               5.77173093E-01   4.42063263E-01   1913.59584742    6.56326887E-06   1.67324696E+18   3.84745153E+08   8.87387937E+07   1.13831011E+08   0.24940595      
  64               7.02319722E-01   4.75669915E-01   1948.74196337    6.93382597E-06   1.76797934E+18   3.73751795E+08   9.97462364E+07   1.12255650E+08   0.24682103      
  65               8.54601502E-01   5.13497193E-01   1985.72840465    7.34444011E-06   1.87302712E+18   3.61491498E+08   1.12021085E+08   1.10579390E+08   0.24385746      
  66               1.03990206E+00   5.55979016E-01   2024.37053780    7.79843543E-06   1.98927229E+18   3.47737252E+08   1.25789972E+08   1.08804291E+08   0.24041681      
  67               1.26538076E+00   6.03602892E-01   2064.49814325    8.29946789E-06   2.11769131E+18   3.32383581E+08   1.41156885E+08   1.06932321E+08   0.23657774      
  68               1.53974930E+00   6.56919410E-01   2105.93801287    8.85167828E-06   2.25939597E+18   3.15424654E+08   1.58126998E+08   1.04965216E+08   0.23236284      
  69               1.87360830E+00   7.16546902E-01   2148.51773648    9.45969461E-06   2.41563614E+18   2.96914566E+08   1.76647687E+08   1.02904588E+08   0.22780092      
  70               2.27985690E+00   7.83178988E-01   2192.06343706    1.01286955E-05   2.58781811E+18   2.76958816E+08   1.96612089E+08   1.00751939E+08   0.22293128      
  71               2.77419111E+00   8.57592977E-01   2236.40786277    1.08644323E-05   2.77751265E+18   2.55711731E+08   2.17865664E+08   9.85086758E+07   0.21774313      
  72               3.37571026E+00   9.40662811E-01   2281.36520155    1.16734694E-05   2.98651707E+18   2.33366858E+08   2.40221943E+08   9.61760419E+07   0.21214358      
  73               4.10765492E+00   1.03336776E+00   2326.72001294    1.25633047E-05   3.21689304E+18   2.10111139E+08   2.63488254E+08   9.37552443E+07   0.20620997      
  74               4.99830483E+00   1.13663831E+00   2372.23464350    1.35419709E-05   3.47048751E+18   1.86392718E+08   2.87198010E+08   9.12514192E+07   0.20028548      
  75               6.08207157E+00   1.25167816E+00   2417.85264903    1.46152167E-05   3.74963232E+18   1.63088278E+08   3.10481546E+08   8.86655081E+07   0.19445483      
  76               7.40082804E+00   1.37998378E+00   2463.51210670    1.57953617E-05   4.05737473E+18   1.40789319E+08   3.32767721E+08   8.59950382E+07   0.18862954      
  77               9.00552635E+00   1.52300854E+00   2509.08998028    1.70925524E-05   4.39654924E+18   1.19927660E+08   3.53616517E+08   8.32423760E+07   0.18305386      
  78               1.09581663E+01   1.68236606E+00   2554.57439530    1.85171907E-05   4.77010329E+18   1.01181339E+08   3.72347064E+08   8.04097324E+07   0.17768498      
  79               1.33341911E+01   1.85983440E+00   2599.83812999    2.00815694E-05   5.18147978E+18   8.50112177E+07   3.88501367E+08   7.74993826E+07   0.17247108      
  80               1.62254019E+01   2.05735739E+00   2644.85535639    2.17981554E-05   5.63421810E+18   7.14997779E+07   4.01998538E+08   7.45138636E+07   0.1676019       
  81               1.97435049E+01   2.27703248E+00   2689.60281222    2.36800798E-05   6.13206733E+18   6.03431730E+07   4.13142075E+08   7.14561951E+07   0.1630373       
  82               2.40244270E+01   2.52111826E+00   2734.04167938    2.57413630E-05   6.67903818E+18   5.10871709E+07   4.22389485E+08   6.83297831E+07   0.15864934      
  83               2.92335681E+01   2.79205301E+00   2778.08927552    2.79974781E-05   7.27952934E+18   4.33960676E+07   4.30077307E+08   6.51382415E+07   0.15465665      
  84               3.55721908E+01   3.09244906E+00   2821.84294610    3.04625502E-05   7.93771598E+18   3.69835150E+07   4.36491133E+08   6.18854024E+07   0.15113754      
  85               4.32851972E+01   3.42509288E+00   2865.27950600    3.31526463E-05   8.65827149E+18   3.15795127E+07   4.41898647E+08   5.85752494E+07   0.14793537      
  86               5.26705906E+01   3.79298910E+00   2908.42926363    3.60841057E-05   9.44602148E+18   2.70202045E+07   4.46465370E+08   5.52115364E+07   0.14502044      
  87               6.40909893E+01   4.19938269E+00   2951.27386276    3.92750648E-05   1.03062763E+19   2.31734739E+07   4.50322691E+08   5.17977142E+07   0.14243532      
  88               7.79876373E+01   4.64774974E+00   2993.88955271    4.27429776E-05   1.12443097E+19   1.99082914E+07   4.53600934E+08   4.83371003E+07   0.14008339      
  89               9.48974517E+01   5.14182690E+00   3036.21548227    4.65087195E-05   1.22662186E+19   1.71165134E+07   4.56408790E+08   4.48327683E+07   0.13794928      
  90               1.15473768E+02   5.68544056E+00   3078.32234306    5.05902080E-05   1.33775280E+19   1.47219986E+07   4.58822790E+08   4.12887189E+07   0.13604845      
  91               1.40511583E+02   6.28272072E+00   3120.16322881    5.50090934E-05   1.45846590E+19   1.26683828E+07   4.60897223E+08   3.77082726E+07   0.13442133      
  92               1.70978268E+02   6.93820635E+00   3161.86461095    5.97851937E-05   1.58938746E+19   1.09080051E+07   4.62678686E+08   3.40936873E+07   0.13299721      
  93               2.08050949E+02   7.65692688E+00   3203.36428806    6.49453282E-05   1.73130670E+19   9.39973080E+06   4.64205432E+08   3.04461615E+07   0.13174771      
  94               2.53161982E+02   8.44447482E+00   3244.80084337    7.05139564E-05   1.88499602E+19   8.10923628E+06   4.65513562E+08   2.67659360E+07   0.1306448       
  95               3.08054300E+02   9.30703473E+00   3286.11253931    7.65239436E-05   2.05142074E+19   6.99897018E+06   4.66640014E+08   2.30526214E+07   0.12969967      
  96               3.74848746E+02   1.02514421E+01   3327.46245811    8.30041477E-05   2.23150384E+19   6.04164614E+06   4.67611630E+08   1.93053135E+07   0.12887508      
  97               4.56126023E+02   1.12852668E+01   3368.77432040    8.99946022E-05   2.42641875E+19   5.21256729E+06   4.68451217E+08   1.55226551E+07   0.12817232      
  98               5.55026396E+02   1.24168905E+01   3410.22508634    9.75296997E-05   2.63727639E+19   4.49530588E+06   4.69176221E+08   1.17029166E+07   0.12757615      
  99               6.75371026E+02   1.36555945E+01   3451.73341929    1.05657605E-04   2.86549202E+19   3.87364663E+06   4.69803620E+08   7.84407630E+06   0.12710232      
  100              8.21809604E+02   1.50116419E+01   3493.49588110    1.14418599E-04   3.11238849E+19   3.33841752E+06   4.70342378E+08   3.94389984E+06   0.12673392      
  101              1.00000000E+03   1.64963793E+01   3535.42127220    1.23870192E-04   3.37966227E+19   3.08800666E+06   4.70602662E+08   0.00000000E+00   0.12646538      
