# ATMO pressure-temperature profile
# Effective temperature = 1500.0K
# log(g) = 5.5cm/s^2
# M/H = 0.0
# Optical depth grid in band 17 (1.20-1.33microns)
# All parameters in cgs units
#
# Model Level      Optical Depth    Pressure         Temperature      Density          Number Density   Rad Flux         Conv Flux        Radial Extension Adiabatic Gradient
#                                   [Ba]             [K]              [g/cm^3]         [/cm^3]          [ergs/s/cm^2/sr] [ergs/s/cm^2/sr] [cm]             [K/Ba]          
  1                1.00000000E-07   1.00000000E-05   491.48900441     5.76858596E-10   1.47371001E+14   2.87038922E+08   0.00000000E+00   2.43269153E+06   0.2975624       
  2                1.25892541E-07   1.74072690E-05   528.41467328     9.33976796E-10   2.38606139E+14   2.87038922E+08   0.00000000E+00   2.40077907E+06   0.29762808      
  3                1.58489319E-07   2.64110122E-05   531.77795420     1.40810912E-09   3.59733229E+14   2.87038922E+08   0.00000000E+00   2.37595131E+06   0.29775168      
  4                1.99526231E-07   3.75692885E-05   546.61420593     1.94864237E-09   4.97826368E+14   2.87038922E+08   0.00000000E+00   2.35464965E+06   0.29772423      
  5                2.51188643E-07   5.14318566E-05   546.77046259     2.66691264E-09   6.81322916E+14   2.87038922E+08   0.00000000E+00   2.33541988E+06   0.29781383      
  6                3.16227766E-07   6.86763660E-05   560.11994770     3.47621501E-09   8.88080034E+14   2.87038922E+08   0.00000000E+00   2.31750996E+06   0.29778907      
  7                3.98107171E-07   9.01300805E-05   560.25459488     4.56106226E-09   1.16522601E+15   2.87038922E+08   0.00000000E+00   2.30047204E+06   0.2978582       
  8                5.01187234E-07   1.16830821E-04   573.25258515     5.77818995E-09   1.47617296E+15   2.87038922E+08   0.00000000E+00   2.28402472E+06   0.29881153      
  9                6.30957344E-07   1.50046740E-04   573.90213075     7.41259500E-09   1.89371477E+15   2.87038922E+08   0.00000000E+00   2.26797507E+06   0.29868517      
  10               7.94328235E-07   1.91373389E-04   586.89075883     9.24495166E-09   2.36183806E+15   2.87038922E+08   0.00000000E+00   2.25218830E+06   0.29872332      
  11               1.00000000E-06   2.42757215E-04   588.17918358     1.17015642E-08   2.98942964E+15   2.87038922E+08   0.00000000E+00   2.23656573E+06   0.29858846      
  12               1.25892541E-06   3.06651850E-04   601.23076338     1.44605376E-08   3.69428363E+15   2.87038922E+08   0.00000000E+00   2.22103290E+06   0.29862233      
  13               1.58489319E-06   3.86045311E-04   603.14293903     1.81467600E-08   4.63600477E+15   2.87038922E+08   0.00000000E+00   2.20553427E+06   0.29847688      
  14               1.99526231E-06   4.84703762E-04   616.30950865     2.22975709E-08   5.69643783E+15   2.87038922E+08   0.00000000E+00   2.19002446E+06   0.29850529      
  15               2.51188643E-06   6.07205116E-04   618.85313189     2.78181917E-08   7.10679304E+15   2.87038921E+08   0.00000000E+00   2.17447025E+06   0.29834848      
  16               3.16227766E-06   7.59355122E-04   632.15771699     3.40564202E-08   8.70052226E+15   2.87038922E+08   0.00000000E+00   2.15883846E+06   0.29837123      
  17               3.98107171E-06   9.48245517E-04   635.29806261     4.23178695E-08   1.08110806E+16   2.87038922E+08   0.00000000E+00   2.14310412E+06   0.29820102      
  18               5.01187234E-06   1.18282942E-03   648.76625588     5.16909526E-08   1.32056476E+16   2.87038922E+08   0.00000000E+00   2.12724314E+06   0.29821519      
  19               6.30957344E-06   1.47402823E-03   652.36064461     6.40619073E-08   1.63660506E+16   2.87038922E+08   0.00000000E+00   2.11124083E+06   0.29803452      
  20               7.94328235E-06   1.83560629E-03   665.92246749     7.81513106E-08   1.99655698E+16   2.87038922E+08   0.00000000E+00   2.09508107E+06   0.2980412       
  21               1.00000000E-05   2.28437393E-03   669.80537660     9.66941701E-08   2.47026989E+16   2.87038921E+08   0.00000000E+00   2.07875606E+06   0.29784651      
  22               1.25892541E-05   2.84145782E-03   683.35359471     1.17889501E-07   3.01176839E+16   2.87038922E+08   0.00000000E+00   2.06225608E+06   0.29784721      
  23               1.58489319E-05   3.53270230E-03   687.37557860     1.45711481E-07   3.72253494E+16   2.87038921E+08   0.00000000E+00   2.04557795E+06   0.2976402       
  24               1.99526231E-05   4.39045194E-03   700.89105502     1.77598556E-07   4.53716475E+16   2.87038922E+08   0.00000000E+00   2.02871650E+06   0.29763575      
  25               2.51188643E-05   5.45437510E-03   704.92844891     2.19372616E-07   5.60435714E+16   2.87038921E+08   0.00000000E+00   2.01167140E+06   0.29741281      
  26               3.16227766E-05   6.77386860E-03   718.37894097     2.67339710E-07   6.82981618E+16   2.87038922E+08   0.00000000E+00   1.99444142E+06   0.29740432      
  27               3.98107171E-05   8.40968300E-03   722.42535649     3.30041706E-07   8.43164832E+16   2.87038921E+08   0.00000000E+00   1.97702663E+06   0.29716497      
  28               5.01187234E-05   1.04370678E-02   735.90961459     4.02100122E-07   1.02725879E+17   2.87038921E+08   0.00000000E+00   1.95942775E+06   0.29711922      
  29               6.30957344E-05   1.29487075E-02   739.98948415     4.96115748E-07   1.26743796E+17   2.87038920E+08   0.00000000E+00   1.94164500E+06   0.29691216      
  30               7.94328235E-05   1.60587625E-02   753.78688555     6.04009512E-07   1.54308318E+17   2.87038919E+08   0.00000000E+00   1.92367885E+06   0.29688824      
  31               1.00000000E-04   1.99078328E-02   758.19455838     7.44432810E-07   1.90181891E+17   2.87038918E+08   0.00000000E+00   1.90552697E+06   0.29655995      
  32               1.25892541E-04   2.46700151E-02   772.57020764     9.05340238E-07   2.31290235E+17   2.87038916E+08   0.00000000E+00   1.88718324E+06   0.2965319       
  33               1.58489319E-04   3.05595839E-02   777.68384955     1.11410585E-06   2.84623134E+17   2.87038917E+08   0.00000000E+00   1.86863876E+06   0.2962316       
  34               1.99526231E-04   3.78396184E-02   793.17015845     1.35257235E-06   3.45546280E+17   2.87038914E+08   0.00000000E+00   1.84988492E+06   0.29621761      
  35               2.51188643E-04   4.68308274E-02   799.48670119     1.66074205E-06   4.24274008E+17   2.87038915E+08   0.00000000E+00   1.83091406E+06   0.29586252      
  36               3.16227766E-04   5.79272675E-02   816.50401435     2.01142581E-06   5.13866799E+17   2.87038920E+08   0.00000000E+00   1.81171495E+06   0.29574104      
  37               3.98107171E-04   7.16051693E-02   824.66931963     2.46175527E-06   6.28912719E+17   2.87038913E+08   0.00000000E+00   1.79227724E+06   0.29527368      
  38               5.01187234E-04   8.84515900E-02   843.87098058     2.97171461E-06   7.59198658E+17   2.87038920E+08   0.00000000E+00   1.77258104E+06   0.29514458      
  39               6.30957344E-04   1.09166240E-01   854.47949350     3.62213401E-06   9.25363886E+17   2.87038911E+08   0.00000000E+00   1.75261500E+06   0.2946588       
  40               7.94328235E-04   1.34626408E-01   876.44077361     4.35494189E-06   1.11258583E+18   2.87038925E+08   0.00000000E+00   1.73234333E+06   0.29444404      
  41               1.00000000E-03   1.65867013E-01   890.06648918     5.28337199E-06   1.34978132E+18   2.87038918E+08   0.00000000E+00   1.71174781E+06   0.29381385      
  42               1.25892541E-03   2.04221278E-01   915.13635387     6.32679234E-06   1.61637089E+18   2.87038923E+08   0.00000000E+00   1.69076956E+06   0.29345186      
  43               1.58489319E-03   2.51259370E-01   932.21062122     7.64158187E-06   1.95224383E+18   2.87038876E+08   0.00000000E+00   1.66937678E+06   0.29264948      
  44               1.99526231E-03   3.09177175E-01   960.89424318     9.12202455E-06   2.33054596E+18   2.87038943E+08   0.00000000E+00   1.64743965E+06   0.29214165      
  45               2.51188643E-03   3.80624048E-01   982.02330052     1.09881757E-05   2.80737399E+18   2.87038828E+08   0.00000000E+00   1.62487254E+06   0.29119369      
  46               3.16227766E-03   4.69440795E-01   1014.93683344    1.31119582E-05   3.35017623E+18   2.87038981E+08   0.00000000E+00   1.60147304E+06   0.29052632      
  47               3.98107171E-03   5.80380215E-01   1040.87822006    1.58060296E-05   4.03867139E+18   2.87038803E+08   0.00000000E+00   1.57710373E+06   0.28941081      
  48               5.01187234E-03   7.20516876E-01   1079.10698689    1.89257355E-05   4.83621381E+18   2.87038960E+08   0.00000000E+00   1.55148098E+06   0.28854102      
  49               6.30957344E-03   8.98607401E-01   1110.99166185    2.29249555E-05   5.85848107E+18   2.87038813E+08   0.00000000E+00   1.52444361E+06   0.28715863      
  50               7.94328235E-03   1.12741341E+00   1155.75749369    2.76452832E-05   7.06549052E+18   2.87039057E+08   0.00000000E+00   1.49570168E+06   0.2859622       
  51               1.00000000E-02   1.42302205E+00   1194.89584832    3.37487535E-05   8.62595956E+18   2.87038830E+08   0.00000000E+00   1.46509735E+06   0.28422568      
  52               1.25892541E-02   1.80619375E+00   1247.28881782    4.10326743E-05   1.04887358E+19   2.87039379E+08   0.00000000E+00   1.43253533E+06   0.2826935       
  53               1.58489319E-02   2.30114337E+00   1294.05431782    5.03845611E-05   1.28800340E+19   2.87038411E+08   0.00000000E+00   1.39811209E+06   0.28069112      
  54               1.99526231E-02   2.93337024E+00   1352.91963106    6.14281492E-05   1.57043774E+19   2.87038957E+08   0.00000000E+00   1.36217456E+06   0.27896842      
  55               2.51188643E-02   3.72482148E+00   1403.98718421    7.51618154E-05   1.92162287E+19   2.87037935E+08   0.00000000E+00   1.32534094E+06   0.27686181      
  56               3.16227766E-02   4.69644460E+00   1465.06397242    9.08133724E-05   2.32187296E+19   2.87040619E+08   0.00000000E+00   1.28815071E+06   0.27494583      
  57               3.98107171E-02   5.86746338E+00   1517.92253710    1.09504963E-04   2.79979748E+19   2.87039479E+08   0.00000000E+00   1.25101647E+06   0.27264178      
  58               5.01187234E-02   7.23735835E+00   1580.43414462    1.29738807E-04   3.31687811E+19   2.87042815E+08   0.00000000E+00   1.21467137E+06   0.27063985      
  59               6.30957344E-02   8.77494582E+00   1634.53762227    1.52152943E-04   3.88843964E+19   2.87038842E+08   0.00000000E+00   1.18006248E+06   0.26843465      
  60               7.94328235E-02   1.04398242E+01   1696.47520203    1.74427228E-04   4.45729634E+19   2.87039504E+08   0.00000000E+00   1.14774467E+06   0.26647814      
  61               1.00000000E-01   1.21441078E+01   1748.53364307    1.96913853E-04   5.03057304E+19   2.87019414E+08   0.00000000E+00   1.11866388E+06   0.26431208      
  62               1.25892541E-01   1.36772946E+01   1804.78619239    2.15068112E-04   5.48908910E+19   2.85213579E+08   1.85149519E+06   1.09510211E+06   0.26236231      
  63               1.58489319E-01   1.48916033E+01   1844.64626902    2.29234336E-04   5.84728417E+19   2.79434942E+08   7.61700198E+06   1.07780755E+06   0.26039919      
  64               1.99526231E-01   1.62693749E+01   1888.21962289    2.44653845E-04   6.24085653E+19   2.71601031E+08   1.54451956E+07   1.05940992E+06   0.2590336       
  65               2.51188643E-01   1.74254994E+01   1921.28112319    2.57606948E-04   6.56931606E+19   2.62696034E+08   2.43281162E+07   1.04484628E+06   0.25742278      
  66               3.16227766E-01   1.83327910E+01   1947.16270306    2.67411901E-04   6.81949451E+19   2.54008718E+08   3.30022450E+07   1.03391483E+06   0.25640934      
  67               3.98107171E-01   1.94034830E+01   1974.98685960    2.79035503E-04   7.11608821E+19   2.44220629E+08   4.27891703E+07   1.02151988E+06   0.25494084      
  68               5.01187234E-01   2.06567483E+01   2007.32266444    2.92253267E-04   7.45367769E+19   2.31920032E+08   5.50677529E+07   1.00764165E+06   0.25445621      
  69               6.30957344E-01   2.16303950E+01   2030.35125943    3.02809043E-04   7.71647779E+19   2.19331564E+08   6.76094003E+07   9.97290590E+05   0.25351389      
  70               7.94328235E-01   2.23735984E+01   2048.36768627    3.10451638E-04   7.91140764E+19   2.08455877E+08   7.84623866E+07   9.89625339E+05   0.25315359      
  71               1.00000000E+00   2.32681987E+01   2068.21713094    3.19758573E-04   8.14877775E+19   1.98029304E+08   8.88900165E+07   9.80646480E+05   0.25190897      
  72               1.25892541E+00   2.43379988E+01   2092.25898428    3.30605469E-04   8.42549187E+19   1.87634323E+08   9.92861807E+07   9.70241608E+05   0.25131681      
  73               1.58489319E+00   2.56127564E+01   2118.72704817    3.43561022E-04   8.75602812E+19   1.76943820E+08   1.09979720E+08   9.58280513E+05   0.24962059      
  74               1.99526231E+00   2.71221878E+01   2149.60289847    3.58562923E-04   9.13886620E+19   1.65921751E+08   1.21005285E+08   9.44680818E+05   0.24880393      
  75               2.51188643E+00   2.88982819E+01   2183.31810697    3.76118631E-04   9.58695848E+19   1.54270888E+08   1.32660624E+08   9.29386806E+05   0.24669637      
  76               3.16227766E+00   3.09761279E+01   2221.23277393    3.96246544E-04   1.01008727E+20   1.42313504E+08   1.44622482E+08   9.12366438E+05   0.24514368      
  77               3.98107171E+00   3.33937831E+01   2262.09793978    4.19411629E-04   1.06925196E+20   1.30027934E+08   1.56912668E+08   8.93612506E+05   0.24282742      
  78               5.01187234E+00   3.61933274E+01   2306.80316863    4.45702099E-04   1.13643294E+20   1.17758627E+08   1.69186032E+08   8.73136462E+05   0.24081817      
  79               6.30957344E+00   3.94202114E+01   2354.31299329    4.75612452E-04   1.21277599E+20   1.05530729E+08   1.81417529E+08   8.50972406E+05   0.23799993      
  80               7.94328235E+00   4.31267300E+01   2405.06987300    5.09246258E-04   1.29880715E+20   9.40018418E+07   1.92949004E+08   8.27155920E+05   0.23556884      
  81               1.00000000E+01   4.73719547E+01   2458.46617216    5.47087610E-04   1.39567053E+20   8.30896403E+07   2.03862357E+08   8.01722146E+05   0.23229967      
  82               1.25892541E+01   5.22223968E+01   2514.40524052    5.89506752E-04   1.50434472E+20   7.31064925E+07   2.13844679E+08   7.74712962E+05   0.22951755      
  83               1.58489319E+01   5.77556443E+01   2572.88632700    6.36914110E-04   1.62592187E+20   6.38661728E+07   2.23084314E+08   7.46156867E+05   0.22577137      
  84               1.99526231E+01   6.40645589E+01   2633.15250959    6.90016384E-04   1.76225060E+20   5.58174402E+07   2.31132713E+08   7.16062265E+05   0.22267714      
  85               2.51188643E+01   7.12548109E+01   2696.08856365    7.49153208E-04   1.91428183E+20   4.86300456E+07   2.38320945E+08   6.84437018E+05   0.21855913      
  86               3.16227766E+01   7.94496344E+01   2759.98408060    8.15483574E-04   2.08502452E+20   4.23729580E+07   2.44579980E+08   6.51281792E+05   0.21524413      
  87               3.98107171E+01   8.87891859E+01   2826.83685874    8.89158980E-04   2.27501973E+20   3.67429225E+07   2.50214289E+08   6.16597329E+05   0.21102585      
  88               5.01187234E+01   9.94354239E+01   2893.82143375    9.71950406E-04   2.48883004E+20   3.15744111E+07   2.55389708E+08   5.80382120E+05   0.20639866      
  89               6.30957344E+01   1.11574178E+02   2963.30962383    1.06404737E-03   2.72717184E+20   2.73125736E+07   2.59660734E+08   5.42635411E+05   0.20374544      
  90               7.94328235E+01   1.25408890E+02   3033.94284032    1.16693359E-03   2.99396535E+20   2.32944396E+07   2.63693088E+08   5.03373208E+05   0.19908082      
  91               1.00000000E+02   1.41153186E+02   3105.34055118    1.28177111E-03   3.29235980E+20   1.99202863E+07   2.67085064E+08   4.62662986E+05   0.19554643      
  92               1.25892541E+02   1.59010642E+02   3178.10643162    1.40907934E-03   3.62396165E+20   1.70068634E+07   2.70018123E+08   4.20643012E+05   0.19219588      
  93               1.58489319E+02   1.79198856E+02   3251.09647721    1.55019994E-03   3.99237397E+20   1.44464442E+07   2.72599688E+08   3.77446795E+05   0.189021        
  94               1.99526231E+02   2.01953485E+02   3325.01867721    1.70565691E-03   4.39929517E+20   1.22274137E+07   2.74841179E+08   3.33194084E+05   0.18607664      
  95               2.51188643E+02   2.27532035E+02   3398.81741030    1.87699397E-03   4.84887017E+20   1.02951282E+07   2.76796987E+08   2.87986791E+05   0.18347945      
  96               3.16227766E+02   2.56218542E+02   3473.43199837    2.06473104E-03   5.34290675E+20   8.66139089E+06   2.78455034E+08   2.41905494E+05   0.18110805      
  97               3.98107171E+02   2.88327839E+02   3547.75888277    2.27078485E-03   5.88651589E+20   7.29633787E+06   2.79844740E+08   1.95011077E+05   0.17898307      
  98               5.01187234E+02   3.24205874E+02   3622.87260011    2.49572257E-03   6.48177060E+20   6.15368628E+06   2.81012204E+08   1.47351204E+05   0.1769425       
  99               6.30957344E+02   3.64238062E+02   3697.54824267    2.74196445E-03   7.13505487E+20   5.16877903E+06   2.82021911E+08   9.89573279E+04   0.17508057      
  100              7.94328235E+02   4.08858460E+02   3773.05449944    3.01015724E-03   7.84884495E+20   4.32983663E+06   2.82885208E+08   4.98418531E+04   0.17341252      
  101              1.00000000E+03   4.58558074E+02   3848.19364064    3.30330619E-03   8.63104273E+20   3.92298473E+06   2.83313113E+08   0.00000000E+00   0.17188863      
