# ATMO pressure-temperature profile
# Effective temperature = 550.0K
# log(g) = 4.0cm/s^2
# M/H = 0.0
# Optical depth grid in band 17 (1.20-1.33microns)
# All parameters in cgs units
#
# Model Level      Optical Depth    Pressure         Temperature      Density          Number Density   Rad Flux         Conv Flux        Radial Extension Adiabatic Gradient
#                                   [Ba]             [K]              [g/cm^3]         [/cm^3]          [ergs/s/cm^2/sr] [ergs/s/cm^2/sr] [cm]             [K/Ba]          
  1                5.00000000E-05   1.00000000E-05   96.67064434      2.91772405E-09   7.49257720E+14   5.18819122E+06   0.00000000E+00   3.46193206E+07   0.34612403      
  2                5.91534807E-05   6.93049763E-05   124.09417005     1.57525862E-08   4.04518958E+15   5.18819122E+06   0.00000000E+00   3.37445522E+07   0.34181018      
  3                6.99826855E-05   1.37398921E-04   135.89483996     2.85180072E-08   7.32328936E+15   5.18819123E+06   0.00000000E+00   3.34232801E+07   0.31871346      
  4                8.27943887E-05   2.16967177E-04   145.04756353     4.21912654E-08   1.08345141E+16   5.18819123E+06   0.00000000E+00   3.31938930E+07   0.32185724      
  5                9.79515255E-05   3.10331349E-04   150.95187995     5.79864171E-08   1.48906262E+16   5.18819124E+06   0.00000000E+00   3.30051347E+07   0.32039292      
  6                1.15883473E-04   4.20124226E-04   155.85535546     7.60323301E-08   1.95245860E+16   5.18819124E+06   0.00000000E+00   3.28397816E+07   0.3236762       
  7                1.37098216E-04   5.49391250E-04   159.33322446     9.72560054E-08   2.49747548E+16   5.18819127E+06   0.00000000E+00   3.26894569E+07   0.32327885      
  8                1.62196734E-04   7.01652382E-04   163.31306727     1.21185853E-07   3.11190914E+16   5.18819129E+06   0.00000000E+00   3.25492057E+07   0.32526981      
  9                1.91890027E-04   8.80970164E-04   166.77522497     1.48996849E-07   3.82609285E+16   5.18819131E+06   0.00000000E+00   3.24157587E+07   0.32488745      
  10               2.27019260E-04   1.09210560E-03   170.75588070     1.80410977E-07   4.63249334E+16   5.18819155E+06   0.00000000E+00   3.22869799E+07   0.32585559      
  11               2.68579588E-04   1.34058342E-03   173.84324567     2.17520872E-07   5.58549752E+16   5.18819230E+06   0.00000000E+00   3.21615486E+07   0.32582606      
  12               3.17748350E-04   1.63275640E-03   177.73757060     2.59165537E-07   6.65377321E+16   5.18819315E+06   0.00000000E+00   3.20384907E+07   0.32589136      
  13               3.75918418E-04   1.97600277E-03   181.00616957     3.07967036E-07   7.90715060E+16   5.18819355E+06   0.00000000E+00   3.19169938E+07   0.32506871      
  14               4.44737657E-04   2.37822831E-03   184.98616914     3.62842067E-07   9.31193906E+16   5.18819404E+06   0.00000000E+00   3.17966614E+07   0.32366777      
  15               5.26155608E-04   2.84775349E-03   188.66803055     4.25930078E-07   1.09327626E+17   5.18819203E+06   0.00000000E+00   3.16772266E+07   0.32147955      
  16               6.22478712E-04   3.39273991E-03   192.42104297     4.98155372E-07   1.27709688E+17   5.18819089E+06   0.00000000E+00   3.15588952E+07   0.31900045      
  17               7.36435649E-04   4.01931740E-03   196.87540990     5.76496940E-07   1.47872246E+17   5.18819201E+06   0.00000000E+00   3.14419738E+07   0.31719909      
  18               8.71254639E-04   4.72464011E-03   201.70018544     6.64147115E-07   1.69663443E+17   5.18819028E+06   0.00000000E+00   3.13279224E+07   0.31466242      
  19               1.03075489E-03   5.49398472E-03   208.87279921     7.45774304E-07   1.90515976E+17   5.18818884E+06   0.00000000E+00   3.12186061E+07   0.31310165      
  20               1.21945479E-03   6.39339475E-03   218.18840830     8.30809973E-07   2.12239242E+17   5.18819023E+06   0.00000000E+00   3.11043437E+07   0.3128618       
  21               1.44269991E-03   7.44536950E-03   224.45339882     9.40506767E-07   2.40262454E+17   5.18819024E+06   0.00000000E+00   3.09853364E+07   0.31118232      
  22               1.70681442E-03   8.67638992E-03   232.81807901     1.05663311E-06   2.69928163E+17   5.18818995E+06   0.00000000E+00   3.08618492E+07   0.31087548      
  23               2.01928028E-03   1.01170411E-02   238.57296974     1.20235893E-06   3.07155372E+17   5.18818980E+06   0.00000000E+00   3.07340348E+07   0.30925744      
  24               2.38894914E-03   1.18030035E-02   246.70789924     1.35647357E-06   3.46525597E+17   5.18818987E+06   0.00000000E+00   3.06020192E+07   0.30898976      
  25               2.82629313E-03   1.37757368E-02   252.49070215     1.54693228E-06   3.95180300E+17   5.18818983E+06   0.00000000E+00   3.04658349E+07   0.30760716      
  26               3.34370152E-03   1.60839495E-02   260.66022886     1.74952351E-06   4.46934384E+17   5.18819009E+06   0.00000000E+00   3.03255276E+07   0.30734042      
  27               3.95583167E-03   1.87840533E-02   266.59415140     1.99774729E-06   5.10345788E+17   5.18818995E+06   0.00000000E+00   3.01811000E+07   0.30606284      
  28               4.68002425E-03   2.19416143E-02   275.04567673     2.26185942E-06   5.77816039E+17   5.18819035E+06   0.00000000E+00   3.00325582E+07   0.30576846      
  29               5.53679448E-03   2.56321993E-02   281.46473385     2.58204459E-06   6.59610747E+17   5.18819005E+06   0.00000000E+00   2.98798436E+07   0.30463856      
  30               6.55041330E-03   2.99443340E-02   290.46135827     2.92299552E-06   7.46710287E+17   5.18819058E+06   0.00000000E+00   2.97228809E+07   0.30440052      
  31               7.74959494E-03   3.49810140E-02   297.44858482     3.33443566E-06   8.51817046E+17   5.18819007E+06   0.00000000E+00   2.95615495E+07   0.30349195      
  32               9.16831029E-03   4.08619442E-02   307.12345387     3.77231454E-06   9.63677862E+17   5.18819067E+06   0.00000000E+00   2.93957318E+07   0.30325124      
  33               1.08467493E-02   4.77248827E-02   315.02172546     4.29542577E-06   1.09731219E+18   5.18818991E+06   0.00000000E+00   2.92252401E+07   0.30251722      
  34               1.28324595E-02   5.57291263E-02   325.82120098     4.84958697E-06   1.23887855E+18   5.18819055E+06   0.00000000E+00   2.90498663E+07   0.30236805      
  35               1.51816929E-02   6.50584118E-02   335.02567691     5.50588606E-06   1.40653714E+18   5.18818955E+06   0.00000000E+00   2.88693226E+07   0.30173286      
  36               1.79609996E-02   7.59259340E-02   347.25197947     6.19936603E-06   1.58369393E+18   5.18819019E+06   0.00000000E+00   2.86833096E+07   0.30153238      
  37               2.12491128E-02   8.85787965E-02   358.12967633     7.01279797E-06   1.79149378E+18   5.18818911E+06   0.00000000E+00   2.84914120E+07   0.30100289      
  38               2.51391797E-02   1.03303964E-01   372.30392556     7.86721970E-06   2.00976469E+18   5.18818982E+06   0.00000000E+00   2.82931662E+07   0.30081865      
  39               2.97413996E-02   1.20428256E-01   385.41500315     8.85934305E-06   2.26321399E+18   5.18818948E+06   0.00000000E+00   2.80880494E+07   0.30047245      
  40               3.51861462E-02   1.40329071E-01   401.91493952     9.89960810E-06   2.52894475E+18   5.18819059E+06   0.00000000E+00   2.78755476E+07   0.3003774       
  41               4.16276604E-02   1.63436129E-01   417.57788978     1.10972413E-05   2.83489131E+18   5.18819028E+06   0.00000000E+00   2.76550885E+07   0.30014152      
  42               4.92484201E-02   1.90248568E-01   437.18188824     1.23385341E-05   3.15199176E+18   5.18761528E+06   5.75303902E+02   2.74259505E+07   0.30000752      
  43               5.82643093E-02   2.21360274E-01   457.36612888     1.37227075E-05   3.50559325E+18   5.17502443E+06   1.31652102E+04   2.71868545E+07   0.29977416      
  44               6.89307339E-02   2.57536243E-01   478.72681564     1.52532047E-05   3.89651579E+18   5.15649032E+06   3.17018726E+04   2.69368077E+07   0.29970602      
  45               8.15498567E-02   2.99824840E-01   500.90569909     1.69725051E-05   4.33548290E+18   5.14107675E+06   4.71154111E+04   2.66739750E+07   0.29957736      
  46               9.64791575E-02   3.49736894E-01   524.69013767     1.89003773E-05   4.82796805E+18   5.12388120E+06   6.43131668E+04   2.63952997E+07   0.29948678      
  47               1.14141560E-01   4.09496612E-01   549.92281238     2.11143012E-05   5.39354636E+18   5.11028406E+06   7.79122541E+04   2.60961512E+07   0.2992684       
  48               1.35037411E-01   4.82390623E-01   577.69472194     2.36768129E-05   6.04820214E+18   5.10706663E+06   8.11330963E+04   2.57701310E+07   0.29915205      
  49               1.59758657E-01   5.72752536E-01   607.98604828     2.67109876E-05   6.82337511E+18   5.11812303E+06   7.00751152E+04   2.54108109E+07   0.29893068      
  50               1.89005613E-01   6.85607540E-01   641.70956477     3.02933421E-05   7.73860914E+18   5.13942998E+06   4.87678896E+04   2.50140720E+07   0.29876153      
  51               2.23606798E-01   8.26028358E-01   678.27419539     3.45298039E-05   8.82095288E+18   5.15567605E+06   3.25125018E+04   2.45798989E+07   0.29831853      
  52               2.64542408E-01   9.98166214E-01   717.79854519     3.94275832E-05   1.00722415E+19   5.14766258E+06   4.05268752E+04   2.41133675E+07   0.29800883      
  53               3.12972084E-01   1.20466110E+00   758.99716295     4.50009310E-05   1.14961011E+19   5.10213630E+06   8.60441043E+04   2.36231378E+07   0.29738942      
  54               3.70267763E-01   1.44705010E+00   801.61528324     5.11816995E-05   1.30750518E+19   5.02441088E+06   1.63774866E+05   2.31180742E+07   0.29690845      
  55               4.38052539E-01   1.72720986E+00   844.69663533     5.79751955E-05   1.48105158E+19   4.93435951E+06   2.53816138E+05   2.26037603E+07   0.29583336      
  56               5.18246648E-01   2.04694816E+00   888.23059631     6.53397892E-05   1.66919454E+19   4.86282654E+06   3.25356764E+05   2.20842608E+07   0.295087        
  57               6.13121862E-01   2.40820144E+00   931.74322109     7.32812445E-05   1.87207140E+19   4.83038570E+06   3.57786371E+05   2.15621928E+07   0.29372523      
  58               7.25365844E-01   2.81357879E+00   975.22502728     8.17998705E-05   2.08968143E+19   4.85426161E+06   3.33920324E+05   2.10386071E+07   0.29284571      
  59               8.58158289E-01   3.26730546E+00   1018.82044350    9.09287465E-05   2.32283268E+19   4.92822927E+06   2.59941299E+05   2.05125053E+07   0.29110604      
  60               1.01526100E+00   3.77468045E+00   1062.32229884    1.00746370E-04   2.57365147E+19   5.05749626E+06   1.30685643E+05   1.99823956E+07   0.29007842      
  61               1.20112443E+00   4.34339225E+00   1106.52912147    1.11292345E-04   2.84309940E+19   5.18817313E+06   0.00000000E+00   1.94453042E+07   0.288064        
  62               1.42101382E+00   4.98370452E+00   1149.71599302    1.22899629E-04   3.13969566E+19   5.18818478E+06   0.00000000E+00   1.88977985E+07   0.28700268      
  63               1.68115827E+00   5.71040624E+00   1188.37624539    1.36235198E-04   3.48047792E+19   5.18816246E+06   0.00000000E+00   1.83361808E+07   0.28479773      
  64               1.98892727E+00   6.54105636E+00   1227.51184597    1.51071236E-04   3.85965102E+19   5.18819286E+06   0.00000000E+00   1.77571683E+07   0.28371041      
  65               2.35303941E+00   7.49434483E+00   1263.24044414    1.68186143E-04   4.29708051E+19   5.18814761E+06   0.00000000E+00   1.71591113E+07   0.2813169       
  66               2.78380943E+00   8.59309870E+00   1300.57851367    1.87299005E-04   4.78562941E+19   5.18821774E+06   0.00000000E+00   1.65400376E+07   0.28014031      
  67               3.29344035E+00   9.86101575E+00   1335.53410321    2.09300480E-04   5.34801368E+19   5.18811611E+06   0.00000000E+00   1.58996522E+07   0.2775079       
  68               3.89636920E+00   1.13224065E+01   1373.15305873    2.33723157E-04   5.97235528E+19   5.18825805E+06   0.00000000E+00   1.52389065E+07   0.27617776      
  69               4.60967600E+00   1.30016352E+01   1409.38564103    2.61475340E-04   6.68180771E+19   5.18807067E+06   0.00000000E+00   1.45596301E+07   0.27488312      
  70               5.45356761E+00   1.49254317E+01   1449.17628631    2.91908128E-04   7.45987453E+19   5.18830628E+06   0.00000000E+00   1.38632854E+07   0.27331995      
  71               6.45195012E+00   1.71249829E+01   1488.37954659    3.26090303E-04   8.33378501E+19   5.18801917E+06   0.00000000E+00   1.31503586E+07   0.27187501      
  72               7.63310614E+00   1.96311311E+01   1531.60213025    3.63245435E-04   9.28378770E+19   5.18832974E+06   0.00000000E+00   1.24221743E+07   0.2702051       
  73               9.03049593E+00   2.24629223E+01   1574.69394185    4.04257157E-04   1.03322746E+20   5.18807966E+06   0.00000000E+00   1.16831889E+07   0.26868505      
  74               1.06837053E+01   2.56203485E+01   1622.02736849    4.47616094E-04   1.14407025E+20   5.18826375E+06   0.00000000E+00   1.09409272E+07   0.26703031      
  75               1.26395671E+01   2.90579759E+01   1669.31979911    4.93498714E-04   1.26081584E+20   5.18785185E+06   0.00000000E+00   1.02094488E+07   0.26556293      
  76               1.49534878E+01   3.27310606E+01   1720.76862650    5.39247187E-04   1.37772785E+20   5.18822819E+06   0.00000000E+00   9.49741859E+06   0.26392353      
  77               1.76910170E+01   3.65816047E+01   1772.10518029    5.85248068E-04   1.49519934E+20   4.84181655E+06   3.46359851E+05   8.81198804E+06   0.26251673      
  78               2.09297047E+01   4.05182902E+01   1819.93321360    6.31347809E-04   1.61258085E+20   4.32879987E+06   8.59373374E+05   8.16434330E+06   0.26092942      
  79               2.47612977E+01   4.43778554E+01   1863.72761621    6.75578510E-04   1.72468470E+20   3.70811411E+06   1.48006269E+06   7.57335228E+06   0.25965149      
  80               2.92943389E+01   4.78562603E+01   1900.31278539    7.15225469E-04   1.82406163E+20   3.06951204E+06   2.11883745E+06   7.07291574E+06   0.25813998      
  81               3.46572422E+01   5.08168116E+01   1930.06406440    7.47746200E-04   1.90704757E+20   2.70967802E+06   2.47938528E+06   6.66808413E+06   0.25706004      
  82               4.10019301E+01   5.40869608E+01   1961.05084855    7.83268956E-04   1.99769675E+20   2.56851916E+06   2.61983173E+06   6.24078165E+06   0.25581601      
  83               4.85081376E+01   5.76854454E+01   1993.68572295    8.21672005E-04   2.09573029E+20   2.26808248E+06   2.92047261E+06   5.79222699E+06   0.25496691      
  84               5.73885036E+01   6.06010955E+01   2018.74364583    8.52741763E-04   2.17432842E+20   1.84089340E+06   3.34954986E+06   5.44389169E+06   0.25389647      
  85               6.78945948E+01   6.28158909E+01   2037.28473001    8.75847174E-04   2.23328235E+20   1.61675044E+06   3.57560255E+06   5.18761400E+06   0.25320663      
  86               8.03240320E+01   6.53256077E+01   2057.48411814    9.01880443E-04   2.29970859E+20   1.55308623E+06   3.64046609E+06   4.90523252E+06   0.25222957      
  87               9.50289215E+01   6.81578126E+01   2079.65990466    9.30926736E-04   2.37382754E+20   1.48985151E+06   3.70289086E+06   4.59613706E+06   0.25173888      
  88               1.12425830E+02   7.13418222E+01   2103.62458642    9.63289891E-04   2.45641533E+20   1.42156134E+06   3.77304591E+06   4.25990561E+06   0.25105315      
  89               1.33007583E+02   7.49066872E+01   2129.54475643    9.99048200E-04   2.54776671E+20   1.25840341E+06   3.94362315E+06   3.89651674E+06   0.2507843       
  90               1.57357229E+02   7.75810908E+01   2148.32382519    1.02652846E-03   2.61566413E+20   1.02846649E+06   4.16596212E+06   3.63240001E+06   0.25009897      
  91               1.86164557E+02   7.95394800E+01   2161.74722871    1.04588783E-03   2.66503966E+20   9.17634948E+05   4.27368880E+06   3.44339600E+06   0.24972782      
  92               2.20245630E+02   8.17911665E+01   2176.86324253    1.06800586E-03   2.72145461E+20   8.91094629E+05   4.30066406E+06   3.23034742E+06   0.24892347      
  93               2.60565913E+02   8.43721030E+01   2193.72096353    1.09321479E-03   2.78575763E+20   8.63232842E+05   4.32907816E+06   2.99149049E+06   0.2484196       
  94               3.08267614E+02   8.73209767E+01   2212.53072497    1.12177327E-03   2.85861135E+20   8.32187472E+05   4.36032695E+06   2.72520284E+06   0.24746148      
  95               3.64702046E+02   9.06794270E+01   2233.20916140    1.15409352E-03   2.94106895E+20   7.99687929E+05   4.39356982E+06   2.43003703E+06   0.24679973      
  96               4.31467909E+02   9.44919767E+01   2256.05004140    1.19039507E-03   3.03369590E+20   7.64467639E+05   4.43069305E+06   2.10476280E+06   0.2456573       
  97               5.10456573E+02   9.88064714E+01   2280.79735779    1.23118759E-03   3.13779472E+20   7.27523816E+05   4.46732126E+06   1.74837525E+06   0.24465829      
  98               6.03905660E+02   1.03674182E+02   2307.82320118    1.27664376E-03   3.25382297E+20   6.88856672E+05   4.51024526E+06   1.36011041E+06   0.24347507      
  99               7.14462436E+02   1.09149617E+02   2336.75842967    1.32747721E-03   3.38325113E+20   6.48127094E+05   4.55251202E+06   9.39495754E+05   0.2422517       
  100              8.45258798E+02   1.15292850E+02   2367.98017058    1.38360391E-03   3.52655089E+20   6.07395285E+05   4.59455785E+06   4.86203693E+05   0.24082701      
  101              1.00000000E+03   1.22169560E+02   2401.04396923    1.44582021E-03   3.68543485E+20   5.85007532E+05   4.61824601E+06   0.00000000E+00   0.23934362      
