# ATMO pressure-temperature profile
# Effective temperature = 2800.0K
# log(g) = 2.5cm/s^2
# M/H = 0.0
# Optical depth grid in band 17 (1.20-1.33microns)
# All parameters in cgs units
#
# Model Level      Optical Depth    Pressure         Temperature      Density          Number Density   Rad Flux         Conv Flux        Radial Extension Adiabatic Gradient
#                                   [Ba]             [K]              [g/cm^3]         [/cm^3]          [ergs/s/cm^2/sr] [ergs/s/cm^2/sr] [cm]             [K/Ba]          
  1                1.00000000E-04   1.00000000E-05   1092.66552641    2.59183552E-10   6.62885621E+13   3.48463428E+09   0.00000000E+00   5.58867159E+09   0.28628474      
  2                1.17489755E-04   1.48969055E-05   1784.14725186    2.28939567E-10   6.04771346E+13   3.48463395E+09   0.00000000E+00   5.52397695E+09   0.27177378      
  3                1.38038426E-04   1.72566531E-05   1585.39252915    3.07859683E-10   7.88398158E+13   3.48463359E+09   0.00000000E+00   5.49568950E+09   0.27408248      
  4                1.62181010E-04   1.98730835E-05   1858.31116468    2.87258197E-10   7.74591383E+13   3.48463324E+09   0.00000000E+00   5.46750727E+09   0.26979114      
  5                1.90546072E-04   2.27693676E-05   1660.73370126    3.86036192E-10   9.93063018E+13   3.48463287E+09   0.00000000E+00   5.43975086E+09   0.27320885      
  6                2.23872114E-04   2.60475524E-05   1909.15401509    3.60784193E-10   9.88215802E+13   3.48463245E+09   0.00000000E+00   5.41158493E+09   0.27077305      
  7                2.63026799E-04   2.97408085E-05   1717.33818119    4.85303040E-10   1.25436170E+14   3.48463198E+09   0.00000000E+00   5.38337459E+09   0.27355233      
  8                3.09029543E-04   3.39518004E-05   1951.67140037    4.53939182E-10   1.26003309E+14   3.48463143E+09   0.00000000E+00   5.35458743E+09   0.27183316      
  9                3.63078055E-04   3.87297476E-05   1766.29993626    6.11351994E-10   1.58820315E+14   3.48463081E+09   0.00000000E+00   5.32557324E+09   0.27399004      
  10               4.26579519E-04   4.41965082E-05   1990.43323551    5.72482107E-10   1.60829675E+14   3.48463010E+09   0.00000000E+00   5.29591132E+09   0.27289095      
  11               5.01187234E-04   5.04202086E-05   1811.86702023    7.71572839E-10   2.01559911E+14   3.48462930E+09   0.00000000E+00   5.26594040E+09   0.27454578      
  12               5.88843655E-04   5.75537481E-05   2027.58237874    7.23544477E-10   2.05598974E+14   3.48462839E+09   0.00000000E+00   5.23528760E+09   0.27399707      
  13               6.91830971E-04   6.56879947E-05   1856.20148578    9.75121466E-10   2.56322498E+14   3.48462737E+09   0.00000000E+00   5.20428818E+09   0.27523257      
  14               8.12830516E-04   7.50192938E-05   2064.35225062    9.15923682E-10   2.63217649E+14   3.48462623E+09   0.00000000E+00   5.17258576E+09   0.27520386      
  15               9.54992586E-04   8.56663803E-05   1900.57363545    1.23321994E-09   3.26476222E+14   3.48462498E+09   0.00000000E+00   5.14051889E+09   0.27608606      
  16               1.12201845E-03   9.78842548E-05   2101.55275685    1.16042220E-09   3.37363724E+14   3.48462361E+09   0.00000000E+00   5.10772857E+09   0.27657119      
  17               1.31825674E-03   1.11825614E-04   1945.86312260    1.55942185E-09   4.16250574E+14   3.48462212E+09   0.00000000E+00   5.07456314E+09   0.076232224     
  18               1.54881662E-03   1.27826017E-04   2139.85723792    1.47007908E-09   4.32673500E+14   3.48462054E+09   0.00000000E+00   5.04064080E+09   0.059483777     
  19               1.81970086E-03   1.46086720E-04   1992.83129954    1.96989930E-09   5.30965180E+14   3.48461885E+09   0.00000000E+00   5.00631515E+09   0.072652994     
  20               2.13796209E-03   1.67051250E-04   2179.97671937    1.86050226E-09   5.55039274E+14   3.48461712E+09   0.00000000E+00   4.97117038E+09   0.059299362     
  21               2.51188643E-03   1.90976388E-04   2042.37624666    2.48331283E-09   6.77282358E+14   3.48461527E+09   0.00000000E+00   4.93558494E+09   0.069765909     
  22               2.95120923E-03   2.18451378E-04   2222.78497643    2.34945313E-09   7.11841290E+14   3.48461341E+09   0.00000000E+00   4.89908848E+09   0.05928715      
  23               3.46736850E-03   2.49794957E-04   2095.70298153    3.11930841E-09   8.63335849E+14   3.48461142E+09   0.00000000E+00   4.86210007E+09   0.067228581     
  24               4.07380278E-03   2.85805601E-04   2269.61185653    2.95489972E-09   9.12105310E+14   3.48460951E+09   0.00000000E+00   4.82404900E+09   0.059232356     
  25               4.78630092E-03   3.26859551E-04   2154.87714795    3.89378836E-09   1.09866301E+15   3.48460748E+09   0.00000000E+00   4.78542072E+09   0.064915519     
  26               5.62341325E-03   3.74088103E-04   2323.11674222    3.68812847E-09   1.16634948E+15   3.48460572E+09   0.00000000E+00   4.74543703E+09   0.059312377     
  27               6.60693448E-03   4.27877811E-04   2225.32962439    4.79802331E-09   1.39267973E+15   3.48460391E+09   0.00000000E+00   4.70468806E+09   0.062879924     
  28               7.76247117E-03   4.89710845E-04   2394.03935118    4.50149001E-09   1.48161128E+15   3.48460312E+09   0.00000000E+00   4.66192828E+09   0.059615282     
  29               9.12010839E-03   5.61340567E-04   2435.64992098    4.94330898E-09   1.66931156E+15   3.46289146E+09   2.17138394E+07   4.61388015E+09   0.059939476     
  30               1.07151931E-02   6.44227347E-04   2434.38054415    5.76297255E-09   1.91679879E+15   3.44280652E+09   4.18020032E+07   4.56476137E+09   0.060314911     
  31               1.25892541E-02   7.40301302E-04   2477.62598779    6.33913283E-09   2.16420604E+15   3.42213806E+09   6.24537929E+07   4.51446361E+09   0.060929147     
  32               1.47910839E-02   8.51121460E-04   2477.18679068    7.39828876E-09   2.48862022E+15   3.40050050E+09   8.40855982E+07   4.46328024E+09   0.061188193     
  33               1.73780083E-02   9.79117731E-04   2521.70527652    8.14415473E-09   2.81233096E+15   3.37713620E+09   1.07418840E+08   4.41110138E+09   0.062036979     
  34               2.04173794E-02   1.12663395E-03   2522.06651995    9.50598149E-09   3.23557996E+15   3.35207139E+09   1.32477849E+08   4.35807342E+09   0.062202929     
  35               2.39883292E-02   1.29703105E-03   2567.73187784    1.04716728E-08   3.65869780E+15   3.32463835E+09   1.59899768E+08   4.30403002E+09   0.063065445     
  36               2.81838293E-02   1.49335256E-03   2568.85211937    1.22217241E-08   4.21064946E+15   3.29505458E+09   1.89490416E+08   4.24914214E+09   0.063171227     
  37               3.31131121E-02   1.71998284E-03   2615.57839067    1.34717912E-08   4.76301789E+15   3.26265121E+09   2.21868992E+08   4.19325343E+09   0.064285297     
  38               3.89045145E-02   1.98082369E-03   2617.58355759    1.57134292E-08   5.48114269E+15   3.22774150E+09   2.56796230E+08   4.13655055E+09   0.064261238     
  39               4.57088190E-02   2.28144656E-03   2665.21121700    1.73290279E-08   6.20018299E+15   3.18967813E+09   2.94800601E+08   4.07890330E+09   0.065722734     
  40               5.37031796E-02   2.62675156E-03   2668.30006170    2.01838366E-08   7.13033891E+15   3.14878706E+09   3.35722631E+08   4.02050714E+09   0.065577912     
  41               6.30957344E-02   3.02359528E-03   2716.64140396    2.22628774E-08   8.06152458E+15   3.10442733E+09   3.80114164E+08   3.96126966E+09   0.067027308     
  42               7.41310241E-02   3.47784356E-03   2720.70161585    2.58774925E-08   9.25880565E+15   3.05707465E+09   4.27530197E+08   3.90141398E+09   0.066846327     
  43               8.70963590E-02   3.99759848E-03   2769.57471768    2.85309597E-08   1.04547084E+16   3.00605235E+09   4.78567167E+08   3.84088871E+09   0.068510653     
  44               1.02329299E-01   4.58965259E-03   2774.61309194    3.30636295E-08   1.19812801E+16   2.95184924E+09   5.32836460E+08   3.77992314E+09   0.0682141       
  45               1.20226443E-01   5.26316705E-03   2823.73620293    3.64149770E-08   1.35004695E+16   2.89379633E+09   5.90819388E+08   3.71850825E+09   0.070280225     
  46               1.41253754E-01   6.02579916E-03   2829.88811884    4.20245324E-08   1.54230841E+16   2.83217090E+09   6.52510692E+08   3.65685276E+09   0.06987251      
  47               1.65958691E-01   6.88758474E-03   2878.97010729    4.62046027E-08   1.73282873E+16   2.76622207E+09   7.18528824E+08   3.59497574E+09   0.071865749     
  48               1.94984460E-01   7.85677172E-03   2885.99307911    5.30652464E-08   1.97185370E+16   2.69633142E+09   7.88505924E+08   3.53307426E+09   0.071431044     
  49               2.29086765E-01   8.94424379E-03   2934.80797327    5.82061601E-08   2.20744442E+16   2.62161509E+09   8.63280473E+08   3.47116806E+09   0.073606443     
  50               2.69153480E-01   1.01590388E-02   2942.66544753    6.64841062E-08   2.50056166E+16   2.54240044E+09   9.41295153E+08   3.40940995E+09   0.073248092     
  51               3.16227766E-01   1.15132331E-02   2991.11954294    7.27197307E-08   2.78797816E+16   2.45752254E+09   1.02786675E+09   3.34779533E+09   0.075248341     
  52               3.71535229E-01   1.30169062E-02   2999.56501049    8.26040738E-08   3.14322403E+16   2.36750517E+09   1.11778123E+09   3.28643949E+09   0.074146193     
  53               4.36515832E-01   1.46833480E-02   3046.99613622    9.01314300E-08   3.49043077E+16   2.27232152E+09   1.21268866E+09   3.22534313E+09   0.076377403     
  54               5.12861384E-01   1.65239206E-02   3056.13573297    1.01803988E-07   3.91621296E+16   2.17279919E+09   1.31215239E+09   3.16457772E+09   0.076033813     
  55               6.02559586E-01   1.85545134E-02   3103.07165967    1.10754678E-07   4.33095434E+16   2.06920706E+09   1.41579375E+09   3.10408431E+09   0.079678694     
  56               7.07945784E-01   2.07897020E-02   3113.93971714    1.24320248E-07   4.83575069E+16   1.96120992E+09   1.52397205E+09   3.04384529E+09   0.079372757     
  57               8.31763771E-01   2.32491924E-02   3160.45770237    1.34908901E-07   5.32823938E+16   1.85013858E+09   1.63529045E+09   2.98377106E+09   0.083070052     
  58               9.77237221E-01   2.59512572E-02   3173.15539493    1.50587638E-07   5.92369787E+16   1.73559183E+09   1.75005025E+09   2.92382092E+09   0.082598038     
  59               1.14815362E+00   2.89204425E-02   3219.23332727    1.63107175E-07   6.50696272E+16   1.61945825E+09   1.86644947E+09   2.86389345E+09   0.084977212     
  60               1.34896288E+00   3.21796122E-02   3232.94900375    1.81317237E-07   7.20954390E+16   1.50305783E+09   1.98301302E+09   2.80396160E+09   0.084290673     
  61               1.58489319E+00   3.57592178E-02   3278.55536661    1.96148438E-07   7.90007705E+16   1.38874771E+09   2.09748379E+09   2.74392325E+09   0.085937574     
  62               1.86208714E+00   3.96881746E-02   3292.91883889    2.17380215E-07   8.72983303E+16   1.27845499E+09   2.20784106E+09   2.68375321E+09   0.085175928     
  63               2.18776162E+00   4.40038954E-02   3338.12937941    2.34987126E-07   9.54803052E+16   1.17601631E+09   2.31040845E+09   2.62335642E+09   0.087709834     
  64               2.57039578E+00   4.87433478E-02   3353.90671408    2.59649583E-07   1.05266508E+17   1.07959164E+09   2.40692272E+09   2.56268058E+09   0.087131019     
  65               3.01995172E+00   5.39522808E-02   3398.98600682    2.80567396E-07   1.14970461E+17   9.95192526E+08   2.49154048E+09   2.50164007E+09   0.091011326     
  66               3.54813389E+00   5.96780981E-02   3417.28854506    3.09050799E-07   1.26490865E+17   9.14839757E+08   2.57199260E+09   2.44014998E+09   0.090833384     
  67               4.16869383E+00   6.59767653E-02   3462.66712061    3.33889296E-07   1.38008589E+17   8.47135568E+08   2.63984873E+09   2.37813363E+09   0.095497006     
  68               4.89778819E+00   7.29087242E-02   3484.24821350    3.66703293E-07   1.51564068E+17   7.78949998E+08   2.70807958E+09   2.31548701E+09   0.095718828     
  69               5.75439937E+00   8.05422106E-02   3530.36785775    3.96186259E-07   1.65245417E+17   7.21590006E+08   2.76540033E+09   2.25214627E+09   0.10023027      
  70               6.76082975E+00   8.89529389E-02   3555.34446486    4.34087734E-07   1.81219303E+17   6.59252757E+08   2.82768529E+09   2.18801110E+09   0.10043214      
  71               7.94328235E+00   9.82225190E-02   3602.34204761    4.69148076E-07   1.97493115E+17   6.05377888E+08   2.88154461E+09   2.12304647E+09   0.10349402      
  72               9.33254301E+00   1.08442105E-01   3629.87663667    5.13316161E-07   2.16387372E+17   5.45312150E+08   2.94161829E+09   2.05719159E+09   0.10320926      
  73               1.09647820E+01   1.19705902E-01   3677.48941653    5.55139871E-07   2.35770776E+17   4.95262107E+08   2.99174938E+09   1.99045814E+09   0.10556456      
  74               1.28824955E+01   1.32121521E-01   3707.17941405    6.06820894E-07   2.58140293E+17   4.40144455E+08   3.04699225E+09   1.92281251E+09   0.1055574       
  75               1.51356125E+01   1.45795891E-01   3755.62438003    6.56571988E-07   2.81182945E+17   3.99281209E+08   3.08816347E+09   1.85429816E+09   0.1095737       
  76               1.77827941E+01   1.60856991E-01   3788.76312098    7.16534029E-07   3.07516432E+17   3.53368341E+08   3.13449692E+09   1.78485938E+09   0.11102817      
  77               2.08929613E+01   1.77424574E-01   3839.14537005    7.75117360E-07   3.34738029E+17   3.22190458E+08   3.16605572E+09   1.71455217E+09   0.11699853      
  78               2.45470892E+01   1.95643574E-01   3877.29781930    8.43903346E-07   3.65478865E+17   2.85096619E+08   3.20327361E+09   1.64331545E+09   0.11952216      
  79               2.88403150E+01   2.15637682E-01   3930.43448211    9.12209660E-07   3.97383593E+17   2.59748114E+08   3.22851173E+09   1.57124618E+09   0.12570825      
  80               3.38844156E+01   2.37552169E-01   3973.79472041    9.90639019E-07   4.32991540E+17   2.29451719E+08   3.25856952E+09   1.49834397E+09   0.12859698      
  81               3.98107171E+01   2.61498885E-01   4029.83148121    1.06951812E-06   4.70011837E+17   2.07684734E+08   3.28027656E+09   1.42476827E+09   0.13400616      
  82               4.67735141E+01   2.87605290E-01   4077.62828625    1.15847057E-06   5.10875500E+17   1.82448092E+08   3.30554446E+09   1.35059829E+09   0.13667711      
  83               5.49540874E+01   3.15960571E-01   4136.07220681    1.24861260E-06   5.53312674E+17   1.64426601E+08   3.32360220E+09   1.27603684E+09   0.14186148      
  84               6.45654229E+01   3.46665818E-01   4187.77752800    1.34844206E-06   5.99588450E+17   1.45087795E+08   3.34299768E+09   1.20120232E+09   0.14590034      
  85               7.58577575E+01   3.79783526E-01   4249.24804983    1.44950276E-06   6.47365988E+17   1.32490526E+08   3.35579552E+09   1.12628724E+09   0.15377757      
  86               8.91250938E+01   4.15371831E-01   4306.48660291    1.55889319E-06   6.98618014E+17   1.19012398E+08   3.36943294E+09   1.05141643E+09   0.16126086      
  87               1.04712855E+02   4.53445949E-01   4373.09926031    1.66896767E-06   7.51038207E+17   1.09527378E+08   3.37884114E+09   9.76765787E+08   0.17142448      
  88               1.23026877E+02   4.94007145E-01   4437.01836750    1.78597288E-06   8.06432169E+17   9.84534872E+07   3.38965520E+09   9.02467936E+08   0.17970125      
  89               1.44543977E+02   5.37039998E-01   4508.71308079    1.90359603E-06   8.62739878E+17   8.97009459E+07   3.39815322E+09   8.28658728E+08   0.18916037      
  90               1.69824365E+02   5.82532013E-01   4578.14186606    2.02724159E-06   9.21629549E+17   8.06562509E+07   3.40710576E+09   7.55423092E+08   0.1978643       
  91               1.99526231E+02   6.30468785E-01   4654.67848401    2.15105410E-06   9.81069425E+17   7.36682715E+07   3.41399703E+09   6.82825287E+08   0.20834615      
  92               2.34422882E+02   6.80832386E-01   4729.89118433    2.27970681E-06   1.04259322E+18   6.68369060E+07   3.42072230E+09   6.10900458E+08   0.21878614      
  93               2.75422870E+02   7.33603989E-01   4812.11635630    2.40779725E-06   1.10420931E+18   6.17683487E+07   3.42574492E+09   5.39667271E+08   0.23213816      
  94               3.23593657E+02   7.88731730E-01   4894.76023431    2.53892314E-06   1.16714208E+18   5.68841801E+07   3.43052043E+09   4.69155200E+08   0.24577741      
  95               3.80189396E+02   8.46150396E-01   4984.46472029    2.66846928E-06   1.22957458E+18   5.26191185E+07   3.43459213E+09   3.99391650E+08   0.25945917      
  96               4.46683592E+02   9.05784084E-01   5074.22839422    2.80036904E-06   1.29294638E+18   4.82762866E+07   3.43875030E+09   3.30402540E+08   0.27182729      
  97               5.24807460E+02   9.67539764E-01   5169.98481388    2.93035246E-06   1.35551833E+18   4.44997512E+07   3.44238044E+09   2.62225434E+08   0.28450509      
  98               6.16595002E+02   1.03126517E+00   5265.54739664    3.06175765E-06   1.41857618E+18   4.07167117E+07   3.44604837E+09   1.94944376E+08   0.29594933      
  99               7.24435960E+02   1.09674287E+00   5365.87541211    3.19059590E-06   1.48043749E+18   3.72375568E+07   3.44936524E+09   1.28692590E+08   0.30678601      
  100              8.51138038E+02   1.16369006E+00   5464.85673646    3.31997088E-06   1.54235513E+18   3.38312801E+07   3.45263496E+09   6.36421074E+07   0.31690475      
  101              1.00000000E+03   1.23175519E+00   5567.44376225    3.44560704E-06   1.60248658E+18   3.26654354E+07   3.45371781E+09   0.00000000E+00   0.32645422      
