# ATMO pressure-temperature profile
# Effective temperature = 350.0K
# log(g) = 4.0cm/s^2
# M/H = 0.0
# Optical depth grid in band 17 (1.20-1.33microns)
# All parameters in cgs units
#
# Model Level      Optical Depth    Pressure         Temperature      Density          Number Density   Rad Flux         Conv Flux        Radial Extension Adiabatic Gradient
#                                   [Ba]             [K]              [g/cm^3]         [/cm^3]          [ergs/s/cm^2/sr] [ergs/s/cm^2/sr] [cm]             [K/Ba]          
  1                5.00000000E-05   1.00000000E-05   46.00810283      6.12594884E-09   1.57431457E+15   8.50754042E+05   0.00000000E+00   2.86396663E+07   0.34612403      
  2                5.91534807E-05   4.68433160E-04   64.87684510      2.03500556E-07   5.22978395E+16   8.50754042E+05   0.00000000E+00   2.73412721E+07   0.31479557      
  3                6.99826855E-05   1.00680742E-03   71.00373828      3.99643619E-07   1.02704869E+17   8.50753990E+05   0.00000000E+00   2.71524882E+07   0.31483605      
  4                8.27943887E-05   1.63080683E-03   79.26963722      5.79833551E-07   1.49012085E+17   8.50754005E+05   0.00000000E+00   2.70228610E+07   0.31486102      
  5                9.79515255E-05   2.33846268E-03   82.53953084      7.98502239E-07   2.05208000E+17   8.50754025E+05   0.00000000E+00   2.69188613E+07   0.31488008      
  6                1.15883473E-04   3.14269455E-03   89.62105319      9.88325090E-07   2.53990790E+17   8.50754050E+05   0.00000000E+00   2.68283311E+07   0.31489611      
  7                1.37098216E-04   4.06406077E-03   92.65540583      1.23622386E-06   3.17698578E+17   8.50754017E+05   0.00000000E+00   2.67449757E+07   0.3149103       
  8                1.62196734E-04   5.12373258E-03   100.47906780     1.43720341E-06   3.69348804E+17   8.50753665E+05   3.75744571E-01   2.66654763E+07   0.31492329      
  9                1.91890027E-04   6.33132410E-03   106.53794633     1.67493214E-06   4.30443411E+17   8.50751266E+05   2.77447130E+00   2.65876435E+07   0.3149355       
  10               2.27019260E-04   7.60880360E-03   113.80450721     1.88437966E-06   4.84264632E+17   8.50744799E+05   9.24070694E+00   2.65157357E+07   0.3149472       
  11               2.68579588E-04   8.53920716E-03   117.06396595     2.05643753E-06   5.28348107E+17   8.50734271E+05   1.98007779E+01   2.64684693E+07   0.31495863      
  12               3.17748350E-04   9.20962069E-03   120.85859698     2.14808217E-06   5.51937669E+17   8.50725055E+05   2.89954385E+01   2.64365716E+07   0.31496993      
  13               3.75918418E-04   9.74898498E-03   122.05264831     2.25294729E-06   5.78546184E+17   8.50717966E+05   3.60817999E+01   2.64120520E+07   0.31498124      
  14               4.44737657E-04   1.01621044E-02   124.66383003     2.29922793E-06   5.90430832E+17   8.50713660E+05   4.03757240E+01   2.63939006E+07   0.31668247      
  15               5.26155608E-04   1.06491899E-02   125.51460580     2.39310162E-06   6.14537152E+17   8.50711578E+05   4.24482159E+01   2.63731355E+07   0.31806887      
  16               6.22478712E-04   1.12232338E-02   128.66492757     2.46034873E-06   6.31805890E+17   8.50711451E+05   4.25879697E+01   2.63494782E+07   0.32063354      
  17               7.36435649E-04   1.18994808E-02   130.06261784     2.58056236E-06   6.62676180E+17   8.50713321E+05   4.07092886E+01   2.63226402E+07   0.32172064      
  18               8.71254639E-04   1.26958129E-02   133.87082139     2.67493616E-06   6.86910926E+17   8.50717289E+05   3.67537242E+01   2.62923306E+07   0.32343613      
  19               1.03075489E-03   1.36331619E-02   135.91188136     2.82929353E-06   7.26549167E+17   8.50723536E+05   3.04998766E+01   2.62582580E+07   0.32410588      
  20               1.21945479E-03   1.47360165E-02   140.49534794     2.95840067E-06   7.59703265E+17   8.50731718E+05   2.23288337E+01   2.62201381E+07   0.3253555       
  21               1.44269991E-03   1.60329795E-02   143.27427073     3.15634790E-06   8.10535179E+17   8.50741621E+05   1.24222073E+01   2.61776951E+07   0.3257735       
  22               1.70681442E-03   1.75574240E-02   148.74659414     3.32929763E-06   8.54947815E+17   8.50750720E+05   3.33416580E+00   2.61306686E+07   0.32597         
  23               2.01928028E-03   1.93482189E-02   152.32671795     3.58264477E-06   9.20006187E+17   8.50754522E+05   0.00000000E+00   2.60788163E+07   0.32560123      
  24               2.38894914E-03   2.14513159E-02   157.42591293     3.84340954E-06   9.86969102E+17   8.50754630E+05   0.00000000E+00   2.60221403E+07   0.32524205      
  25               2.82629313E-03   2.39204466E-02   160.67554084     4.19912102E-06   1.07831427E+18   8.50754166E+05   0.00000000E+00   2.59606783E+07   0.32514162      
  26               3.34370152E-03   2.68184139E-02   165.67944260     4.56566320E-06   1.17243913E+18   8.50754059E+05   0.00000000E+00   2.58944929E+07   0.32500126      
  27               3.95583167E-03   3.02182881E-02   169.01228688     5.04302023E-06   1.29502281E+18   8.50753890E+05   0.00000000E+00   2.58236387E+07   0.32491297      
  28               4.68002425E-03   3.42053203E-02   174.03720952     5.54361187E-06   1.42356529E+18   8.50753915E+05   0.00000000E+00   2.57482323E+07   0.32478524      
  29               5.53679448E-03   3.88787126E-02   177.34317619     6.18354798E-06   1.58790031E+18   8.50753678E+05   0.00000000E+00   2.56684113E+07   0.3246947       
  30               6.55041330E-03   4.43540736E-02   182.28834156     6.86312812E-06   1.76238366E+18   8.50754122E+05   0.00000000E+00   2.55843621E+07   0.32435245      
  31               7.74959494E-03   5.07653818E-02   185.59336999     7.71523844E-06   1.98121241E+18   8.50754528E+05   0.00000000E+00   2.54962549E+07   0.32401078      
  32               9.16831029E-03   5.82668354E-02   190.69218390     8.61903137E-06   2.21316798E+18   8.50753129E+05   0.00000000E+00   2.54042639E+07   0.32318077      
  33               1.08467493E-02   6.70333489E-02   194.76788229     9.70797933E-06   2.49286875E+18   8.50754186E+05   0.00000000E+00   2.53084269E+07   0.32241017      
  34               1.28324595E-02   7.72590828E-02   200.76169555     1.08576835E-05   2.78736943E+18   8.50750423E+05   0.00000000E+00   2.52088220E+07   0.32087854      
  35               1.51816929E-02   8.91496863E-02   205.94963657     1.22118793E-05   3.13533990E+18   8.50752606E+05   0.00000000E+00   2.51055591E+07   0.31957476      
  36               1.79609996E-02   1.02919603E-01   215.64567381     1.34663928E-05   3.45687116E+18   8.50500901E+05   2.52941340E+02   2.49981689E+07   0.31778721      
  37               2.12491128E-02   1.18069948E-01   225.18388776     1.48663367E-05   3.79776333E+18   8.47846383E+05   2.90843057E+03   2.48909903E+07   0.31642316      
  38               2.51391797E-02   1.34152243E-01   234.50987446     1.62195467E-05   4.14345516E+18   8.45073592E+05   5.68068960E+03   2.47874220E+07   0.31514686      
  39               2.97413996E-02   1.52882992E-01   244.28860605     1.77442591E-05   4.53295911E+18   8.44395017E+05   6.35905413E+03   2.46770124E+07   0.31404628      
  40               3.51861462E-02   1.74696132E-01   254.78732642     1.94404976E-05   4.96628122E+18   8.43987197E+05   6.76690031E+03   2.45595671E+07   0.31288391      
  41               4.16276604E-02   2.00098119E-01   265.75072190     2.13486522E-05   5.45373954E+18   8.43060479E+05   7.69344453E+03   2.44348780E+07   0.31191789      
  42               4.92484201E-02   2.29675112E-01   277.48748245     2.34678038E-05   5.99509929E+18   8.41032507E+05   9.72160123E+03   2.43027385E+07   0.31082694      
  43               5.82643093E-02   2.64100182E-01   289.69250966     2.58483807E-05   6.60324290E+18   8.37299340E+05   1.34545388E+04   2.41629659E+07   0.309875        
  44               6.89307339E-02   3.04163313E-01   302.72350864     2.84880413E-05   7.27757218E+18   8.31006450E+05   1.97475958E+04   2.40153283E+07   0.30875906      
  45               8.15498567E-02   3.50780693E-01   316.22580131     3.14514222E-05   8.03459924E+18   8.21298417E+05   2.94555543E+04   2.38595897E+07   0.30782741      
  46               9.64791575E-02   4.05006898E-01   330.61799538     3.47326437E-05   8.87282205E+18   8.07477522E+05   4.32764530E+04   2.36955231E+07   0.30666118      
  47               1.14141560E-01   4.68053633E-01   345.46972037     3.84138244E-05   9.81321857E+18   7.89604666E+05   6.11494077E+04   2.35229195E+07   0.30560371      
  48               1.35037411E-01   5.41324673E-01   361.26968541     4.24842752E-05   1.08530584E+19   7.68374838E+05   8.23790304E+04   2.33415457E+07   0.30445875      
  49               1.59758657E-01   6.26464233E-01   377.53313308     4.70482156E-05   1.20189644E+19   7.44935216E+05   1.05819266E+05   2.31511112E+07   0.3035959       
  50               1.89005613E-01   7.25355109E-01   394.83606891     5.20877617E-05   1.33063730E+19   7.20516086E+05   1.30237444E+05   2.29513474E+07   0.30274953      
  51               2.23606798E-01   8.40145435E-01   412.61348836     5.77317555E-05   1.47481277E+19   6.96951983E+05   1.53803202E+05   2.27420176E+07   0.30209532      
  52               2.64542408E-01   9.73291115E-01   431.51156651     6.39519847E-05   1.63371448E+19   6.76518945E+05   1.74234311E+05   2.25228922E+07   0.30158725      
  53               3.12972084E-01   1.12765902E+00   450.91401590     7.09067811E-05   1.81138139E+19   6.60538341E+05   1.90217487E+05   2.22936545E+07   0.30110978      
  54               3.70267763E-01   1.30650507E+00   471.51472004     7.85633180E-05   2.00697372E+19   6.47759395E+05   2.02994445E+05   2.20540330E+07   0.30076351      
  55               4.38052539E-01   1.51344899E+00   492.63887506     8.71063478E-05   2.22517898E+19   6.35443870E+05   2.15312071E+05   2.18038725E+07   0.30046729      
  56               5.18246648E-01   1.75275267E+00   515.03660657     9.64981925E-05   2.46495151E+19   6.23083319E+05   2.27669288E+05   2.15428515E+07   0.30027864      
  57               6.13121862E-01   2.02959843E+00   538.01850669     1.06966895E-04   2.73236519E+19   6.11013514E+05   2.39740028E+05   2.12703596E+07   0.30009763      
  58               7.25365844E-01   2.34999680E+00   562.41231306     1.18480982E-04   3.02648336E+19   5.93836202E+05   2.56916720E+05   2.09857553E+07   0.29995373      
  59               8.58158289E-01   2.72103927E+00   587.47448791     1.31335303E-04   3.35483865E+19   5.69355033E+05   2.81396731E+05   2.06883088E+07   0.29979009      
  60               1.01526100E+00   3.15111393E+00   614.11173293     1.45496155E-04   3.71657200E+19   5.38083059E+05   3.12670485E+05   2.03771890E+07   0.29964959      
  61               1.20112443E+00   3.65034231E+00   641.54066475     1.61340300E-04   4.12130961E+19   5.04434361E+05   3.46317544E+05   2.00513503E+07   0.29949858      
  62               1.42101382E+00   4.23266457E+00   670.85445330     1.78902740E-04   4.56994934E+19   4.73684357E+05   3.77067979E+05   1.97085949E+07   0.29936923      
  63               1.68115827E+00   4.91533650E+00   701.30803492     1.98734487E-04   5.07656883E+19   4.48708906E+05   4.02046295E+05   1.93465455E+07   0.29919883      
  64               1.98892727E+00   5.71847226E+00   734.04669998     2.20892922E-04   5.64263772E+19   4.30021956E+05   4.20726805E+05   1.89632246E+07   0.29901625      
  65               2.35303941E+00   6.66369123E+00   768.11719490     2.45985368E-04   6.28366780E+19   4.17341471E+05   4.33417522E+05   1.85577272E+07   0.29877054      
  66               2.78380943E+00   7.77486305E+00   804.60674740     2.73985410E-04   6.99898265E+19   4.12156583E+05   4.38590957E+05   1.81297073E+07   0.29851261      
  67               3.29344035E+00   9.08006463E+00   842.44199986     3.05609139E-04   7.80683084E+19   4.15622555E+05   4.35135856E+05   1.76786495E+07   0.2981874       
  68               3.89636920E+00   1.06047399E+01   882.63602365     3.40670893E-04   8.70250362E+19   4.28920630E+05   4.21828970E+05   1.72061210E+07   0.29776346      
  69               4.60967600E+00   1.23674059E+01   923.62764140     3.79660546E-04   9.69856619E+19   4.52311921E+05   3.98442772E+05   1.67159976E+07   0.29718486      
  70               5.45356761E+00   1.43793419E+01   966.23147784     4.21958239E-04   1.07791289E+20   4.85076590E+05   3.65677242E+05   1.62133285E+07   0.29663066      
  71               6.45195012E+00   1.66558066E+01   1008.89858716    4.68090040E-04   1.19575993E+20   5.25454909E+05   3.25294879E+05   1.57011019E+07   0.29587517      
  72               7.63310614E+00   1.92189844E+01   1052.83178466    5.17590748E-04   1.32220041E+20   5.69283990E+05   2.81476060E+05   1.51803610E+07   0.29506809      
  73               9.03049593E+00   2.20862096E+01   1096.50292337    5.71128774E-04   1.45893934E+20   6.15307778E+05   2.35437418E+05   1.46530068E+07   0.29406724      
  74               1.06837053E+01   2.52731624E+01   1141.12231684    6.27983658E-04   1.60418049E+20   6.61544394E+05   1.89220692E+05   1.41208559E+07   0.29297269      
  75               1.26395671E+01   2.87999945E+01   1185.17135050    6.89017896E-04   1.76009902E+20   7.07322618E+05   1.43414213E+05   1.35846942E+07   0.29173127      
  76               1.49534878E+01   3.26944322E+01   1230.13258913    7.53596832E-04   1.92507527E+20   7.48569590E+05   1.02200136E+05   1.30442378E+07   0.29032053      
  77               1.76910170E+01   3.70021330E+01   1274.61201536    8.23120550E-04   2.10268681E+20   7.86779834E+05   6.39543443E+04   1.24972911E+07   0.28884854      
  78               2.09297047E+01   4.17614191E+01   1320.25236143    8.96870191E-04   2.29110047E+20   8.16538450E+05   3.42308225E+04   1.19433719E+07   0.28738397      
  79               2.47612977E+01   4.70020819E+01   1365.31993323    9.76089374E-04   2.49349501E+20   8.37303268E+05   1.34352716E+04   1.13832559E+07   0.28576063      
  80               2.92943389E+01   5.27527417E+01   1411.40946939    1.05972463E-03   2.70718446E+20   8.47966063E+05   2.79719204E+03   1.08178268E+07   0.28419578      
  81               3.46572422E+01   5.90599852E+01   1456.86698235    1.14938937E-03   2.93629221E+20   8.48762844E+05   0.00000000E+00   1.02463330E+07   0.28245203      
  82               4.10019301E+01   6.59748605E+01   1503.23441634    1.24433274E-03   3.17890544E+20   8.48321442E+05   2.48412644E+03   9.66812394E+06   0.28093465      
  83               4.85081376E+01   7.35648411E+01   1549.58211983    1.34595487E-03   3.43859909E+20   8.40108393E+05   1.07017356E+04   9.08163501E+06   0.27903771      
  84               5.73885036E+01   8.18679477E+01   1596.54965143    1.45376723E-03   3.71413182E+20   8.25267647E+05   2.56758780E+04   8.48805270E+06   0.27755605      
  85               6.78945948E+01   9.08827239E+01   1643.22603557    1.56804297E-03   4.00599006E+20   7.99641773E+05   5.11926838E+04   7.89096839E+06   0.2756636       
  86               8.03240320E+01   1.00580486E+02   1689.76656048    1.68748112E-03   4.31134581E+20   7.64775519E+05   8.60765720E+04   7.29479046E+06   0.27414489      
  87               9.50289215E+01   1.10901454E+02   1735.39665756    1.81251745E-03   4.62875636E+20   7.21150167E+05   1.29721333E+05   6.70458862E+06   0.27237512      
  88               1.12425830E+02   1.21823919E+02   1780.30108827    1.94076440E-03   4.95638403E+20   6.73738948E+05   1.77167457E+05   6.12222278E+06   0.27072115      
  89               1.33007583E+02   1.33345553E+02   1824.17976910    2.07320079E-03   5.29464371E+20   6.21703042E+05   2.29278133E+05   5.54782917E+06   0.26921395      
  90               1.57357229E+02   1.45344305E+02   1866.95080214    2.20813589E-03   5.63885577E+20   5.63108973E+05   2.88024430E+05   4.98702971E+06   0.26764781      
  91               1.86164557E+02   1.57563610E+02   1907.50662445    2.34324669E-03   5.98295459E+20   5.15485721E+05   3.35764728E+05   4.44983720E+06   0.26609862      
  92               2.20245630E+02   1.70698670E+02   1948.56595434    2.48595052E-03   6.34513499E+20   4.65244007E+05   3.86139777E+05   3.90560232E+06   0.26465886      
  93               2.60565913E+02   1.83542284E+02   1986.13015973    2.62558674E-03   6.69351535E+20   3.98777577E+05   4.52951912E+05   3.40283484E+06   0.26315054      
  94               3.08267614E+02   1.95541726E+02   2019.49809278    2.75093362E-03   7.01329062E+20   3.56551350E+05   4.95394244E+05   2.95634817E+06   0.26173396      
  95               3.64702046E+02   2.08780289E+02   2054.24674498    2.88739658E-03   7.36143914E+20   3.37477955E+05   5.14425058E+05   2.48661823E+06   0.26031139      
  96               4.31467909E+02   2.23374134E+02   2090.68086024    3.03525347E-03   7.73875285E+20   3.01954182E+05   5.50158889E+05   1.99364911E+06   0.25902689      
  97               5.10456573E+02   2.36552494E+02   2121.78670324    3.16779951E-03   8.07516952E+20   2.51275963E+05   6.01276053E+05   1.56863962E+06   0.25769538      
  98               6.03905660E+02   2.47713574E+02   2147.15121782    3.27798917E-03   8.35628055E+20   2.21993526E+05   6.30731995E+05   1.22228268E+06   0.25647777      
  99               7.14462436E+02   2.60293610E+02   2174.47681735    3.40107601E-03   8.67030876E+20   2.11990363E+05   6.40718675E+05   8.45517908E+05   0.25538061      
  100              8.45258798E+02   2.74432553E+02   2204.06020123    3.53757345E-03   9.01857692E+20   2.01614660E+05   6.51195874E+05   4.37897000E+05   0.25419697      
  101              1.00000000E+03   2.90250489E+02   2235.53105032    3.68851165E-03   9.40411851E+20   1.95724428E+05   6.57261297E+05   0.00000000E+00   0.25299614      
