# ATMO pressure-temperature profile
# Effective temperature = 500.0K
# log(g) = 5.0cm/s^2
# M/H = 0.0
# Optical depth grid in band 17 (1.20-1.33microns)
# All parameters in cgs units
#
# Model Level      Optical Depth    Pressure         Temperature      Density          Number Density   Rad Flux         Conv Flux        Radial Extension Adiabatic Gradient
#                                   [Ba]             [K]              [g/cm^3]         [/cm^3]          [ergs/s/cm^2/sr] [ergs/s/cm^2/sr] [cm]             [K/Ba]          
  1                5.00000000E-07   1.00000000E-05   86.54026435      3.25680277E-09   8.36965626E+14   3.54356423E+06   0.00000000E+00   3.50513922E+06   0.34582127      
  2                6.19412983E-07   6.51248401E-05   74.13121042      2.47602631E-08   6.36313912E+15   3.54356423E+06   0.00000000E+00   3.44375256E+06   0.34582127      
  3                7.67344888E-07   1.33229417E-04   87.11278530      4.31050254E-08   1.10775589E+16   3.54356423E+06   0.00000000E+00   3.42290598E+06   0.31479383      
  4                9.50606773E-07   2.15971429E-04   78.90627749      7.71426267E-08   1.98248809E+16   3.54356423E+06   0.00000000E+00   3.40855721E+06   0.31481058      
  5                1.17763635E-06   3.16430534E-04   92.85574535      9.60459994E-08   2.46828579E+16   3.54356423E+06   0.00000000E+00   3.39688636E+06   0.31482452      
  6                1.45888650E-06   4.37876617E-04   86.47260429      1.42719360E-07   3.66774433E+16   3.54356423E+06   0.00000000E+00   3.38651340E+06   0.31483678      
  7                1.80730647E-06   5.87700040E-04   94.11167282      1.76003743E-07   4.52311955E+16   3.54356433E+06   0.00000000E+00   3.37706024E+06   0.31690911      
  8                2.23893819E-06   7.66852207E-04   100.69303417     2.14643741E-07   5.51617561E+16   3.54356437E+06   0.00000000E+00   3.36784297E+06   0.31921963      
  9                2.77365477E-06   9.65643013E-04   108.13358185     2.51694975E-07   6.46817636E+16   3.54356425E+06   4.33096348E-01   3.35929020E+06   0.32237202      
  10               3.43607555E-06   1.10899494E-03   113.40944120     2.75658093E-07   7.08281984E+16   3.54356377E+06   1.56129439E+00   3.35384768E+06   0.32229491      
  11               4.25669961E-06   1.18832180E-03   115.61255723     2.89913132E-07   7.44483190E+16   3.54356342E+06   5.96985599E-01   3.35104139E+06   0.32427343      
  12               5.27331001E-06   1.25275814E-03   117.98192974     2.99495685E-07   7.69090732E+16   3.54356323E+06   5.57891348E-01   3.34885462E+06   0.32357522      
  13               6.53271338E-06   1.33230816E-03   119.97125319     3.13232145E-07   8.04365309E+16   3.54356316E+06   7.07832667E-01   3.34625738E+06   0.32503519      
  14               8.09289496E-06   1.43046657E-03   123.18020842     3.27548495E-07   8.41129019E+16   3.54356316E+06   0.00000000E+00   3.34319291E+06   0.32475532      
  15               1.00256884E-05   1.55164237E-03   124.38339896     3.51858496E-07   9.03555950E+16   3.54356342E+06   5.20364962E-01   3.33962352E+06   0.32540247      
  16               1.24200832E-05   1.70099359E-03   130.32247830     3.68147774E-07   9.45386043E+16   3.54356366E+06   9.67933700E+00   3.33547384E+06   0.32571037      
  17               1.53863215E-05   1.88498501E-03   132.52270460     4.01195858E-07   1.03025196E+17   3.54356375E+06   0.00000000E+00   3.33068635E+06   0.32590821      
  18               1.90609746E-05   2.11177992E-03   137.78851598     4.32289283E-07   1.11009839E+17   3.54356382E+06   0.00000000E+00   3.32524047E+06   0.32595615      
  19               2.36132303E-05   2.39135546E-03   139.78032871     4.82543990E-07   1.23915011E+17   3.54356389E+06   0.00000000E+00   3.31911918E+06   0.32588719      
  20               2.92526829E-05   2.73597605E-03   145.00167803     5.32203982E-07   1.36667454E+17   3.54356399E+06   0.00000000E+00   3.31231879E+06   0.32575601      
  21               3.62389832E-05   3.16069300E-03   146.98353437     6.06530263E-07   1.55754093E+17   3.54356414E+06   0.00000000E+00   3.30484339E+06   0.32545829      
  22               4.48937934E-05   3.68403461E-03   152.30605704     6.82252921E-07   1.75199300E+17   3.54356435E+06   0.00000000E+00   3.29670785E+06   0.32515118      
  23               5.56155970E-05   4.32851872E-03   154.96853932     7.87834444E-07   2.02311980E+17   3.54356403E+06   0.00000000E+00   3.28791718E+06   0.32448472      
  24               6.88980457E-05   5.12219925E-03   159.32805869     9.06782712E-07   2.32857400E+17   3.54356411E+06   0.00000000E+00   3.27852694E+06   0.32434213      
  25               8.53526881E-05   6.09897723E-03   162.50957777     1.05856722E-06   2.71834071E+17   3.54356426E+06   0.00000000E+00   3.26855717E+06   0.32336171      
  26               1.05737126E-04   7.30059311E-03   167.10198464     1.23229962E-06   3.16448015E+17   3.54356431E+06   0.00000000E+00   3.25803638E+06   0.32311772      
  27               1.30989898E-04   8.77816249E-03   170.30640142     1.45384176E-06   3.73334807E+17   3.54356433E+06   0.00000000E+00   3.24699732E+06   0.32191432      
  28               1.62273687E-04   1.05938551E-02   175.04469285     1.70705605E-06   4.38360001E+17   3.54356428E+06   0.00000000E+00   3.23547182E+06   0.32164772      
  29               2.01028857E-04   1.28231575E-02   178.31363628     2.02846258E-06   5.20878295E+17   3.54356444E+06   0.00000000E+00   3.22349164E+06   0.32055912      
  30               2.49039768E-04   1.55580397E-02   183.01999358     2.39777313E-06   6.15718466E+17   3.54356448E+06   0.00000000E+00   3.21109080E+06   0.32022034      
  31               3.08516931E-04   1.89097872E-02   186.30463633     2.86320241E-06   7.35171762E+17   3.54356457E+06   0.00000000E+00   3.19829858E+06   0.31859218      
  32               3.82198786E-04   2.30114998E-02   191.18886420     3.39512304E-06   8.71782551E+17   3.54356455E+06   0.00000000E+00   3.18514295E+06   0.31824757      
  33               4.73477780E-04   2.80189006E-02   194.93868788     4.05554262E-06   1.04106751E+18   3.54356439E+06   0.00000000E+00   3.17164782E+06   0.31668605      
  34               5.86556569E-04   3.41120792E-02   200.77636196     4.79329337E-06   1.23061286E+18   3.54356374E+06   0.00000000E+00   3.15782800E+06   0.3162701       
  35               7.26641509E-04   4.14816771E-02   205.00793747     5.71436041E-06   1.46558655E+18   3.54356168E+06   0.00000000E+00   3.14374453E+06   0.31475245      
  36               9.00182369E-04   5.03069552E-02   212.05424460     6.69583452E-06   1.71833130E+18   3.54355976E+06   0.00000000E+00   3.12947722E+06   0.31425336      
  37               1.11516929E-03   6.06152855E-02   217.42207463     7.90460944E-06   2.01931634E+18   3.54355995E+06   0.00000000E+00   3.11529697E+06   0.3125704       
  38               1.38150068E-03   7.21500473E-02   228.86755126     8.93828698E-06   2.28338023E+18   3.54356476E+06   0.00000000E+00   3.10157421E+06   0.31101372      
  39               1.71143891E-03   8.61563972E-02   240.43369640     1.01600090E-05   2.59548209E+18   3.54356727E+06   0.00000000E+00   3.08687647E+06   0.30917069      
  40               2.12017497E-03   1.03181203E-01   249.88238212     1.17075723E-05   2.99082353E+18   3.54356388E+06   0.00000000E+00   3.07126651E+06   0.30797899      
  41               2.62652780E-03   1.23881524E-01   260.44679336     1.34861946E-05   3.44519146E+18   3.54356619E+06   0.00000000E+00   3.05479251E+06   0.30666227      
  42               3.25381085E-03   1.49048120E-01   269.79044041     1.56639700E-05   4.00152731E+18   3.54356267E+06   0.00000000E+00   3.03747726E+06   0.30567388      
  43               4.03090537E-03   1.79646737E-01   280.58009886     1.81536671E-05   4.63754685E+18   3.54356689E+06   0.00000000E+00   3.01933177E+06   0.30459204      
  44               4.99359024E-03   2.16856205E-01   290.60519837     2.11577934E-05   5.40498277E+18   3.54356204E+06   0.00000000E+00   3.00034566E+06   0.30385207      
  45               6.18618926E-03   2.62111360E-01   302.33310328     2.45811411E-05   6.27951326E+18   3.54356753E+06   0.00000000E+00   2.98050154E+06   0.30312235      
  46               7.66361189E-03   3.17144301E-01   313.63980503     2.86699961E-05   7.32405464E+18   3.54356153E+06   0.00000000E+00   2.95977113E+06   0.30256371      
  47               9.49388141E-03   3.84049625E-01   326.94517792     3.33053735E-05   8.50821094E+18   3.54356777E+06   0.00000000E+00   2.93811954E+06   0.30192734      
  48               1.17612668E-02   4.65343231E-01   340.42408413     3.87574345E-05   9.90099778E+18   3.54356121E+06   0.00000000E+00   2.91549282E+06   0.30143172      
  49               1.45701627E-02   5.64036867E-01   356.46657189     4.48632355E-05   1.14607891E+19   3.54356769E+06   0.00000000E+00   2.89182455E+06   0.30099773      
  50               1.80498959E-02   6.83775542E-01   373.20621197     5.19477212E-05   1.32705994E+19   3.54356173E+06   0.00000000E+00   2.86702146E+06   0.30067971      
  51               2.23606798E-02   8.28910332E-01   393.24347750     5.97653820E-05   1.52676384E+19   3.54356573E+06   0.00000000E+00   2.84097405E+06   0.30037467      
  52               2.77009907E-02   1.00452838E+00   415.58396038     6.85341622E-05   1.75077072E+19   3.53881832E+06   4.74546400E+03   2.81353363E+06   0.30012321      
  53               3.43167066E-02   1.21657883E+00   441.23699616     7.81757402E-05   1.99707407E+19   3.51969240E+06   2.38723569E+04   2.78456355E+06   0.29992633      
  54               4.25124273E-02   1.47229501E+00   466.07570037     8.95657594E-05   2.28804320E+19   3.49462588E+06   4.89378991E+04   2.75400370E+06   0.29978066      
  55               5.26654988E-02   1.78000482E+00   494.56128979     1.02049699E-04   2.60691516E+19   3.47070194E+06   7.28635478E+04   2.72181781E+06   0.29958229      
  56               6.52433875E-02   2.15001540E+00   522.06188404     1.16776707E-04   2.98294623E+19   3.46791622E+06   7.56482649E+04   2.68792240E+06   0.29940411      
  57               8.08252026E-02   2.59519247E+00   553.66521145     1.32910339E-04   3.39506565E+19   3.48168483E+06   6.18808561E+04   2.65218891E+06   0.29922292      
  58               1.00128360E-01   3.13034866E+00   584.17192055     1.51945576E-04   3.88130591E+19   3.51244078E+06   3.11232484E+04   2.61453090E+06   0.29900271      
  59               1.24041612E-01   3.77360610E+00   619.24321762     1.72794704E-04   4.41388635E+19   3.54356630E+06   0.00000000E+00   2.57483222E+06   0.29868087      
  60               1.53665970E-01   4.54881754E+00   652.69375833     1.97616320E-04   5.04794828E+19   3.54355933E+06   0.00000000E+00   2.53288103E+06   0.29836609      
  61               1.90365394E-01   5.48766813E+00   688.20308509     2.26101196E-04   5.77559942E+19   3.54357414E+06   0.00000000E+00   2.48846553E+06   0.29795085      
  62               2.35829593E-01   6.62732734E+00   725.08160617     2.59167391E-04   6.62029548E+19   3.54355553E+06   0.00000000E+00   2.44138575E+06   0.29740539      
  63               2.92151824E-01   8.01243653E+00   766.50411373     2.96397936E-04   7.57139583E+19   3.54356657E+06   0.00000000E+00   2.39141019E+06   0.29667603      
  64               3.61925265E-01   9.70334928E+00   811.75252210     3.38937058E-04   8.65812512E+19   3.48952082E+06   5.40408029E+04   2.33806125E+06   0.29578029      
  65               4.48362417E-01   1.17642658E+01   858.71836915     3.88448776E-04   9.92292972E+19   3.43208726E+06   1.11479855E+05   2.28126288E+06   0.29468522      
  66               5.55443005E-01   1.42487070E+01   909.06105868     4.44427093E-04   1.13529374E+20   3.40532291E+06   1.38240440E+05   2.22146812E+06   0.29338683      
  67               6.88097217E-01   1.71974227E+01   959.90857785     5.07982298E-04   1.29765526E+20   3.43550317E+06   1.08063757E+05   2.15940849E+06   0.29193073      
  68               8.52432700E-01   2.06638717E+01   1013.26093128    5.78234918E-04   1.47712157E+20   3.51855981E+06   2.50010201E+04   2.09544837E+06   0.29029493      
  69               1.05601576E+00   2.46886476E+01   1066.14443052    6.56598707E-04   1.67728591E+20   3.54360243E+06   0.00000000E+00   2.03012918E+06   0.2885228       
  70               1.30821975E+00   2.92992510E+01   1115.41323289    7.44810577E-04   1.90259594E+20   3.54344375E+06   0.00000000E+00   1.96419880E+06   0.28687136      
  71               1.62065660E+00   3.45500254E+01   1162.32716159    8.42837182E-04   2.15300889E+20   3.54369951E+06   0.00000000E+00   1.89792699E+06   0.28517639      
  72               2.00771148E+00   4.05499505E+01   1206.67353261    9.52846761E-04   2.43403254E+20   3.54329821E+06   0.00000000E+00   1.83097512E+06   0.28362923      
  73               2.48720511E+00   4.73885501E+01   1250.23002898    1.07474348E-03   2.74542343E+20   3.54392767E+06   0.00000000E+00   1.76339739E+06   0.28200415      
  74               3.08121427E+00   5.51355250E+01   1292.96777117    1.20910454E-03   3.08865680E+20   3.54316297E+06   0.00000000E+00   1.69543821E+06   0.28047003      
  75               3.81708825E+00   6.38479007E+01   1336.45841826    1.35459541E-03   3.46032596E+20   3.54417643E+06   0.00000000E+00   1.62736123E+06   0.27882874      
  76               4.72870805E+00   7.36573628E+01   1380.60389075    1.51273721E-03   3.86431848E+20   3.54303687E+06   0.00000000E+00   1.55883463E+06   0.27726259      
  77               5.85804632E+00   8.47252770E+01   1426.47490441    1.68407970E-03   4.30204255E+20   3.54428634E+06   0.00000000E+00   1.48949150E+06   0.27553657      
  78               7.25709989E+00   9.72023317E+01   1473.91627698    1.86988229E-03   4.77671915E+20   3.54299941E+06   0.00000000E+00   1.41918030E+06   0.27383561      
  79               8.99028379E+00   1.11177678E+02   1523.58471853    2.06898419E-03   5.28538749E+20   3.54352791E+06   0.00000000E+00   1.34812802E+06   0.27202623      
  80               1.11373970E+01   1.26671588E+02   1575.30504959    2.27990066E-03   5.82425510E+20   3.54305703E+06   0.00000000E+00   1.27678918E+06   0.27027895      
  81               1.37972966E+01   1.43738635E+02   1629.74452297    2.50063529E-03   6.38821944E+20   3.45153360E+06   9.20375533E+04   1.20531034E+06   0.26842614      
  82               1.70924493E+01   1.62412791E+02   1683.98748573    2.73445752E-03   6.98565622E+20   3.23160329E+06   3.11966531E+05   1.13389633E+06   0.26665875      
  83               2.11745701E+01   1.82678474E+02   1737.33037160    2.98264750E-03   7.61606782E+20   2.99712504E+06   5.46444056E+05   1.06292610E+06   0.26487081      
  84               2.62316072E+01   2.04600465E+02   1790.20105686    3.24188484E-03   8.27809960E+20   2.76669391E+06   7.76874302E+05   9.92427090E+05   0.26315893      
  85               3.24963962E+01   2.28300195E+02   1842.30353965    3.51510365E-03   8.97575387E+20   2.53550434E+06   1.00806300E+06   9.22220440E+05   0.2614304       
  86               4.02573794E+01   2.53788317E+02   1893.92406054    3.80119615E-03   9.70587968E+20   2.29200430E+06   1.25156269E+06   8.52491654E+05   0.25979111      
  87               4.98718870E+01   2.80872161E+02   1944.20935584    4.09886922E-03   1.04638500E+21   2.02966666E+06   1.51390092E+06   7.83875426E+05   0.25816225      
  88               6.17825886E+01   3.09027237E+02   1992.70007779    4.40175356E-03   1.12326095E+21   1.81945241E+06   1.72411533E+06   7.17589208E+05   0.25665116      
  89               7.65378750E+01   3.40311721E+02   2042.39431075    4.73463647E-03   1.20687740E+21   1.62507468E+06   1.91849343E+06   6.49055281E+05   0.25502072      
  90               9.48171070E+01   3.72539799E+02   2089.98655880    5.06525425E-03   1.29108556E+21   1.39524809E+06   2.14832056E+06   5.83244528E+05   0.25353453      
  91               1.17461894E+02   4.04571966E+02   2133.95292865    5.38725350E-03   1.37320947E+21   1.23942051E+06   2.30414844E+06   5.21924436E+05   0.25209374      
  92               1.45514845E+02   4.41152784E+02   2180.97811690    5.74738219E-03   1.46508748E+21   1.07840680E+06   2.46516372E+06   4.56183550E+05   0.25054293      
  93               1.80267568E+02   4.74433766E+02   2220.84044669    6.07191306E-03   1.54733401E+21   8.55729892E+05   2.68785593E+06   3.99842821E+05   0.24918368      
  94               2.23320145E+02   5.02314607E+02   2252.69286571    6.33764215E-03   1.61510091E+21   7.26361365E+05   2.81730348E+06   3.54898004E+05   0.24802788      
  95               2.76654794E+02   5.34937360E+02   2287.94932410    6.64499152E-03   1.69348896E+21   6.77407353E+05   2.86636612E+06   3.04627867E+05   0.24676069      
  96               3.42727143E+02   5.72995977E+02   2327.07684181    6.99847208E-03   1.78347361E+21   6.30942715E+05   2.91268128E+06   2.48816876E+05   0.24537406      
  97               4.24579284E+02   6.17423904E+02   2369.89132897    7.40422307E-03   1.88703888E+21   5.44759969E+05   3.00727498E+06   1.87098375E+05   0.24427422      
  98               5.25979842E+02   6.55428283E+02   2404.74981597    7.75220635E-03   1.97415441E+21   4.31074042E+05   3.11253544E+06   1.36930349E+05   0.24341383      
  99               6.51597486E+02   6.86641659E+02   2431.98664673    8.03013044E-03   2.04500702E+21   3.71731995E+05   3.17234056E+06   9.73693670E+04   0.24244673      
  100              8.07215886E+02   7.23930721E+02   2463.41042574    8.35783309E-03   2.12856086E+21   3.52608376E+05   3.19155290E+06   5.18523616E+04   0.24132883      
  101              1.00000000E+03   7.68256516E+02   2498.80446083    8.74345855E-03   2.22689541E+21   3.41348090E+05   3.20310463E+06   0.00000000E+00   0.2400494       
