# ATMO pressure-temperature profile
# Effective temperature = 2000.0K
# log(g) = 5.0cm/s^2
# M/H = 0.0
# Optical depth grid in band 17 (1.20-1.33microns)
# All parameters in cgs units
#
# Model Level      Optical Depth    Pressure         Temperature      Density          Number Density   Rad Flux         Conv Flux        Radial Extension Adiabatic Gradient
#                                   [Ba]             [K]              [g/cm^3]         [/cm^3]          [ergs/s/cm^2/sr] [ergs/s/cm^2/sr] [cm]             [K/Ba]          
  1                1.00000000E-07   1.00000000E-05   633.30674479     4.47229285E-10   1.14369896E+14   9.07184145E+08   0.00000000E+00   8.79456827E+06   0.29794592      
  2                1.25892541E-07   1.79510470E-05   653.70848177     7.77764206E-10   1.98898499E+14   9.07184145E+08   0.00000000E+00   8.65975410E+06   0.29780092      
  3                1.58489319E-07   2.78901668E-05   673.12887317     1.17352264E-09   3.00108801E+14   9.07184145E+08   0.00000000E+00   8.55571925E+06   0.2976061       
  4                1.99526231E-07   4.02179262E-05   683.11809112     1.66749460E-09   4.26431939E+14   9.07184145E+08   0.00000000E+00   8.46759279E+06   0.29747261      
  5                2.51188643E-07   5.55045371E-05   698.95926939     2.24913038E-09   5.75178251E+14   9.07184145E+08   0.00000000E+00   8.38865733E+06   0.29723995      
  6                3.16227766E-07   7.44920379E-05   707.14766205     2.98359235E-09   7.63001840E+14   9.07184145E+08   0.00000000E+00   8.31535955E+06   0.29709295      
  7                3.98107171E-07   9.80620174E-05   721.76659655     3.84806292E-09   9.84078818E+14   9.07184145E+08   0.00000000E+00   8.24579808E+06   0.29682177      
  8                5.01187234E-07   1.27335847E-04   729.22014734     4.94574490E-09   1.26478837E+15   9.07184145E+08   0.00000000E+00   8.17869496E+06   0.297022        
  9                6.30957344E-07   1.63662078E-04   743.33338304     6.23596559E-09   1.59474138E+15   9.07184145E+08   0.00000000E+00   8.11328363E+06   0.29680775      
  10               7.94328235E-07   2.08745469E-04   750.55309203     7.87728084E-09   2.01447312E+15   9.07184145E+08   0.00000000E+00   8.04895910E+06   0.29668671      
  11               1.00000000E-06   2.64658762E-04   764.64830508     9.80317485E-09   2.50697721E+15   9.07184145E+08   0.00000000E+00   7.98533173E+06   0.29645306      
  12               1.25892541E-06   3.34045255E-04   771.97920981     1.22558355E-08   3.13419160E+15   9.07184145E+08   0.00000000E+00   7.92202933E+06   0.2963201       
  13               1.58489319E-06   4.20124500E-04   786.41124701     1.51314711E-08   3.86949360E+15   9.07184145E+08   0.00000000E+00   7.85881908E+06   0.29606149      
  14               1.99526231E-06   5.26949524E-04   794.06021145     1.87961834E-08   4.80663806E+15   9.07184145E+08   0.00000000E+00   7.79547623E+06   0.29591059      
  15               2.51188643E-06   6.59488153E-04   808.97086103     2.30901358E-08   5.90472885E+15   9.07184145E+08   0.00000000E+00   7.73185609E+06   0.29562137      
  16               3.16227766E-06   8.23927474E-04   817.00775349     2.85638203E-08   7.30446893E+15   9.07184145E+08   0.00000000E+00   7.66782597E+06   0.2954511       
  17               3.98107171E-06   1.02780172E-03   832.48528398     3.49691161E-08   8.94249309E+15   9.07184144E+08   0.00000000E+00   7.60331820E+06   0.29512913      
  18               5.01187234E-06   1.28050113E-03   840.98918181     4.31263250E-08   1.10284733E+16   9.07184145E+08   0.00000000E+00   7.53824671E+06   0.29493533      
  19               6.30957344E-06   1.59342363E-03   857.05418832     5.26592165E-08   1.34663163E+16   9.07184144E+08   0.00000000E+00   7.47258253E+06   0.29457681      
  20               7.94328235E-06   1.98071682E-03   865.99962829     6.47824031E-08   1.65664908E+16   9.07184145E+08   0.00000000E+00   7.40627327E+06   0.29435955      
  21               1.00000000E-05   2.45950718E-03   882.57110395     7.89313339E-08   2.01847898E+16   9.07184144E+08   0.00000000E+00   7.33931685E+06   0.29396617      
  22               1.25892541E-05   3.05094322E-03   891.84591328     9.68938666E-08   2.47782219E+16   9.07184145E+08   0.00000000E+00   7.27168753E+06   0.29372632      
  23               1.58489319E-05   3.78062735E-03   908.84357064     1.17821774E-07   3.01300999E+16   9.07184144E+08   0.00000000E+00   7.20339487E+06   0.29329821      
  24               1.99526231E-05   4.68003793E-03   918.37014921     1.44338904E-07   3.69111396E+16   9.07184145E+08   0.00000000E+00   7.13442592E+06   0.29303806      
  25               2.51188643E-05   5.78764582E-03   935.72774124     1.75187540E-07   4.48000275E+16   9.07184144E+08   0.00000000E+00   7.06477245E+06   0.29257783      
  26               3.16227766E-05   7.15154748E-03   945.45829163     2.14244384E-07   5.47877533E+16   9.07184145E+08   0.00000000E+00   6.99437178E+06   0.29229787      
  27               3.98107171E-05   8.83035791E-03   963.23064466     2.59656326E-07   6.64008831E+16   9.07184145E+08   0.00000000E+00   6.92319349E+06   0.29180381      
  28               5.01187234E-05   1.08959065E-02   973.17619167     3.17120186E-07   8.10956819E+16   9.07184145E+08   0.00000000E+00   6.85121146E+06   0.29192256      
  29               6.30957344E-05   1.34355246E-02   991.41879038     3.83838617E-07   9.81574624E+16   9.07184145E+08   0.00000000E+00   6.77841971E+06   0.29140315      
  30               7.94328235E-05   1.65560655E-02   1001.75069656    4.68112064E-07   1.19708041E+17   9.07184145E+08   0.00000000E+00   6.70480227E+06   0.29099146      
  31               1.00000000E-04   2.03870756E-02   1020.63153551    5.65766893E-07   1.44681096E+17   9.07184147E+08   0.00000000E+00   6.63035999E+06   0.29028599      
  32               1.25892541E-04   2.50858674E-02   1031.43048926    6.88877445E-07   1.76163121E+17   9.07184144E+08   0.00000000E+00   6.55509439E+06   0.28984909      
  33               1.58489319E-04   3.08434082E-02   1051.33068012    8.30950253E-07   2.12495072E+17   9.07184147E+08   0.00000000E+00   6.47899545E+06   0.28911514      
  34               1.99526231E-04   3.78913829E-02   1063.07318561    1.00955614E-06   2.58168429E+17   9.07184147E+08   0.00000000E+00   6.40204492E+06   0.28865551      
  35               2.51188643E-04   4.65080353E-02   1084.30917999    1.21486256E-06   3.10670988E+17   9.07184146E+08   0.00000000E+00   6.32423950E+06   0.2879428       
  36               3.16227766E-04   5.70295971E-02   1097.34475561    1.47200928E-06   3.76428979E+17   9.07184150E+08   0.00000000E+00   6.24556004E+06   0.28755383      
  37               3.98107171E-04   6.98592949E-02   1120.52549809    1.76585375E-06   4.51573340E+17   9.07184139E+08   0.00000000E+00   6.16598372E+06   0.28685752      
  38               5.01187234E-04   8.54853379E-02   1135.45168886    2.13243618E-06   5.45316717E+17   9.07184165E+08   0.00000000E+00   6.08545817E+06   0.28637199      
  39               6.30957344E-04   1.04503587E-01   1161.08020760    2.54929925E-06   6.51920767E+17   9.07184123E+08   0.00000000E+00   6.00388973E+06   0.28554607      
  40               7.94328235E-04   1.27641780E-01   1178.67154217    3.06727224E-06   7.84378883E+17   9.07184197E+08   0.00000000E+00   5.92114451E+06   0.28497214      
  41               1.00000000E-03   1.55752844E-01   1207.74641251    3.65267554E-06   9.34084291E+17   9.07184073E+08   0.00000000E+00   5.83716068E+06   0.28400737      
  42               1.25892541E-03   1.89844689E-01   1229.00696046    4.37517054E-06   1.11884506E+18   9.07184273E+08   0.00000000E+00   5.75188062E+06   0.28320547      
  43               1.58489319E-03   2.31053832E-01   1262.55307959    5.18337968E-06   1.32552941E+18   9.07183982E+08   0.00000000E+00   5.66534603E+06   0.28190544      
  44               1.99526231E-03   2.80707792E-01   1288.70124283    6.16951945E-06   1.57771320E+18   9.07184470E+08   0.00000000E+00   5.57754052E+06   0.2807987       
  45               2.51188643E-03   3.40200711E-01   1327.94209988    7.25613526E-06   1.85558955E+18   9.07183845E+08   0.00000000E+00   5.48862297E+06   0.27927928      
  46               3.16227766E-03   4.11019143E-01   1360.07038702    8.55953064E-06   2.18890294E+18   9.07184754E+08   0.00000000E+00   5.39876247E+06   0.27823077      
  47               3.98107171E-03   4.94609385E-01   1405.65902496    9.96639405E-06   2.54863831E+18   9.07183289E+08   0.00000000E+00   5.30825949E+06   0.27680601      
  48               5.01187234E-03   5.92459733E-01   1444.18354135    1.16200848E-05   2.97140799E+18   9.07184855E+08   0.00000000E+00   5.21733291E+06   0.27532531      
  49               6.30957344E-03   7.04922054E-01   1496.36899143    1.33452523E-05   3.41215097E+18   9.07183875E+08   0.00000000E+00   5.12702060E+06   0.27329372      
  50               7.94328235E-03   8.29071775E-01   1541.01539782    1.52467297E-05   3.89682580E+18   9.07186350E+08   0.00000000E+00   5.03998180E+06   0.27152626      
  51               1.00000000E-02   9.61602414E-01   1598.06479611    1.70546994E-05   4.35839914E+18   9.07182307E+08   0.00000000E+00   4.95779321E+06   0.26926143      
  52               1.25892541E-02   1.09304084E+00   1653.88668652    1.87432581E-05   4.78692340E+18   9.05252192E+08   1.94051090E+06   4.88427312E+06   0.26703081      
  53               1.58489319E-02   1.20663520E+00   1697.92813480    2.01777573E-05   5.14733608E+18   9.02123357E+08   5.05943679E+06   4.82585673E+06   0.26509369      
  54               1.99526231E-02   1.30526188E+00   1733.54628494    2.13850415E-05   5.45365990E+18   8.99162763E+08   8.00948489E+06   4.77837514E+06   0.26340189      
  55               2.51188643E-02   1.39128236E+00   1762.82481158    2.24153257E-05   5.71652310E+18   8.96606250E+08   1.05641851E+07   4.73908582E+06   0.26176795      
  56               3.16227766E-02   1.49224086E+00   1795.37974876    2.36044253E-05   6.02016571E+18   8.93385534E+08   1.37638966E+07   4.69519497E+06   0.26056993      
  57               3.98107171E-02   1.57661985E+00   1821.22072296    2.46061361E-05   6.27032780E+18   8.90385120E+08   1.67082268E+07   4.66017897E+06   0.25969249      
  58               5.01187234E-02   1.64340276E+00   1840.94137605    2.53730727E-05   6.46591353E+18   8.87859947E+08   1.92010670E+07   4.63345154E+06   0.25870524      
  59               6.30957344E-02   1.72302283E+00   1863.54753757    2.62788677E-05   6.69693980E+18   8.84755796E+08   2.23103118E+07   4.60261732E+06   0.25751416      
  60               7.94328235E-02   1.81718652E+00   1889.22323469    2.73372979E-05   6.96693997E+18   8.80822709E+08   2.62502724E+07   4.56748534E+06   0.25608807      
  61               1.00000000E-01   1.92752047E+00   1917.85462859    2.85628273E-05   7.27962743E+18   8.75825065E+08   3.12539886E+07   4.52800042E+06   0.25443898      
  62               1.25892541E-01   2.05527244E+00   1949.35114161    2.99619388E-05   7.63669002E+18   8.69741627E+08   3.73387654E+07   4.48433046E+06   0.25257294      
  63               1.58489319E-01   2.20280300E+00   1983.63291257    3.15550377E-05   8.04340975E+18   8.62672357E+08   4.44116351E+07   4.43635010E+06   0.25039174      
  64               1.99526231E-01   2.37411944E+00   2021.04283814    3.33760103E-05   8.50849769E+18   8.54035846E+08   5.30571207E+07   4.38356047E+06   0.24784814      
  65               2.51188643E-01   2.57210242E+00   2061.33025693    3.54476673E-05   9.03787895E+18   8.43063214E+08   6.40394842E+07   4.32600080E+06   0.24497026      
  66               3.16227766E-01   2.79995894E+00   2104.41197691    3.77911831E-05   9.63710826E+18   8.29044522E+08   7.80683209E+07   4.26374578E+06   0.24175906      
  67               3.98107171E-01   3.06128815E+00   2149.96884211    4.04337040E-05   1.03133055E+19   8.11251119E+08   9.58729626E+07   4.19689240E+06   0.23819409      
  68               5.01187234E-01   3.36015373E+00   2197.86839182    4.34015645E-05   1.10734590E+19   7.88965408E+08   1.18170712E+08   4.12554887E+06   0.23435312      
  69               6.30957344E-01   3.70116926E+00   2247.78926988    4.67280375E-05   1.19263951E+19   7.61504384E+08   1.45644376E+08   4.04982435E+06   0.23004274      
  70               7.94328235E-01   4.08962499E+00   2299.50805193    5.04489930E-05   1.28817359E+19   7.28277105E+08   1.78884501E+08   3.96981677E+06   0.22531442      
  71               1.00000000E+00   4.53114764E+00   2352.66019503    5.46093603E-05   1.39500206E+19   6.88883443E+08   2.18288763E+08   3.88569446E+06   0.22028568      
  72               1.25892541E+00   5.03251903E+00   2407.07071120    5.92433455E-05   1.51433659E+19   6.43588073E+08   2.63590947E+08   3.79754643E+06   0.21507721      
  73               1.58489319E+00   5.60174950E+00   2462.50534267    6.44116084E-05   1.64767800E+19   5.92946147E+08   3.14233847E+08   3.70539682E+06   0.20975827      
  74               1.99526231E+00   6.24749255E+00   2518.81150982    7.01693422E-05   1.79653597E+19   5.37503601E+08   3.69669453E+08   3.60934356E+06   0.20444373      
  75               2.51188643E+00   6.97953921E+00   2575.77888181    7.65802630E-05   1.96265521E+19   4.78661972E+08   4.28494835E+08   3.50947804E+06   0.19913957      
  76               3.16227766E+00   7.80883050E+00   2633.26643262    8.37124303E-05   2.14791471E+19   4.18595589E+08   4.88538486E+08   3.40590102E+06   0.19391565      
  77               3.98107171E+00   8.74766081E+00   2691.10937937    9.16424491E-05   2.35443348E+19   3.59599834E+08   5.47509303E+08   3.29871104E+06   0.18882339      
  78               5.01187234E+00   9.80954045E+00   2749.20047540    1.00450496E-04   2.58444975E+19   3.03806071E+08   6.03280954E+08   3.18803288E+06   0.18385597      
  79               6.30957344E+00   1.10092296E+01   2807.36034683    1.10225044E-04   2.84043337E+19   2.53271888E+08   6.53798629E+08   3.07401736E+06   0.17922785      
  80               7.94328235E+00   1.23627171E+01   2865.61821793    1.21050367E-04   3.12479436E+19   2.09477644E+08   6.97582474E+08   2.95684022E+06   0.17498205      
  81               1.00000000E+01   1.38872582E+01   2923.83042067    1.33022282E-04   3.44025130E+19   1.72918458E+08   7.34140999E+08   2.83669514E+06   0.17100222      
  82               1.25892541E+01   1.56015676E+01   2981.97410427    1.46236774E-04   3.78957241E+19   1.43335444E+08   7.63738012E+08   2.71377841E+06   0.16739029      
  83               1.58489319E+01   1.75259404E+01   3040.00352646    1.60796822E-04   4.17573646E+19   1.19516965E+08   7.87589789E+08   2.58828107E+06   0.16404423      
  84               1.99526231E+01   1.96807576E+01   3097.81759870    1.76801132E-04   4.60163121E+19   9.99793057E+07   8.07179261E+08   2.46047793E+06   0.16094365      
  85               2.51188643E+01   2.20875070E+01   3155.34768518    1.94349448E-04   5.07020266E+19   8.37194645E+07   8.23501087E+08   2.33063782E+06   0.15819758      
  86               3.16227766E+01   2.47699206E+01   3212.62900559    2.13545940E-04   5.58457179E+19   7.00662090E+07   8.37220367E+08   2.19896367E+06   0.15576665      
  87               3.98107171E+01   2.77544227E+01   3269.64198719    2.34512534E-04   6.14833944E+19   5.85498579E+07   8.48808247E+08   2.06559462E+06   0.15355932      
  88               5.01187234E+01   3.10706983E+01   3326.42514411    2.57383479E-04   6.76548754E+19   4.89248438E+07   8.58507264E+08   1.93060857E+06   0.1516135       
  89               6.30957344E+01   3.47519022E+01   3383.04151513    2.82306589E-04   7.44041388E+19   4.09350221E+07   8.66568170E+08   1.79404009E+06   0.14992404      
  90               7.94328235E+01   3.88353415E+01   3439.57025340    3.09446704E-04   8.17803159E+19   3.42634512E+07   8.73308396E+08   1.65587959E+06   0.14842854      
  91               1.00000000E+02   4.33632396E+01   3496.06793962    3.38993431E-04   8.98395765E+19   2.86716277E+07   8.78965501E+08   1.51607574E+06   0.14712556      
  92               1.25892541E+02   4.83833810E+01   3552.64719487    3.71153697E-04   9.86438405E+19   2.39859873E+07   8.83710221E+08   1.37454385E+06   0.14602616      
  93               1.58489319E+02   5.39497621E+01   3609.39841408    4.06162018E-04   1.08263123E+20   2.00555045E+07   8.87690434E+08   1.23117422E+06   0.14507254      
  94               1.99526231E+02   6.01235705E+01   3666.41046400    4.44282134E-04   1.18776225E+20   1.67772056E+07   8.91009052E+08   1.08583435E+06   0.14425381      
  95               2.51188643E+02   6.69737659E+01   3723.77922183    4.85805739E-04   1.30270667E+20   1.40674073E+07   8.93747108E+08   9.38381609E+05   0.14356939      
  96               3.16227766E+02   7.45779557E+01   3781.60015213    5.31055358E-04   1.42843574E+20   1.18271378E+07   8.96002067E+08   7.88667625E+05   0.14302841      
  97               3.98107171E+02   8.30240606E+01   3839.98567574    5.80387760E-04   1.56603046E+20   9.95793636E+06   8.97872724E+08   6.36529473E+05   0.14258917      
  98               5.01187234E+02   9.24119708E+01   3899.00977995    6.34211019E-04   1.71672111E+20   8.38809683E+06   8.99431947E+08   4.81789089E+05   0.14225745      
  99               6.30957344E+02   1.02855201E+02   3958.80179682    6.92969467E-04   1.88186445E+20   7.06341865E+06   9.00733692E+08   3.24256006E+05   0.1420364       
  100              7.94328235E+02   1.14482796E+02   4019.44759975    7.57170434E-04   2.06300223E+20   5.94222186E+06   9.01816522E+08   1.63729405E+05   0.14193097      
  101              1.00000000E+03   1.27441483E+02   4081.09046640    8.27364948E-04   2.26183246E+20   5.42890794E+06   9.02332262E+08   0.00000000E+00   0.14192316      
