# ATMO pressure-temperature profile
# Effective temperature = 1600.0K
# log(g) = 2.5cm/s^2
# M/H = 0.0
# Optical depth grid in band 17 (1.20-1.33microns)
# All parameters in cgs units
#
# Model Level      Optical Depth    Pressure         Temperature      Density          Number Density   Rad Flux         Conv Flux        Radial Extension Adiabatic Gradient
#                                   [Ba]             [K]              [g/cm^3]         [/cm^3]          [ergs/s/cm^2/sr] [ergs/s/cm^2/sr] [cm]             [K/Ba]          
  1                1.00000000E-04   1.00000000E-05   616.38469445     4.59538953E-10   1.17509775E+14   3.71583485E+08   0.00000000E+00   2.10660178E+09   0.29800199      
  2                1.17489755E-04   2.63567724E-05   686.98621214     1.08661450E-09   2.77888161E+14   3.71583486E+08   0.00000000E+00   2.03339603E+09   0.29742447      
  3                1.38038426E-04   4.66671785E-05   709.96828112     1.86167517E-09   4.76100280E+14   3.71583487E+08   0.00000000E+00   1.98823861E+09   0.29705192      
  4                1.62181010E-04   6.99346882E-05   736.02069476     2.69113961E-09   6.88221850E+14   3.71583487E+08   0.00000000E+00   1.95536624E+09   0.29651928      
  5                1.90546072E-04   9.66804123E-05   746.72972439     3.66698095E-09   9.37779844E+14   3.71583488E+08   0.00000000E+00   1.92844271E+09   0.29627312      
  6                2.23872114E-04   1.27455342E-04   766.79394108     4.70787036E-09   1.20394102E+15   3.71583488E+08   0.00000000E+00   1.90502028E+09   0.29639774      
  7                2.63026799E-04   1.62958223E-04   774.05767880     5.96277583E-09   1.52485588E+15   3.71583488E+08   0.00000000E+00   1.88383047E+09   0.29627383      
  8                3.09029543E-04   2.03978681E-04   791.89980331     7.29557054E-09   1.86569386E+15   3.71583488E+08   0.00000000E+00   1.86416307E+09   0.29593791      
  9                3.63078055E-04   2.51429119E-04   797.66729460     8.92768526E-09   2.28307210E+15   3.71583489E+08   0.00000000E+00   1.84557043E+09   0.29583087      
  10               4.26579519E-04   3.06339378E-04   814.62912930     1.06509249E-08   2.72375933E+15   3.71583489E+08   0.00000000E+00   1.82776344E+09   0.29548567      
  11               5.01187234E-04   3.69909872E-04   819.69896642     1.27816314E-08   3.26864213E+15   3.71583489E+08   0.00000000E+00   1.81053409E+09   0.29538566      
  12               5.88843655E-04   4.43504426E-04   836.40491573     1.50184663E-08   3.84067202E+15   3.71583489E+08   0.00000000E+00   1.79373677E+09   0.29502252      
  13               6.91830971E-04   5.28707617E-04   841.18156895     1.78020616E-08   4.55251786E+15   3.71583489E+08   0.00000000E+00   1.77725864E+09   0.29492196      
  14               8.12830516E-04   6.27323418E-04   857.92906234     2.07101920E-08   5.29621931E+15   3.71583489E+08   0.00000000E+00   1.76101740E+09   0.29453494      
  15               9.54992586E-04   7.41441180E-04   862.61613069     2.43446410E-08   6.22565382E+15   3.71583490E+08   0.00000000E+00   1.74494578E+09   0.29443089      
  16               1.12201845E-03   8.73435408E-04   879.64804462     2.81232611E-08   7.19196709E+15   3.71583490E+08   0.00000000E+00   1.72899358E+09   0.29401606      
  17               1.31825674E-03   1.02604388E-03   884.45280875     3.28575594E-08   8.40266616E+15   3.71583490E+08   0.00000000E+00   1.71311806E+09   0.29390337      
  18               1.54881662E-03   1.20237374E-03   901.92660058     3.77582581E-08   9.65593040E+15   3.71583490E+08   0.00000000E+00   1.69728728E+09   0.29345503      
  19               1.81970086E-03   1.40599149E-03   906.98905388     4.39060613E-08   1.12281055E+16   3.71583491E+08   0.00000000E+00   1.68147307E+09   0.29333003      
  20               2.13796209E-03   1.64092718E-03   925.09797881     5.02394743E-08   1.28477601E+16   3.71583492E+08   0.00000000E+00   1.66565461E+09   0.29284333      
  21               2.51188643E-03   1.91190657E-03   930.58641494     5.81907027E-08   1.48811261E+16   3.71583495E+08   0.00000000E+00   1.64980615E+09   0.29270086      
  22               2.95120923E-03   2.22440979E-03   949.45109978     6.63568187E-08   1.69694605E+16   3.71583497E+08   0.00000000E+00   1.63390293E+09   0.29217028      
  23               3.46736850E-03   2.58472095E-03   955.49396639     7.66177119E-08   1.95934789E+16   3.71583501E+08   0.00000000E+00   1.61792317E+09   0.29200591      
  24               4.07380278E-03   2.99994664E-03   975.33565837     8.71169462E-08   2.22784651E+16   3.71583506E+08   0.00000000E+00   1.60185123E+09   0.29142418      
  25               4.78630092E-03   3.47815623E-03   982.23952456     1.00294004E-07   2.56482371E+16   3.71583511E+08   0.00000000E+00   1.58567306E+09   0.29122776      
  26               5.62341325E-03   4.02842546E-03   1003.32494047    1.13719986E-07   2.90816848E+16   3.71583517E+08   0.00000000E+00   1.56937937E+09   0.29058531      
  27               6.60693448E-03   4.66096616E-03   1011.30796135    1.30537605E-07   3.33824620E+16   3.71583524E+08   0.00000000E+00   1.55296205E+09   0.29034677      
  28               7.76247117E-03   5.38711658E-03   1033.96542311    1.47568373E-07   3.77377669E+16   3.71583530E+08   0.00000000E+00   1.53641722E+09   0.2896312       
  29               9.12010839E-03   6.21939595E-03   1043.45742641    1.68817094E-07   4.31717161E+16   3.71583536E+08   0.00000000E+00   1.51974228E+09   0.28933556      
  30               1.07151931E-02   7.17151138E-03   1068.14201358    1.90162325E-07   4.86303655E+16   3.71583541E+08   0.00000000E+00   1.50293803E+09   0.28852846      
  31               1.25892541E-02   8.25826473E-03   1079.58485826    2.16658032E-07   5.54061350E+16   3.71583537E+08   0.00000000E+00   1.48600708E+09   0.28815831      
  32               1.47910839E-02   9.49557394E-03   1106.70818266    2.43013686E-07   6.21461084E+16   3.71583519E+08   0.00000000E+00   1.46895507E+09   0.28724881      
  33               1.73780083E-02   1.08999230E-02   1120.69084109    2.75473743E-07   7.04471530E+16   3.71583462E+08   0.00000000E+00   1.45179103E+09   0.2858551       
  34               2.04173794E-02   1.24900486E-02   1150.85050430    3.07388553E-07   7.86087800E+16   3.71583388E+08   0.00000000E+00   1.43451088E+09   0.28449213      
  35               2.39883292E-02   1.42873413E-02   1168.05398582    3.46442296E-07   8.85960464E+16   3.71583271E+08   0.00000000E+00   1.41709443E+09   0.28380389      
  36               2.81838293E-02   1.63148098E-02   1201.81240947    3.84492396E-07   9.83266338E+16   3.71583102E+08   0.00000000E+00   1.39952754E+09   0.28269912      
  37               3.31131121E-02   1.85951851E-02   1222.86978610    4.30687769E-07   1.10140269E+17   3.71582849E+08   0.00000000E+00   1.38180683E+09   0.28228377      
  38               3.89045145E-02   2.11506598E-02   1260.99269558    4.75067791E-07   1.21489065E+17   3.71582505E+08   0.00000000E+00   1.36394141E+09   0.28157434      
  39               4.57088190E-02   2.39997016E-02   1287.36169222    5.28018882E-07   1.35030259E+17   3.71581978E+08   0.00000000E+00   1.34595285E+09   0.28128007      
  40               5.37031796E-02   2.71487179E-02   1332.72994377    5.76982165E-07   1.47547892E+17   3.71561786E+08   2.79349380E+05   1.32791142E+09   0.28031306      
  41               6.30957344E-02   3.05388196E-02   1377.32955941    6.28066760E-07   1.60598032E+17   3.70014328E+08   1.56190003E+06   1.31010260E+09   0.27825968      
  42               7.41310241E-02   3.40670198E-02   1419.65822977    6.80034304E-07   1.73810568E+17   3.67222148E+08   4.35020289E+06   1.29302939E+09   0.27611757      
  43               8.70963590E-02   3.77384549E-02   1460.28578922    7.32454709E-07   1.87185453E+17   3.63362984E+08   8.21184182E+06   1.27657855E+09   0.27412503      
  44               1.02329299E-01   4.15322932E-02   1498.97302673    7.85454321E-07   2.00686396E+17   3.58495740E+08   1.30945493E+07   1.26076112E+09   0.27200865      
  45               1.20226443E-01   4.51777802E-02   1533.61759750    8.35824749E-07   2.13370141E+17   3.52814155E+08   1.87873096E+07   1.24653193E+09   0.26995353      
  46               1.41253754E-01   4.83705170E-02   1562.02451821    8.79489466E-07   2.24294551E+17   3.47115861E+08   2.44649992E+07   1.23475545E+09   0.26811317      
  47               1.65958691E-01   5.15657700E-02   1589.06178152    9.21578231E-07   2.35042590E+17   3.41579098E+08   2.99818995E+07   1.22353206E+09   0.26650326      
  48               1.94984460E-01   5.47230120E-02   1614.33675694    9.63535752E-07   2.45528380E+17   3.36554182E+08   3.49873887E+07   1.21293555E+09   0.26509732      
  49               2.29086765E-01   5.76252034E-02   1636.64854449    1.00077621E-06   2.55025074E+17   3.32090570E+08   3.94394846E+07   1.20358959E+09   0.26386265      
  50               2.69153480E-01   6.08635795E-02   1660.36912832    1.04187955E-06   2.65508654E+17   3.27175851E+08   4.43696906E+07   1.19356075E+09   0.26236491      
  51               3.16227766E-01   6.44643471E-02   1685.62127311    1.08693808E-06   2.77003607E+17   3.21660216E+08   4.98983716E+07   1.18286074E+09   0.26056112      
  52               3.71535229E-01   6.84526092E-02   1712.10099084    1.13626955E-06   2.89591938E+17   3.15416335E+08   5.61520177E+07   1.17151217E+09   0.25846652      
  53               4.36515832E-01   7.28469785E-02   1739.85127303    1.18984207E-06   3.03267071E+17   3.08310620E+08   6.32654504E+07   1.15956095E+09   0.2561592       
  54               5.12861384E-01   7.76495140E-02   1768.41904461    1.24768627E-06   3.18038282E+17   3.00212545E+08   7.13649154E+07   1.14709647E+09   0.25350178      
  55               6.02559586E-01   8.27855940E-02   1797.31879037    1.30868799E-06   3.33622624E+17   2.91302032E+08   8.02598895E+07   1.13438598E+09   0.25063991      
  56               7.07945784E-01   8.82586060E-02   1826.24385061    1.37293248E-06   3.50045208E+17   2.82290288E+08   8.92625694E+07   1.12147423E+09   0.24758865      
  57               8.31763771E-01   9.43064183E-02   1856.39196002    1.44295782E-06   3.67957290E+17   2.73072987E+08   9.84936485E+07   1.10788645E+09   0.2442416       
  58               9.77237221E-01   1.00980001E-01   1887.45776911    1.51934414E-06   3.87510941E+17   2.63225189E+08   1.08362955E+08   1.09363346E+09   0.24043227      
  59               1.14815362E+00   1.08335551E-01   1919.49702442    1.60242988E-06   4.08798592E+17   2.52609637E+08   1.19007864E+08   1.07872613E+09   0.23627098      
  60               1.34896288E+00   1.16435020E-01   1952.21423172    1.69288829E-06   4.31998251E+17   2.41175356E+08   1.30475654E+08   1.06317523E+09   0.23177539      
  61               1.58489319E+00   1.25346928E-01   1985.66721414    1.79114759E-06   4.57228266E+17   2.28927435E+08   1.42760239E+08   1.04699092E+09   0.22694927      
  62               1.86208714E+00   1.35147233E-01   2019.54891229    1.89802568E-06   4.84706253E+17   2.15922145E+08   1.55804640E+08   1.03018251E+09   0.22171373      
  63               2.18776162E+00   1.45920849E-01   2053.89514674    2.01410785E-06   5.14594238E+17   2.02296165E+08   1.69461473E+08   1.01275749E+09   0.21617496      
  64               2.57039578E+00   1.57764225E-01   2088.42669826    2.14039949E-06   5.47160996E+17   1.88263755E+08   1.83508697E+08   9.94719364E+08   0.21048393      
  65               3.01995172E+00   1.70784518E-01   2123.23461867    2.27762003E-06   5.82607876E+17   1.74049497E+08   1.97726115E+08   9.76071119E+08   0.20489449      
  66               3.54813389E+00   1.85099563E-01   2158.11539337    2.42688195E-06   6.21235937E+17   1.59808304E+08   2.11962781E+08   9.56816563E+08   0.1992182       
  67               4.16869383E+00   2.00839473E-01   2193.10061489    2.58913215E-06   6.63309712E+17   1.45716617E+08   2.26043448E+08   9.36959864E+08   0.19359073      
  68               4.89778819E+00   2.18147568E-01   2228.02889751    2.76564955E-06   7.09178232E+17   1.31927826E+08   2.39815743E+08   9.16505768E+08   0.18804044      
  69               5.75439937E+00   2.37181204E-01   2262.94578798    2.95755592E-06   7.59157626E+17   1.18566151E+08   2.53155427E+08   8.95460045E+08   0.18262029      
  70               6.76082975E+00   2.58112492E-01   2297.70700749    3.16632576E-06   8.13654843E+17   1.05610931E+08   2.66084504E+08   8.73829914E+08   0.1770742       
  71               7.94328235E+00   2.81071030E-01   2332.17535879    3.39322491E-06   8.72932620E+17   9.32668131E+07   2.78398555E+08   8.51679599E+08   0.1718196       
  72               9.33254301E+00   3.06259448E-01   2366.38966760    3.63907794E-06   9.37408905E+17   8.19406668E+07   2.89692168E+08   8.29011931E+08   0.16693903      
  73               1.09647820E+01   3.33961744E-01   2400.42928483    3.90645165E-06   1.00770553E+18   7.17716137E+07   2.99824660E+08   8.05777231E+08   0.16245085      
  74               1.28824955E+01   3.64416956E-01   2434.32431335    4.19698117E-06   1.08429131E+18   6.26271103E+07   3.08930720E+08   7.81991840E+08   0.15814505      
  75               1.51356125E+01   3.97883086E-01   2467.97827606    4.51265742E-06   1.16772340E+18   5.44461908E+07   3.17082984E+08   7.57673758E+08   0.15407963      
  76               1.77827941E+01   4.34618282E-01   2501.43678824    4.85508600E-06   1.25847415E+18   4.72314733E+07   3.24278243E+08   7.32855211E+08   0.15036531      
  77               2.08929613E+01   4.74922190E-01   2534.66461022    5.22639517E-06   1.35714984E+18   4.10106817E+07   3.30467676E+08   7.07553130E+08   0.14696489      
  78               2.45470892E+01   5.19127508E-01   2567.73270728    5.62868902E-06   1.46436746E+18   3.56793755E+07   3.35759282E+08   6.81779328E+08   0.14376749      
  79               2.88403150E+01   5.67589972E-01   2600.56698316    6.06454256E-06   1.58085672E+18   3.10942789E+07   3.40302283E+08   6.55548529E+08   0.14076701      
  80               3.38844156E+01   6.20688808E-01   2633.23831024    6.53624808E-06   1.70729901E+18   2.71461924E+07   3.44209033E+08   6.28878076E+08   0.13803132      
  81               3.98107171E+01   6.78826108E-01   2665.70424553    7.04650461E-06   1.84447347E+18   2.37277637E+07   3.47588032E+08   6.01787869E+08   0.13556281      
  82               4.67735141E+01   7.42427109E-01   2698.04165863    7.59770672E-06   1.99310882E+18   2.07495707E+07   3.50527084E+08   5.74299791E+08   0.1332607       
  83               5.49540874E+01   8.11942747E-01   2730.16283704    8.19291596E-06   2.15408430E+18   1.81472435E+07   3.53098539E+08   5.46436627E+08   0.13109164      
  84               6.45654229E+01   8.87853649E-01   2762.13644421    8.83477249E-06   2.32820971E+18   1.58845354E+07   3.55340182E+08   5.18220620E+08   0.1290691       
  85               7.58577575E+01   9.70672740E-01   2793.88712310    9.52664640E-06   2.51645875E+18   1.39211400E+07   3.57292793E+08   4.89672935E+08   0.12723686      
  86               8.91250938E+01   1.06094315E+00   2825.51383230    1.02712744E-05   2.71969696E+18   1.22233306E+07   3.58987757E+08   4.60814599E+08   0.12562086      
  87               1.04712855E+02   1.15923954E+00   2856.95830723    1.10722182E-05   2.93896980E+18   1.07478528E+07   3.60462969E+08   4.31666117E+08   0.12418986      
  88               1.23026877E+02   1.26617184E+00   2888.31245310    1.19324187E-05   3.17522364E+18   9.46354418E+06   3.61753730E+08   4.02246628E+08   0.12289718      
  89               1.44543977E+02   1.38239035E+00   2919.50021984    1.28558987E-05   3.42963594E+18   8.34201382E+06   3.62887565E+08   3.72573222E+08   0.12173148      
  90               1.69824365E+02   1.50859065E+00   2950.61752682    1.38458859E-05   3.70326110E+18   7.36346498E+06   3.63883294E+08   3.42660479E+08   0.12067451      
  91               1.99526231E+02   1.64551914E+00   2981.58509055    1.49069515E-05   3.99743648E+18   6.50719268E+06   3.64761080E+08   3.12520265E+08   0.11972386      
  92               2.34422882E+02   1.79398024E+00   3012.50753639    1.60427004E-05   4.31335649E+18   5.75853669E+06   3.65530685E+08   2.82161320E+08   0.11885509      
  93               2.75422870E+02   1.95482259E+00   3043.29503791    1.72583040E-05   4.65252945E+18   5.09967672E+06   3.66217879E+08   2.51593140E+08   0.11805765      
  94               3.23593657E+02   2.12893307E+00   3074.04751599    1.85575214E-05   5.01622804E+18   4.51965941E+06   3.66830442E+08   2.20827019E+08   0.11732714      
  95               3.80189396E+02   2.31727769E+00   3104.67539628    1.99461582E-05   5.40614538E+18   4.00750731E+06   3.67378062E+08   1.89869205E+08   0.11667202      
  96               4.46683592E+02   2.52090866E+00   3135.29530826    2.14285798E-05   5.82377379E+18   3.55613811E+06   3.67866705E+08   1.58721642E+08   0.11609487      
  97               5.24807460E+02   2.74097088E+00   3165.82533578    2.30115634E-05   6.27109401E+18   3.15698459E+06   3.68302532E+08   1.27382859E+08   0.11560632      
  98               6.16595002E+02   2.97870871E+00   3196.39623832    2.47000865E-05   6.74983667E+18   2.80467870E+06   3.68685041E+08   9.58486232E+07   0.11520428      
  99               7.24435960E+02   3.23547309E+00   3226.92800730    2.65019926E-05   7.26230285E+18   2.49222097E+06   3.69026078E+08   6.41126040E+07   0.1148766       
  100              8.51138038E+02   3.51273232E+00   3257.55112463    2.84230596E-05   7.81051473E+18   2.21589576E+06   3.69329096E+08   3.21665340E+07   0.11460439      
  101              1.00000000E+03   3.81208837E+00   3288.17755017    3.04725424E-05   8.39718148E+18   2.08407568E+06   3.69483202E+08   0.00000000E+00   0.11437877      
