# ATMO pressure-temperature profile
# Effective temperature = 2500.0K
# log(g) = 4.5cm/s^2
# M/H = 0.0
# Optical depth grid in band 17 (1.20-1.33microns)
# All parameters in cgs units
#
# Model Level      Optical Depth    Pressure         Temperature      Density          Number Density   Rad Flux         Conv Flux        Radial Extension Adiabatic Gradient
#                                   [Ba]             [K]              [g/cm^3]         [/cm^3]          [ergs/s/cm^2/sr] [ergs/s/cm^2/sr] [cm]             [K/Ba]          
  1                5.00000000E-06   1.00000000E-05   921.24510524     3.07444825E-10   7.86231874E+13   2.21481106E+09   0.00000000E+00   3.57656621E+07   0.29158693      
  2                6.05313423E-06   8.19550853E-05   1024.24206718    2.26629044E-09   5.79560979E+14   2.21481106E+09   0.00000000E+00   3.30396962E+07   0.288578        
  3                7.32808679E-06   1.58858092E-04   1080.97144548    4.16233753E-09   1.06443944E+15   2.21481105E+09   0.00000000E+00   3.22478934E+07   0.28838425      
  4                8.87157859E-06   2.45950718E-04   1105.55278642    6.30101720E-09   1.61136695E+15   2.21481105E+09   0.00000000E+00   3.17101099E+07   0.28670643      
  5                1.07401712E-05   3.46064018E-04   1142.22631780    8.58117133E-09   2.19447240E+15   2.21481105E+09   0.00000000E+00   3.12795701E+07   0.2862532       
  6                1.30023396E-05   4.62079360E-04   1157.93672451    1.13024836E-08   2.89039756E+15   2.21481105E+09   0.00000000E+00   3.09070453E+07   0.28485226      
  7                1.57409813E-05   5.97295432E-04   1188.84532443    1.42300987E-08   3.63906388E+15   2.21481105E+09   0.00000000E+00   3.05698840E+07   0.28456329      
  8                1.90564546E-05   7.55319779E-04   1201.42624716    1.78064484E-08   4.55364931E+15   2.21481105E+09   0.00000000E+00   3.02559550E+07   0.2832324       
  9                2.30702555E-05   9.40197346E-04   1229.98558417    2.16506972E-08   5.53662156E+15   2.21481104E+09   0.00000000E+00   2.99581986E+07   0.28301484      
  10               2.79294706E-05   1.15661944E-03   1241.25677229    2.63925187E-08   6.74923728E+15   2.21481104E+09   0.00000000E+00   2.96718960E+07   0.2816967       
  11               3.38121669E-05   1.40945253E-03   1268.79217169    3.14653999E-08   8.04610696E+15   2.21481104E+09   0.00000000E+00   2.93944494E+07   0.28150053      
  12               4.09339169E-05   1.70479469E-03   1279.56489472    3.77381548E-08   9.65018430E+15   2.21481104E+09   0.00000000E+00   2.91234187E+07   0.28016052      
  13               4.95556987E-05   2.04815840E-03   1306.73892928    4.44015602E-08   1.13527363E+16   2.21481103E+09   0.00000000E+00   2.88581590E+07   0.2799822       
  14               5.99934592E-05   2.44657445E-03   1317.42205829    5.26077555E-08   1.34511478E+16   2.21481105E+09   0.00000000E+00   2.85974759E+07   0.27857745      
  15               7.26296922E-05   2.89840510E-03   1344.61075320    6.10875970E-08   1.56130714E+16   2.21481106E+09   0.00000000E+00   2.83454202E+07   0.27838582      
  16               8.79274551E-05   3.41014285E-03   1355.44357236    7.12982316E-08   1.82228781E+16   2.21481115E+09   0.00000000E+00   2.81002139E+07   0.27691128      
  17               1.06447338E-04   4.00144646E-03   1382.81108850    8.20180136E-08   2.09594555E+16   2.21481107E+09   0.00000000E+00   2.78556879E+07   0.27672049      
  18               1.28868005E-04   4.67989539E-03   1393.81299862    9.51664836E-08   2.43196586E+16   2.21481106E+09   0.00000000E+00   2.76128477E+07   0.27513263      
  19               1.56011066E-04   5.45840204E-03   1421.18506827    1.08884035E-07   2.78189494E+16   2.21481105E+09   0.00000000E+00   2.73709984E+07   0.27490095      
  20               1.88871184E-04   6.34287954E-03   1433.52940675    1.25434759E-07   3.20483516E+16   2.21481106E+09   0.00000000E+00   2.71316692E+07   0.27317809      
  21               2.28652526E-04   7.29505128E-03   1461.72890854    1.41603885E-07   3.61482563E+16   2.21481092E+09   0.00000000E+00   2.69057240E+07   0.2729936       
  22               2.76812886E-04   8.32047094E-03   1473.08808943    1.60259288E-07   4.09114648E+16   2.21481091E+09   0.00000000E+00   2.66904693E+07   0.27109142      
  23               3.35117111E-04   9.40305645E-03   1503.64358345    1.77598478E-07   4.52949701E+16   2.21481069E+09   0.00000000E+00   2.64875347E+07   0.27073325      
  24               4.05701771E-04   1.04538555E-02   1516.31736566    1.95970359E-07   4.99358244E+16   2.21481080E+09   0.00000000E+00   2.63093953E+07   0.26822758      
  25               4.91153455E-04   1.15632841E-02   1540.11573044    2.13413243E-07   5.43818124E+16   2.21481076E+09   0.00000000E+00   2.61378441E+07   0.26789793      
  26               5.94603558E-04   1.28520203E-02   1551.38766687    2.35472701E-07   6.00035450E+16   2.21481073E+09   0.00000000E+00   2.59560486E+07   0.26567166      
  27               7.19843029E-04   1.43457209E-02   1576.69368581    2.58613044E-07   6.59023480E+16   2.21481070E+09   0.00000000E+00   2.57646369E+07   0.26528639      
  28               8.71461295E-04   1.60721920E-02   1589.55633760    2.87387959E-07   7.32360694E+16   2.21481080E+09   0.00000000E+00   2.55643743E+07   0.26300438      
  29               1.05501444E-03   1.80630220E-02   1616.53134576    3.17582374E-07   8.09342080E+16   2.21481063E+09   0.00000000E+00   2.53559865E+07   0.26260294      
  30               1.27722880E-03   2.03503994E-02   1631.47018373    3.54514938E-07   9.03482274E+16   2.21481058E+09   0.00000000E+00   2.51404145E+07   0.2603912       
  31               1.54624747E-03   2.29691952E-02   1660.68473914    3.93071966E-07   1.00180783E+17   2.21481038E+09   0.00000000E+00   2.49185698E+07   0.25982307      
  32               1.87192870E-03   2.59522318E-02   1678.32462523    4.39437235E-07   1.12001692E+17   2.21481026E+09   0.00000000E+00   2.46915967E+07   0.25683217      
  33               2.26620714E-03   2.93289409E-02   1710.86199378    4.87122905E-07   1.24167301E+17   2.21480981E+09   0.00000000E+00   2.44608013E+07   0.25575867      
  34               2.74353120E-03   3.31082604E-02   1732.97797538    5.42840154E-07   1.38378672E+17   2.21480943E+09   0.00000000E+00   2.42283892E+07   0.25186628      
  35               3.32139252E-03   3.72289602E-02   1772.37288190    5.96736671E-07   1.52142886E+17   2.21480667E+09   0.00000000E+00   2.39994363E+07   0.24998499      
  36               4.02096694E-03   4.16735672E-02   1795.95910326    6.59137253E-07   1.68069951E+17   2.21480724E+09   0.00000000E+00   2.37753296E+07   0.24538661      
  37               4.86789053E-03   4.67385908E-02   1822.71275105    7.28297583E-07   1.85730498E+17   2.21480717E+09   0.00000000E+00   2.35441550E+07   0.24360454      
  38               5.89319895E-03   5.25101681E-02   1845.65059117    8.07963475E-07   2.06072368E+17   2.21480723E+09   0.00000000E+00   2.33062273E+07   0.23981627      
  39               7.13446485E-03   5.90800687E-02   1873.10070301    8.95573514E-07   2.28457650E+17   2.21480719E+09   0.00000000E+00   2.30619890E+07   0.23792465      
  40               8.63717467E-03   6.65457666E-02   1897.51583817    9.95600100E-07   2.54015877E+17   2.21480726E+09   0.00000000E+00   2.28119670E+07   0.23367659      
  41               1.04563955E-02   7.50149451E-02   1926.65478983    1.10507615E-06   2.82013390E+17   2.21480719E+09   0.00000000E+00   2.25566354E+07   0.23138313      
  42               1.26587931E-02   8.46022297E-02   1953.26855872    1.22904897E-06   3.13722516E+17   2.21480725E+09   0.00000000E+00   2.22964899E+07   0.22668263      
  43               1.53250748E-02   9.54333039E-02   1984.82007669    1.36391826E-06   3.48260849E+17   2.21480716E+09   0.00000000E+00   2.20319475E+07   0.22390709      
  44               1.85529469E-02   1.07640059E-01   2014.45178099    1.51524812E-06   3.87028450E+17   2.21480723E+09   0.00000000E+00   2.17634339E+07   0.21850735      
  45               2.24606956E-02   1.21365530E-01   2049.35356054    1.67858900E-06   4.28947663E+17   2.21480716E+09   0.00000000E+00   2.14912785E+07   0.21481748      
  46               2.71915211E-02   1.36757392E-01   2083.26194835    1.85975274E-06   4.75480565E+17   2.21480727E+09   0.00000000E+00   2.12157953E+07   0.20847287      
  47               3.29187854E-02   1.53964422E-01   2123.70766336    2.05239105E-06   5.25111442E+17   2.21480708E+09   0.00000000E+00   2.09372763E+07   0.20383963      
  48               3.98523653E-02   1.73021005E-01   2173.74915229    2.25080696E-06   5.76521151E+17   2.21196105E+09   2.82374509E+06   2.06568889E+07   0.19552252      
  49               4.82463432E-02   1.94047587E-01   2222.00628397    2.46637890E-06   6.32541180E+17   2.20412997E+09   1.06396595E+07   2.03746722E+07   0.18755878      
  50               5.84083183E-02   2.17320319E-01   2268.73703602    2.70143626E-06   6.93812329E+17   2.19141754E+09   2.33414882E+07   2.00895484E+07   0.18002309      
  51               7.07106781E-02   2.43140070E-01   2314.12771359    2.95844527E-06   7.61018219E+17   2.17357778E+09   4.11740526E+07   1.98007223E+07   0.1726578       
  52               8.56042452E-02   2.71761990E-01   2358.08201180    3.23986460E-06   8.34748501E+17   2.15027073E+09   6.44764027E+07   1.95083548E+07   0.1659832       
  53               1.03634797E-01   3.03541473E-01   2401.01921012    3.54746796E-06   9.15689517E+17   2.12132331E+09   9.34212299E+07   1.92119142E+07   0.16015061      
  54               1.25463068E-01   3.38943442E-01   2443.08940591    3.88530545E-06   1.00487887E+18   2.08659487E+09   1.28148498E+08   1.89103574E+07   0.1547069       
  55               1.51888958E-01   3.78385171E-01   2484.39712126    4.25634152E-06   1.10316108E+18   2.04571981E+09   1.69025889E+08   1.86036400E+07   0.14976986      
  56               1.83880850E-01   4.22285819E-01   2524.98047702    4.66344871E-06   1.21136302E+18   1.99824905E+09   2.16501114E+08   1.82920293E+07   0.14545711      
  57               2.22611093E-01   4.71161324E-01   2565.03618211    5.10997252E-06   1.33046048E+18   1.94387757E+09   2.70874941E+08   1.79754070E+07   0.14149484      
  58               2.69498965E-01   5.25569626E-01   2604.49784506    5.60001303E-06   1.46161198E+18   1.88236510E+09   3.32388859E+08   1.76537639E+07   0.13792269      
  59               3.26262682E-01   5.86110023E-01   2643.57166941    6.13712712E-06   1.60588299E+18   1.81346930E+09   4.01286235E+08   1.73271904E+07   0.13473548      
  60               3.94982361E-01   6.53423871E-01   2682.17340527    6.72577581E-06   1.76455006E+18   1.73696997E+09   4.77787293E+08   1.69958586E+07   0.1319456       
  61               4.78176250E-01   7.28195464E-01   2720.51615981    7.36963522E-06   1.93875307E+18   1.65262153E+09   5.62137171E+08   1.66600013E+07   0.12934768      
  62               5.78893005E-01   8.11159726E-01   2758.39210044    8.07398550E-06   2.12998340E+18   1.56038684E+09   6.54372973E+08   1.63198783E+07   0.12699226      
  63               7.00823412E-01   9.03107748E-01   2796.05600350    8.84268731E-06   2.33948110E+18   1.46046866E+09   7.54291837E+08   1.59757519E+07   0.12487757      
  64               8.48435636E-01   1.00489335E+00   2833.30252648    9.68169315E-06   2.56893351E+18   1.35347130E+09   8.61287479E+08   1.56278716E+07   0.12309844      
  65               1.02713896E+00   1.11742889E+00   2870.45917792    1.05947943E-05   2.81964452E+18   1.24029867E+09   9.74453349E+08   1.52764901E+07   0.12153223      
  66               1.24348200E+00   1.24169604E+00   2907.24809248    1.15889389E-05   3.09356355E+18   1.12244774E+09   1.09229271E+09   1.49218409E+07   0.12018006      
  67               1.50539269E+00   1.37875470E+00   2944.01653509    1.26681236E-05   3.39213088E+18   1.00202316E+09   1.21270039E+09   1.45641243E+07   0.11896152      
  68               1.82246880E+00   1.52975695E+00   2980.44168056    1.38406282E-05   3.71764268E+18   8.81871661E+08   1.33283006E+09   1.42034962E+07   0.11790802      
  69               2.20632965E+00   1.69595765E+00   3016.91142907    1.51107331E-05   4.07172354E+18   7.65299544E+08   1.44937158E+09   1.38400649E+07   0.11696237      
  70               2.67104190E+00   1.87869417E+00   3053.06405223    1.64881390E-05   4.45703465E+18   6.55807797E+08   1.55883331E+09   1.34739593E+07   0.11613125      
  71               3.23363503E+00   2.07939552E+00   3089.30080593    1.79771193E-05   4.87531574E+18   5.56478781E+08   1.65813528E+09   1.31053094E+07   0.11537905      
  72               3.91472538E+00   2.29964420E+00   3125.23919701    1.95892285E-05   5.32970564E+18   4.69503747E+08   1.74508910E+09   1.27341558E+07   0.11473854      
  73               4.73927163E+00   2.54119057E+00   3161.32782834    2.13293896E-05   5.82228607E+18   3.95721343E+08   1.81885820E+09   1.23604655E+07   0.11420917      
  74               5.73748947E+00   2.80596612E+00   3197.18715009    2.32114780E-05   6.35682423E+18   3.34536409E+08   1.88003014E+09   1.19841554E+07   0.11380784      
  75               6.94595877E+00   3.09610052E+00   3233.29563031    2.52410554E-05   6.93578268E+18   2.84322115E+08   1.93023849E+09   1.16050998E+07   0.11349244      
  76               8.40896415E+00   3.41394308E+00   3269.24460907    2.74349621E-05   7.56370705E+18   2.42963773E+08   1.97159729E+09   1.12231428E+07   0.113259        
  77               1.01801177E+01   3.76209379E+00   3305.52666930    2.97997266E-05   8.24355979E+18   2.08597361E+08   2.00596901E+09   1.08380925E+07   0.11306502      
  78               1.23243238E+01   4.14343230E+00   3341.70177981    3.23559626E-05   8.98086972E+18   1.79623438E+08   2.03495138E+09   1.04497316E+07   0.11292922      
  79               1.49201573E+01   4.56113820E+00   3378.28865871    3.51111948E-05   9.77917721E+18   1.54999665E+08   2.05957710E+09   1.00578283E+07   0.11281783      
  80               1.80627429E+01   5.01872512E+00   3414.81697454    3.80904123E-05   1.06451508E+19   1.33853340E+08   2.08072790E+09   9.66214217E+06   0.11277144      
  81               2.18672415E+01   5.52007246E+00   3451.84417774    4.13019489E-05   1.15829568E+19   1.15727473E+08   2.09886155E+09   9.26242419E+06   0.11276316      
  82               2.64730696E+01   6.06946356E+00   3488.87224464    4.47758638E-05   1.26005958E+19   1.00059753E+08   2.11453967E+09   8.85842348E+06   0.11282396      
  83               3.20490087E+01   6.67162774E+00   3526.49127947    4.85213905E-05   1.37029739E+19   8.65963430E+07   2.12801556E+09   8.44988373E+06   0.11292477      
  84               3.87993903E+01   7.33178829E+00   3564.17304280    5.25746316E-05   1.48996811E+19   7.49369881E+07   2.13968312E+09   8.03654839E+06   0.11309569      
  85               4.69715834E+01   8.05572385E+00   3602.54103294    5.69458261E-05   1.61965111E+19   6.49403004E+07   2.14968329E+09   7.61815112E+06   0.11331345      
  86               5.68650599E+01   8.84981465E+00   3641.04000664    6.16781750E-05   1.76049406E+19   5.62512553E+07   2.15837673E+09   7.19442894E+06   0.1135949       
  87               6.88423680E+01   9.72111464E+00   3680.31828241    6.67831640E-05   1.91318305E+19   4.87565554E+07   2.16587671E+09   6.76511347E+06   0.11390796      
  88               8.33424188E+01   1.06774260E+01   3719.78676278    7.23126858E-05   2.07909515E+19   4.21970168E+07   2.17244208E+09   6.32993598E+06   0.11426506      
  89               1.00896570E+02   1.17273986E+01   3760.11723070    7.82799866E-05   2.25905155E+19   3.65274415E+07   2.17811667E+09   5.88861601E+06   0.11464371      
  90               1.22148096E+02   1.28806193E+01   3800.69309443    8.47473933E-05   2.45470768E+19   3.15649743E+07   2.18307602E+09   5.44086984E+06   0.11508074      
  91               1.47875764E+02   1.41477225E+01   3842.22796660    9.17295786E-05   2.66703825E+19   2.72926525E+07   2.18734604E+09   4.98640265E+06   0.11555663      
  92               1.79022369E+02   1.55404945E+01   3884.07880432    9.93010806E-05   2.89802843E+19   2.35666788E+07   2.19107017E+09   4.52491878E+06   0.1160753       
  93               2.16729286E+02   1.70720374E+01   3926.97910462    1.07479252E-04   3.14885458E+19   2.03715933E+07   2.19426316E+09   4.05610707E+06   0.11660827      
  94               2.62378292E+02   1.87569201E+01   3970.25269529    1.16354009E-04   3.42191501E+19   1.75848748E+07   2.19704714E+09   3.57964870E+06   0.11716539      
  95               3.17642204E+02   2.06113946E+01   4014.65912154    1.25946357E-04   3.71864346E+19   1.51935542E+07   2.19942391E+09   3.09520201E+06   0.11772627      
  96               3.84546179E+02   2.26535775E+01   4059.49446690    1.36364922E-04   4.04194762E+19   1.31090970E+07   2.20149558E+09   2.60241558E+06   0.11831374      
  97               4.65541927E+02   2.49037157E+01   4105.55535767    1.47634895E-04   4.39357533E+19   1.13258627E+07   2.20327048E+09   2.10091449E+06   0.11893967      
  98               5.63597555E+02   2.73843747E+01   4152.13357406    1.59885527E-04   4.77702322E+19   9.77661197E+06   2.20481442E+09   1.59032003E+06   0.11962904      
  99               6.82306330E+02   3.01207659E+01   4200.06578977    1.73146164E-04   5.19440440E+19   8.45759814E+06   2.20613128E+09   1.07023352E+06   0.12039974      
  100              8.26018359E+02   3.31409280E+01   4248.64356685    1.87568987E-04   5.64989278E+19   7.31752832E+06   2.20726225E+09   5.40263441E+05   0.12127287      
  101              1.00000000E+03   3.64761566E+01   4298.74200245    2.03187001E-04   6.14601379E+19   6.82328581E+06   2.20774696E+09   0.00000000E+00   0.12222553      
