# ATMO pressure-temperature profile
# Effective temperature = 2800.0K
# log(g) = 5.5cm/s^2
# M/H = 0.0
# Optical depth grid in band 17 (1.20-1.33microns)
# All parameters in cgs units
#
# Model Level      Optical Depth    Pressure         Temperature      Density          Number Density   Rad Flux         Conv Flux        Radial Extension Adiabatic Gradient
#                                   [Ba]             [K]              [g/cm^3]         [/cm^3]          [ergs/s/cm^2/sr] [ergs/s/cm^2/sr] [cm]             [K/Ba]          
  1                1.00000000E-08   1.00000000E-05   1176.57080454    2.40723189E-10   6.15612985E+13   3.48503958E+09   0.00000000E+00   4.23823483E+06   0.28220028      
  2                1.28824955E-08   1.15273051E-05   1085.89777737    3.00664267E-10   7.68890831E+13   3.48503958E+09   0.00000000E+00   4.22028220E+06   0.28698673      
  3                1.65958691E-08   1.34797834E-05   1186.14789419    3.21869591E-10   8.23132805E+13   3.48503958E+09   0.00000000E+00   4.20043461E+06   0.28185977      
  4                2.13796209E-08   1.59695340E-05   1097.69274338    4.12054314E-10   1.05374928E+14   3.48503958E+09   0.00000000E+00   4.17881535E+06   0.28653103      
  5                2.75422870E-08   1.91484860E-05   1197.45395553    4.52909239E-10   1.15824773E+14   3.48503958E+09   0.00000000E+00   4.15554497E+06   0.28147683      
  6                3.54813389E-08   2.31948421E-05   1111.85424945    5.90862410E-10   1.51101717E+14   3.48503957E+09   0.00000000E+00   4.13080965E+06   0.28599336      
  7                4.57088190E-08   2.83505692E-05   1211.20765259    6.62948097E-10   1.69538766E+14   3.48503957E+09   0.00000000E+00   4.10475955E+06   0.28101364      
  8                5.88843655E-08   3.48969385E-05   1128.81500112    8.75605228E-10   2.23918716E+14   3.48503957E+09   0.00000000E+00   4.07758837E+06   0.28535449      
  9                7.58577575E-08   4.32226527E-05   1227.71014515    9.97135350E-10   2.55000724E+14   3.48503957E+09   0.00000000E+00   4.04941148E+06   0.28045841      
  10               9.77237221E-08   5.37702075E-05   1148.85210867    1.32563474E-09   3.39002910E+14   3.48503957E+09   0.00000000E+00   4.02040035E+06   0.28460569      
  11               1.25892541E-07   6.71323667E-05   1247.54252742    1.52412644E-09   3.89764642E+14   3.48503957E+09   0.00000000E+00   3.99067291E+06   0.2797975       
  12               1.62181010E-07   8.39888203E-05   1172.44248685    2.02900494E-09   5.18866668E+14   3.48503957E+09   0.00000000E+00   3.96036080E+06   0.28373924      
  13               2.08929613E-07   1.05309861E-04   1270.71861384    2.34727795E-09   6.00268408E+14   3.48503957E+09   0.00000000E+00   3.92946587E+06   0.27901921      
  14               2.69153480E-07   1.32160031E-04   1199.35246086    3.12108885E-09   7.98140119E+14   3.48503957E+09   0.00000000E+00   3.89809593E+06   0.2837518       
  15               3.46736850E-07   1.65695752E-04   1297.84789910    3.61645890E-09   9.24726740E+14   3.48503957E+09   0.00000000E+00   3.86652961E+06   0.27641958      
  16               4.46683592E-07   2.07392422E-04   1229.71318518    4.77745800E-09   1.22156026E+15   3.48503957E+09   0.00000000E+00   3.83480741E+06   0.28257188      
  17               5.75439937E-07   2.59856414E-04   1326.84676178    5.54762850E-09   1.41852996E+15   3.48503957E+09   0.00000000E+00   3.80258096E+06   0.27471562      
  18               7.41310241E-07   3.25581602E-04   1261.73415606    7.30958761E-09   1.86903673E+15   3.48503957E+09   0.00000000E+00   3.76994218E+06   0.28123899      
  19               9.54992586E-07   4.05186251E-04   1359.69374994    8.44503294E-09   2.15843730E+15   3.48503957E+09   0.00000000E+00   3.73789986E+06   0.27288187      
  20               1.23026877E-06   5.01126074E-04   1296.34571157    1.09554838E-08   2.79996114E+15   3.48503957E+09   0.00000000E+00   3.70635817E+06   0.27973932      
  21               1.58489319E-06   6.20844018E-04   1391.95635460    1.26401905E-08   3.23059653E+15   3.48503957E+09   0.00000000E+00   3.67418663E+06   0.2707319       
  22               2.04173794E-06   7.69501897E-04   1330.80816576    1.63873506E-08   4.18812927E+15   3.48503957E+09   0.00000000E+00   3.64152338E+06   0.2782186       
  23               2.63026799E-06   9.51661253E-04   1426.89096043    1.89063056E-08   4.83078201E+15   3.48503956E+09   0.00000000E+00   3.60879588E+06   0.26872808      
  24               3.38844156E-06   1.17247230E-03   1367.75080433    2.43016008E-08   6.20899703E+15   3.48503956E+09   0.00000000E+00   3.57621948E+06   0.276424        
  25               4.36515832E-06   1.43537637E-03   1464.65495794    2.77907712E-08   7.09833198E+15   3.48503955E+09   0.00000000E+00   3.54422709E+06   0.26643045      
  26               5.62341325E-06   1.74503713E-03   1408.03251446    3.51452415E-08   8.97672306E+15   3.48503954E+09   0.00000000E+00   3.51289379E+06   0.27437601      
  27               7.24435960E-06   2.07442619E-03   1505.77667946    3.91562060E-08   9.97845402E+15   3.48503950E+09   0.00000000E+00   3.48480568E+06   0.2638024       
  28               9.33254301E-06   2.40849189E-03   1450.91982396    4.71854935E-08   1.20234088E+16   3.48503955E+09   0.00000000E+00   3.46022855E+06   0.27202859      
  29               1.20226443E-05   2.82398473E-03   1539.98991932    5.21176545E-08   1.32822089E+16   3.48503955E+09   0.00000000E+00   3.43373290E+06   0.26081792      
  30               1.54881662E-05   3.33829724E-03   1487.25332751    6.38019089E-08   1.62579541E+16   3.48503957E+09   0.00000000E+00   3.40552815E+06   0.26926459      
  31               1.99526231E-05   3.97424116E-03   1578.39536533    7.15563380E-08   1.82374561E+16   3.48503957E+09   0.00000000E+00   3.37576443E+06   0.25729347      
  32               2.57039578E-05   4.75633342E-03   1527.93060634    8.84797064E-08   2.25472978E+16   3.48503958E+09   0.00000000E+00   3.34468185E+06   0.26650555      
  33               3.31131121E-05   5.71697411E-03   1621.19431166    1.00207128E-07   2.55421231E+16   3.48503957E+09   0.00000000E+00   3.31241911E+06   0.25330701      
  34               4.26579519E-05   6.88921170E-03   1573.60560762    1.24428900E-07   3.17102361E+16   3.48503958E+09   0.00000000E+00   3.27922117E+06   0.2630724       
  35               5.49540874E-05   8.31623655E-03   1669.80078791    1.41503659E-07   3.60734776E+16   3.48503955E+09   0.00000000E+00   3.24521157E+06   0.24790152      
  36               7.07945784E-05   1.00352396E-02   1627.98587251    1.75177618E-07   4.46480971E+16   3.48503954E+09   0.00000000E+00   3.21068455E+06   0.25774696      
  37               9.12010839E-05   1.20435159E-02   1742.15896504    1.96345666E-07   5.00715860E+16   3.48503927E+09   0.00000000E+00   3.17643921E+06   0.24069365      
  38               1.17489755E-04   1.41406503E-02   1746.90711607    2.29916398E-07   5.86307442E+16   3.48503940E+09   0.00000000E+00   3.14522656E+06   0.24282721      
  39               1.51356125E-04   1.66948240E-02   1787.67364191    2.65183466E-07   6.76424686E+16   3.48503936E+09   0.00000000E+00   3.11251541E+06   0.23578109      
  40               1.94984460E-04   1.98048470E-02   1790.03116443    3.14191934E-07   8.01376750E+16   3.48503939E+09   0.00000000E+00   3.07844376E+06   0.23856664      
  41               2.51188643E-04   2.35905660E-02   1829.61220277    3.66047347E-07   9.33910272E+16   3.48503939E+09   0.00000000E+00   3.04314288E+06   0.23189224      
  42               3.23593657E-04   2.81862097E-02   1832.42117219    4.36724017E-07   1.11413346E+17   3.48503939E+09   0.00000000E+00   3.00679538E+06   0.23488693      
  43               4.16869383E-04   3.37581856E-02   1871.79898584    5.11892183E-07   1.30630843E+17   3.48503940E+09   0.00000000E+00   2.96952878E+06   0.22845944      
  44               5.37031796E-04   4.04926966E-02   1875.55688314    6.12838915E-07   1.56376792E+17   3.48503939E+09   0.00000000E+00   2.93150599E+06   0.23137624      
  45               6.91830971E-04   4.86201951E-02   1915.01036226    7.20437345E-07   1.83895630E+17   3.48503939E+09   0.00000000E+00   2.89282577E+06   0.22487043      
  46               8.91250938E-04   5.83957194E-02   1920.16800098    8.63045781E-07   2.20276225E+17   3.48503938E+09   0.00000000E+00   2.85362223E+06   0.22761149      
  47               1.14815362E-03   7.01333773E-02   1960.18342654    1.01497379E-06   2.59151591E+17   3.48503938E+09   0.00000000E+00   2.81396332E+06   0.22124895      
  48               1.47910839E-03   8.41761588E-02   1967.35167556    1.21386525E-06   3.09908112E+17   3.48503936E+09   0.00000000E+00   2.77395589E+06   0.22372933      
  49               1.90546072E-03   1.00947513E-01   2008.25440395    1.42545662E-06   3.64084959E+17   3.48503936E+09   0.00000000E+00   2.73363689E+06   0.21736885      
  50               2.45470892E-03   1.20903483E-01   2018.04641297    1.69906668E-06   4.33943812E+17   3.48503934E+09   0.00000000E+00   2.69308690E+06   0.21938947      
  51               3.16227766E-03   1.44607662E-01   2060.42622357    1.98939255E-06   5.08346777E+17   3.48503933E+09   0.00000000E+00   2.65231472E+06   0.2127271       
  52               4.07380278E-03   1.72660748E-01   2073.56349639    2.36030670E-06   6.03117763E+17   3.48503931E+09   0.00000000E+00   2.61137582E+06   0.2141433       
  53               5.24807460E-03   2.05803899E-01   2118.02446992    2.75267266E-06   7.03798707E+17   3.48503930E+09   0.00000000E+00   2.57025728E+06   0.20756628      
  54               6.76082975E-03   2.44812186E-01   2135.39422574    3.24757495E-06   8.30387510E+17   3.48503927E+09   0.00000000E+00   2.52900005E+06   0.20827417      
  55               8.70963590E-03   2.90644676E-01   2182.70143850    3.76918057E-06   9.64481444E+17   3.48503926E+09   0.00000000E+00   2.48757365E+06   0.20147725      
  56               1.12201845E-02   3.44282388E-01   2205.27765703    4.41821985E-06   1.13077805E+18   3.48503923E+09   0.00000000E+00   2.44600906E+06   0.20132074      
  57               1.44543977E-02   4.06939302E-01   2256.25982101    5.09932909E-06   1.30637050E+18   3.48503922E+09   0.00000000E+00   2.40426469E+06   0.19416898      
  58               1.86208714E-02   4.79833358E-01   2285.09409580    5.93450134E-06   1.52094037E+18   3.48503918E+09   0.00000000E+00   2.36236172E+06   0.19279642      
  59               2.39883292E-02   5.64306981E-01   2340.55297191    6.80560555E-06   1.74631582E+18   3.48503917E+09   0.00000000E+00   2.32032581E+06   0.18488838      
  60               3.09029543E-02   6.61750284E-01   2377.85782373    7.84941233E-06   2.01573804E+18   3.48503912E+09   0.00000000E+00   2.27816548E+06   0.1823187       
  61               3.98107171E-02   7.73761958E-01   2444.95745778    8.90713788E-06   2.29224961E+18   3.48358109E+09   1.46937237E+06   2.23580120E+06   0.17366689      
  62               5.12861384E-02   9.00617867E-01   2508.59974139    1.00808803E-05   2.60036927E+18   3.47125369E+09   1.37848945E+07   2.19346462E+06   0.16621639      
  63               6.60693448E-02   1.04477740E+00   2570.10938259    1.13855602E-05   2.94440808E+18   3.44801904E+09   3.70193692E+07   2.15091066E+06   0.15967143      
  64               8.51138038E-02   1.20901440E+00   2629.40045249    1.28432963E-05   3.33043207E+18   3.41281156E+09   7.22267028E+07   2.10795922E+06   0.15389854      
  65               1.09647820E-01   1.39631417E+00   2687.46624625    1.44702555E-05   3.76327509E+18   3.36409471E+09   1.20943419E+08   2.06450993E+06   0.14890298      
  66               1.41253754E-01   1.60988216E+00   2743.98988688    1.62900243E-05   4.24949596E+18   3.29998255E+09   1.85055453E+08   2.02051950E+06   0.14444297      
  67               1.81970086E-01   1.85319651E+00   2799.68740255    1.83199629E-05   4.79443871E+18   3.21829481E+09   2.66743104E+08   1.97597798E+06   0.14056007      
  68               2.34422882E-01   2.13006439E+00   2854.19942046    2.05863305E-05   5.40547993E+18   3.11663506E+09   3.68402771E+08   1.93089212E+06   0.13736989      
  69               3.01995172E-01   2.44462862E+00   2908.33642572    2.31062359E-05   6.08827258E+18   2.99212314E+09   4.92914632E+08   1.88528059E+06   0.13455213      
  70               3.89045145E-01   2.80145387E+00   2961.46149362    2.59119968E-05   6.85177709E+18   2.84208356E+09   6.42954165E+08   1.83916383E+06   0.13214369      
  71               5.01187234E-01   3.20559280E+00   3014.45765681    2.90218235E-05   7.70238115E+18   2.66433314E+09   8.20704538E+08   1.79255846E+06   0.13004385      
  72               6.45654229E-01   3.66255238E+00   3066.58819802    3.24744923E-05   8.65075923E+18   2.45839413E+09   1.02664351E+09   1.74548661E+06   0.12823371      
  73               8.31763771E-01   4.17826898E+00   3118.74472132    3.62882187E-05   9.70381272E+18   2.22642434E+09   1.25861327E+09   1.69797781E+06   0.12665018      
  74               1.07151931E+00   4.75948328E+00   3170.13527143    4.05103590E-05   1.08744638E+19   1.97425735E+09   1.51078022E+09   1.65003912E+06   0.12539128      
  75               1.38038426E+00   5.41383397E+00   3221.81049446    4.51616295E-05   1.21711266E+19   1.71124872E+09   1.77378872E+09   1.60165993E+06   0.1243537       
  76               1.77827941E+00   6.15000490E+00   3272.89983706    5.03031069E-05   1.36103279E+19   1.44998252E+09   2.03505477E+09   1.55281592E+06   0.12353125      
  77               2.29086765E+00   6.97789335E+00   3324.50987373    5.59602566E-05   1.52027635E+19   1.20400107E+09   2.28103608E+09   1.50347018E+06   0.12281953      
  78               2.95120923E+00   7.90882523E+00   3375.67582746    6.22127966E-05   1.69698141E+19   9.85013010E+08   2.50002405E+09   1.45357572E+06   0.12226454      
  79               3.80189396E+00   8.95576612E+00   3427.59533276    6.90919726E-05   1.89251373E+19   7.99458380E+08   2.68557864E+09   1.40307670E+06   0.12180492      
  80               4.89778819E+00   1.01334986E+01   3479.23003527    7.67002160E-05   2.10960966E+19   6.47239865E+08   2.83779724E+09   1.35191463E+06   0.12150061      
  81               6.30957344E+00   1.14588749E+01   3531.86916689    8.50742938E-05   2.34997483E+19   5.24098047E+08   2.96093922E+09   1.30002795E+06   0.12129404      
  82               8.12830516E+00   1.29510998E+01   3584.39382655    9.43443412E-05   2.61707862E+19   4.23973191E+08   3.06106421E+09   1.24735466E+06   0.1212392       
  83               1.04712855E+01   1.46320745E+01   3638.18010083    1.04553338E-04   2.91304738E+19   3.42455458E+08   3.14258206E+09   1.19383069E+06   0.1212736       
  84               1.34896288E+01   1.65267624E+01   3692.01974085    1.15866214E-04   3.24227322E+19   2.75843997E+08   3.20919367E+09   1.13939250E+06   0.12142434      
  85               1.73780083E+01   1.86636962E+01   3747.35506883    1.28334588E-04   3.60743613E+19   2.22327786E+08   3.26271000E+09   1.08397398E+06   0.1216341       
  86               2.23872114E+01   2.10754913E+01   3802.89102499    1.42167931E-04   4.01411367E+19   1.79351105E+08   3.30568672E+09   1.02750873E+06   0.12195591      
  87               2.88403150E+01   2.37995246E+01   3860.16451206    1.57427831E-04   4.46568729E+19   1.45523043E+08   3.33951477E+09   9.69926911E+05   0.12235317      
  88               3.71535229E+01   2.68785752E+01   3917.81012825    1.74378892E-04   4.96922543E+19   1.18475828E+08   3.36656196E+09   9.11158625E+05   0.12283371      
  89               4.78630092E+01   3.03618691E+01   3977.42321936    1.93098664E-04   5.52907573E+19   9.70842219E+07   3.38795350E+09   8.51128618E+05   0.12334838      
  90               6.16595002E+01   3.43059105E+01   4037.55424750    2.13924305E-04   6.15426821E+19   7.96685656E+07   3.40536895E+09   7.89761484E+05   0.12392015      
  91               7.94328235E+01   3.87759440E+01   4099.87487072    2.36954666E-04   6.85042660E+19   6.56743005E+07   3.41936303E+09   7.26975469E+05   0.12454663      
  92               1.02329299E+02   4.38471723E+01   4162.89602862    2.62616366E-04   7.62907469E+19   5.40911848E+07   3.43094603E+09   6.62686945E+05   0.12528254      
  93               1.31825674E+02   4.96066357E+01   4228.40536517    2.91032265E-04   8.49745745E+19   4.47279743E+07   3.44030911E+09   5.96805208E+05   0.12613896      
  94               1.69824365E+02   5.61547180E+01   4294.88803045    3.22737563E-04   9.47022383E+19   3.69548516E+07   3.44808198E+09   5.29238568E+05   0.12714859      
  95               2.18776162E+02   6.36077965E+01   4364.23355894    3.57884822E-04   1.05567006E+20   3.06736278E+07   3.45436287E+09   4.59887412E+05   0.12825019      
  96               2.81838293E+02   7.21003081E+01   4434.82346638    3.97155787E-04   1.17756970E+20   2.54553767E+07   3.45958076E+09   3.88651718E+05   0.12940833      
  97               3.63078055E+02   8.17891495E+01   4508.58308056    4.40758977E-04   1.31395791E+20   2.12158329E+07   3.46381981E+09   3.15418950E+05   0.13059906      
  98               4.67735141E+02   9.28571099E+01   4583.83210283    4.89570096E-04   1.46727764E+20   1.76690927E+07   3.46736608E+09   2.40070646E+05   0.13185188      
  99               6.02559586E+02   1.05518284E+02   4662.61253391    5.43868407E-04   1.63917089E+20   1.47772339E+07   3.47025754E+09   1.62475479E+05   0.13318394      
  100              7.76247117E+02   1.20022267E+02   4743.22409932    6.04767239E-04   1.83279555E+20   1.23583224E+07   3.47267452E+09   8.24993027E+04   0.1346246       
  101              1.00000000E+03   1.36660866E+02   4827.82769898    6.72629692E-04   2.05030394E+20   1.13455298E+07   3.47368485E+09   0.00000000E+00   0.13616418      
