# ATMO pressure-temperature profile
# Effective temperature = 300.0K
# log(g) = 4.5cm/s^2
# M/H = 0.0
# Optical depth grid in band 17 (1.20-1.33microns)
# All parameters in cgs units
#
# Model Level      Optical Depth    Pressure         Temperature      Density          Number Density   Rad Flux         Conv Flux        Radial Extension Adiabatic Gradient
#                                   [Ba]             [K]              [g/cm^3]         [/cm^3]          [ergs/s/cm^2/sr] [ergs/s/cm^2/sr] [cm]             [K/Ba]          
  1                5.00000000E-05   1.00000000E-05   43.43859539      6.48831182E-09   1.66743943E+15   4.59219519E+05   0.00000000E+00   8.41820128E+06   0.34612403      
  2                5.91534807E-05   1.46402572E-03   60.05126508      6.87122281E-07   1.76584420E+17   4.59219489E+05   0.00000000E+00   7.72956608E+06   0.31481545      
  3                6.99826855E-05   3.14592912E-03   67.19484351      1.31953366E-06   3.39108618E+17   4.59219437E+05   0.00000000E+00   7.67370957E+06   0.31484382      
  4                8.27943887E-05   5.09883495E-03   73.10026534      1.96589124E-06   5.05216865E+17   4.59219488E+05   0.00000000E+00   7.63536611E+06   0.3148636       
  5                9.79515255E-05   7.33602891E-03   77.37246125      2.67228091E-06   6.86752836E+17   4.59219506E+05   0.00000000E+00   7.60449993E+06   0.3148798       
  6                1.15883473E-04   9.88027065E-03   82.03715398      3.39442129E-06   8.72336602E+17   4.59219423E+05   0.00000000E+00   7.57778621E+06   0.31489412      
  7                1.37098216E-04   1.27777199E-02   85.51617714      4.21126501E-06   1.08225830E+18   4.59219260E+05   0.00000000E+00   7.55355212E+06   0.31490734      
  8                1.62196734E-04   1.60953821E-02   89.99233544      5.04084396E-06   1.29545284E+18   4.59218906E+05   0.00000000E+00   7.53078153E+06   0.3149199       
  9                1.91890027E-04   1.99153238E-02   93.46486763      6.00546255E-06   1.54335138E+18   4.59218281E+05   0.00000000E+00   7.50882661E+06   0.31493208      
  10               2.27019260E-04   2.43314868E-02   98.36834517      6.97141231E-06   1.79159203E+18   4.59217136E+05   0.00000000E+00   7.48724363E+06   0.31494406      
  11               2.68579588E-04   2.94528378E-02   102.52800176     8.09640085E-06   2.08070491E+18   4.59214999E+05   0.00000000E+00   7.46568713E+06   0.31495596      
  12               3.17748350E-04   3.53867763E-02   109.19409955     9.13376049E-06   2.34729498E+18   4.59209703E+05   9.64436878E+00   7.44386624E+06   0.31496782      
  13               3.75918418E-04   4.21079769E-02   114.74591585     1.03427558E-05   2.65798777E+18   4.59196334E+05   2.38993167E+01   7.42199846E+06   0.31497974      
  14               4.44737657E-04   4.90465972E-02   121.01889937     1.14228072E-05   2.93549620E+18   4.59168893E+05   5.33561863E+01   7.40181143E+06   0.31499181      
  15               5.26155608E-04   5.42656792E-02   124.29024027     1.23082556E-05   3.16238000E+18   4.59133663E+05   1.10000634E+02   7.38789186E+06   0.31500412      
  16               6.22478712E-04   5.83121643E-02   127.79853240     1.28618971E-05   3.30490617E+18   4.59099757E+05   1.31612887E+02   7.37772172E+06   0.31501677      
  17               7.36435649E-04   6.14413870E-02   129.24915566     1.34082510E-05   3.44317531E+18   4.59069839E+05   1.53820438E+02   7.37018579E+06   0.3150299       
  18               8.71254639E-04   6.37177382E-02   131.41801544     1.36755336E-05   3.51181222E+18   4.59049818E+05   1.62997492E+02   7.36486984E+06   0.31504363      
  19               1.03075489E-03   6.64007155E-02   132.44891246     1.41404489E-05   3.63120027E+18   4.59037534E+05   1.71013532E+02   7.35876867E+06   0.31505809      
  20               1.21945479E-03   6.95614343E-02   135.10182197     1.45226595E-05   3.72935015E+18   4.59031821E+05   1.81525124E+02   7.35179388E+06   0.31526577      
  21               1.44269991E-03   7.32830557E-02   136.63170835     1.51283271E-05   3.88488271E+18   4.59032937E+05   1.76302908E+02   7.34385401E+06   0.31927251      
  22               1.70681442E-03   7.76627313E-02   139.93828150     1.56536262E-05   4.01977702E+18   4.59040994E+05   1.73130210E+02   7.33485408E+06   0.32185214      
  23               2.01928028E-03   8.28139628E-02   142.11563527     1.64361668E-05   4.22072975E+18   4.59056892E+05   1.53610896E+02   7.32469853E+06   0.32346905      
  24               2.38894914E-03   8.88693538E-02   146.17470383     1.71482037E-05   4.40357745E+18   4.59080682E+05   1.34543013E+02   7.31329255E+06   0.32431286      
  25               2.82629313E-03   9.59838921E-02   149.08317684     1.81596951E-05   4.66332364E+18   4.59113446E+05   9.89877916E+01   7.30054334E+06   0.32492412      
  26               3.34370152E-03   1.04338165E-01   153.99853044     1.91102101E-05   4.90741127E+18   4.59152500E+05   6.40205842E+01   7.28636186E+06   0.32534547      
  27               3.95583167E-03   1.14142475E-01   157.72863513     2.04115307E-05   5.24158436E+18   4.59194580E+05   2.08121401E+01   7.27066378E+06   0.32577257      
  28               4.68002425E-03   1.25642479E-01   163.60789070     2.16606344E-05   5.56234715E+18   4.59219363E+05   0.00000000E+00   7.25336862E+06   0.32599121      
  29               5.53679448E-03   1.39125908E-01   167.42838233     2.34378515E-05   6.01872872E+18   4.59217019E+05   0.00000000E+00   7.23444493E+06   0.32591999      
  30               6.55041330E-03   1.54931013E-01   172.07751060     2.53953102E-05   6.52138868E+18   4.59226496E+05   0.00000000E+00   7.21395871E+06   0.32558841      
  31               7.74959494E-03   1.73452223E-01   176.28611357     2.77524186E-05   7.12668569E+18   4.59219996E+05   0.00000000E+00   7.19189685E+06   0.32526229      
  32               9.16831029E-03   1.95154504E-01   180.45395797     3.05037211E-05   7.83317820E+18   4.59230333E+05   0.00000000E+00   7.16830952E+06   0.32509929      
  33               1.08467493E-02   2.20580734E-01   185.09902134     3.36126830E-05   8.63156003E+18   4.59238356E+05   0.00000000E+00   7.14319910E+06   0.32494699      
  34               1.28324595E-02   2.50360300E-01   189.59738230     3.72460353E-05   9.56442720E+18   4.59244217E+05   0.00000000E+00   7.11658400E+06   0.32480663      
  35               1.51816929E-02   2.85208565E-01   195.40631239     4.11685736E-05   1.05718213E+19   4.59207927E+05   0.00000000E+00   7.08844179E+06   0.32448567      
  36               1.79609996E-02   3.25947974E-01   200.40136483     4.58805593E-05   1.17807639E+19   4.59177084E+05   0.00000000E+00   7.05879859E+06   0.32401614      
  37               2.12491128E-02   3.73497526E-01   208.12295038     5.06215413E-05   1.29985107E+19   4.59101331E+05   0.00000000E+00   7.02759788E+06   0.3233627       
  38               2.51391797E-02   4.28895192E-01   217.58263603     5.56107484E-05   1.42775202E+19   4.58136958E+05   1.08192052E+03   6.99457926E+06   0.32258767      
  39               2.97413996E-02   4.92804535E-01   227.59114209     6.10914016E-05   1.56835792E+19   4.54134521E+05   5.08340919E+03   6.95990266E+06   0.32164098      
  40               3.51861462E-02   5.63533309E-01   237.55313683     6.72606184E-05   1.71824331E+19   4.45712053E+05   1.35068230E+04   6.92497567E+06   0.32057363      
  41               4.16276604E-02   6.38887646E-01   247.34326529     7.32363068E-05   1.87089856E+19   4.37447795E+05   2.17753973E+04   6.89102373E+06   0.31935969      
  42               4.92484201E-02   7.26885456E-01   257.67066632     7.99839841E-05   2.04327508E+19   4.32336272E+05   2.68916880E+04   6.85466513E+06   0.31808817      
  43               5.82643093E-02   8.29620700E-01   268.77506281     8.75170443E-05   2.23571503E+19   4.26722122E+05   3.25110589E+04   6.81583475E+06   0.31665944      
  44               6.89307339E-02   9.49505361E-01   280.41910531     9.60045588E-05   2.45253753E+19   4.19547719E+05   3.96908359E+04   6.77447562E+06   0.31422244      
  45               8.15498567E-02   1.08929857E+00   292.78673978     1.05486665E-04   2.69476792E+19   4.10826623E+05   4.84170038E+04   6.73054763E+06   0.31269586      
  46               9.64791575E-02   1.25221069E+00   305.76485543     1.16115948E-04   2.96630415E+19   4.00773691E+05   5.84740470E+04   6.68399881E+06   0.31063727      
  47               1.14141560E-01   1.44190822E+00   319.43633747     1.27983898E-04   3.26948342E+19   3.89740172E+05   6.95099187E+04   6.63479054E+06   0.30931097      
  48               1.35037411E-01   1.66254037E+00   333.78155078     1.41225105E-04   3.60774399E+19   3.78136908E+05   8.11133160E+04   6.58289439E+06   0.30764746      
  49               1.59758657E-01   1.91888520E+00   348.79243653     1.55985408E-04   3.98481142E+19   3.67122451E+05   9.21258535E+04   6.52827754E+06   0.3064221       
  50               1.89005613E-01   2.21667263E+00   364.53869271     1.72409010E-04   4.40436970E+19   3.58033403E+05   1.01211686E+05   6.47085474E+06   0.3051149       
  51               2.23606798E-01   2.56240374E+00   380.96864399     1.90704298E-04   4.87174073E+19   3.51807756E+05   1.07433245E+05   6.41056015E+06   0.30411122      
  52               2.64542408E-01   2.96322811E+00   398.18154880     2.11001773E-04   5.39026098E+19   3.48729865E+05   1.10507525E+05   6.34737270E+06   0.30317545      
  53               3.12972084E-01   3.42685389E+00   416.06835642     2.33524824E-04   5.96563586E+19   3.48781271E+05   1.10453908E+05   6.28132496E+06   0.30240911      
  54               3.70267763E-01   3.96186622E+00   434.73595134     2.58390301E-04   6.60085343E+19   3.51450507E+05   1.07783329E+05   6.21245035E+06   0.30179299      
  55               4.38052539E-01   4.57855746E+00   454.08833850     2.85886518E-04   7.30321624E+19   3.54844606E+05   1.04388816E+05   6.14069828E+06   0.30127906      
  56               5.18246648E-01   5.28790959E+00   474.24340469     3.16146261E-04   8.07622782E+19   3.55438964E+05   1.03794935E+05   6.06608415E+06   0.30090541      
  57               6.13121862E-01   6.10130815E+00   495.06432152     3.49442091E-04   8.92662254E+19   3.48855652E+05   1.10378295E+05   5.98869629E+06   0.30056163      
  58               7.25365844E-01   7.03105669E+00   516.64455112     3.85871431E-04   9.85722310E+19   3.36443493E+05   1.22790047E+05   5.90862873E+06   0.30031494      
  59               8.58158289E-01   8.09247288E+00   538.88715047     4.25790432E-04   1.08770034E+20   3.23939173E+05   1.35294601E+05   5.82582184E+06   0.30010003      
  60               1.01526100E+00   9.30501968E+00   561.96997580     4.69505905E-04   1.19930604E+20   3.09579184E+05   1.49654322E+05   5.74006119E+06   0.29993796      
  61               1.20112443E+00   1.06881325E+01   585.78275177     5.17371017E-04   1.32157280E+20   2.93673367E+05   1.65559169E+05   5.65131779E+06   0.29978119      
  62               1.42101382E+00   1.22603574E+01   610.41152448     5.69530775E-04   1.45480989E+20   2.77361428E+05   1.81868488E+05   5.55972632E+06   0.29964448      
  63               1.68115827E+00   1.40403199E+01   635.67784833     6.26291658E-04   1.59980026E+20   2.62271491E+05   1.96954235E+05   5.46548009E+06   0.2995173       
  64               1.98892727E+00   1.60503957E+01   661.69995316     6.87798471E-04   1.75691390E+20   2.49392371E+05   2.09829070E+05   5.36863144E+06   0.29938507      
  65               2.35303941E+00   1.83229258E+01   688.41668120     7.54709481E-04   1.92783241E+20   2.38329637E+05   2.20887498E+05   5.26888688E+06   0.29922981      
  66               2.78380943E+00   2.08908282E+01   716.00155949     8.27328066E-04   2.11333103E+20   2.28195796E+05   2.31017454E+05   5.16612079E+06   0.29901059      
  67               3.29344035E+00   2.37871185E+01   744.29207222     9.06220945E-04   2.31485762E+20   2.18451092E+05   2.40772211E+05   5.06034500E+06   0.29876668      
  68               3.89636920E+00   2.70458412E+01   773.42668765     9.91554178E-04   2.53283663E+20   2.09113934E+05   2.50095154E+05   4.95163430E+06   0.29849063      
  69               4.60967600E+00   3.07077516E+01   803.24474301     1.08401320E-03   2.76901920E+20   2.01149369E+05   2.58060954E+05   4.83993963E+06   0.29820312      
  70               5.45356761E+00   3.48367384E+01   834.07047308     1.18432019E-03   3.02524519E+20   1.95901606E+05   2.63307791E+05   4.72470260E+06   0.29783281      
  71               6.45195012E+00   3.95017121E+01   865.80736518     1.29368349E-03   3.30461206E+20   1.94033821E+05   2.65177633E+05   4.60552328E+06   0.29740223      
  72               7.63310614E+00   4.47619164E+01   898.63082680     1.41241369E-03   3.60788926E+20   1.95787457E+05   2.63428414E+05   4.48246573E+06   0.29684091      
  73               9.03049593E+00   5.06616685E+01   932.17830918     1.54104795E-03   3.93646446E+20   2.01017550E+05   2.58204695E+05   4.35600799E+06   0.29626093      
  74               1.06837053E+01   5.72333318E+01   966.50551260     1.67910928E-03   4.28914307E+20   2.08643621E+05   2.50594555E+05   4.22681825E+06   0.29557155      
  75               1.26395671E+01   6.45149015E+01   1001.21714736    1.82711058E-03   4.66721276E+20   2.17680436E+05   2.41590348E+05   4.09535529E+06   0.2948122       
  76               1.49534878E+01   7.25934438E+01   1036.67645381    1.98557628E-03   5.07200887E+20   2.26497764E+05   2.32827329E+05   3.96123095E+06   0.29394788      
  77               1.76910170E+01   8.15488536E+01   1072.60493702    2.15581305E-03   5.50685838E+20   2.33332467E+05   2.26082858E+05   3.82435189E+06   0.29297608      
  78               2.09297047E+01   9.14424368E+01   1109.21112383    2.33759869E-03   5.97116970E+20   2.37806073E+05   2.21781541E+05   3.68498371E+06   0.29191495      
  79               2.47612977E+01   1.02320923E+02   1146.05913804    2.53163756E-03   6.46670816E+20   2.42664098E+05   2.17215132E+05   3.54357263E+06   0.29088038      
  80               2.92943389E+01   1.14237165E+02   1183.39741767    2.73728209E-03   6.99201965E+20   2.49339412E+05   2.10883466E+05   3.40042673E+06   0.28963867      
  81               3.46572422E+01   1.27252286E+02   1220.77647310    2.95577213E-03   7.55014479E+20   2.56566925E+05   2.03861240E+05   3.25573188E+06   0.28838652      
  82               4.10019301E+01   1.41499093E+02   1258.73720435    3.18756397E-03   8.14224988E+20   2.62740851E+05   1.97570645E+05   3.10895665E+06   0.28710731      
  83               4.85081376E+01   1.57113858E+02   1296.94188946    3.43505098E-03   8.77444819E+20   2.67484954E+05   1.92300787E+05   2.95973236E+06   0.28567964      
  84               5.73885036E+01   1.74199863E+02   1335.76567035    3.69790428E-03   9.44590062E+20   2.70577068E+05   1.88476462E+05   2.80813338E+06   0.28435544      
  85               6.78945948E+01   1.92835228E+02   1374.73871569    3.97743696E-03   1.01599613E+21   2.71881322E+05   1.86572208E+05   2.65447419E+06   0.28284267      
  86               8.03240320E+01   2.13111530E+02   1414.15086560    4.27314125E-03   1.09153343E+21   2.71922913E+05   1.86207090E+05   2.49894438E+06   0.28137811      
  87               9.50289215E+01   2.35157401E+02   1453.67446186    4.58697617E-03   1.17170243E+21   2.70765849E+05   1.87331756E+05   2.34147701E+06   0.27979098      
  88               1.12425830E+02   2.59083384E+02   1493.58914488    4.91860917E-03   1.25641829E+21   2.68941318E+05   1.89371257E+05   2.18218809E+06   0.27827775      
  89               1.33007583E+02   2.85127712E+02   1533.74677848    5.27131420E-03   1.34651627E+21   2.66407787E+05   1.92197994E+05   2.02044235E+06   0.27669946      
  90               1.57357229E+02   3.13498501E+02   1574.49300608    5.64581384E-03   1.44218367E+21   2.62548895E+05   1.96299507E+05   1.85598665E+06   0.27516373      
  91               1.86164557E+02   3.44312483E+02   1615.44898371    6.04355334E-03   1.54377982E+21   2.56611036E+05   2.02399868E+05   1.68917014E+06   0.27357844      
  92               2.20245630E+02   3.77604292E+02   1656.70916673    6.46268871E-03   1.65088372E+21   2.48017530E+05   2.11030182E+05   1.52071475E+06   0.2720184       
  93               2.60565913E+02   4.13290062E+02   1697.71547264    6.90618177E-03   1.76325813E+21   2.36987232E+05   2.21969567E+05   1.35177289E+06   0.27039826      
  94               3.08267614E+02   4.51353023E+02   1738.58761723    7.36491155E-03   1.88037995E+21   2.24740862E+05   2.34048443E+05   1.18300087E+06   0.26882171      
  95               3.64702046E+02   4.91848414E+02   1779.02259347    7.84323452E-03   2.00251442E+21   2.10651630E+05   2.48044357E+05   1.01451071E+06   0.26719935      
  96               4.31467909E+02   5.34374197E+02   1818.82150004    8.33492268E-03   2.12804712E+21   1.95247077E+05   2.63538974E+05   8.48186829E+05   0.26558878      
  97               5.10456573E+02   5.79049897E+02   1857.83718303    8.84218068E-03   2.25753337E+21   1.81733131E+05   2.77194311E+05   6.83620112E+05   0.26415366      
  98               6.03905660E+02   6.26775419E+02   1897.08624432    9.37303020E-03   2.39304420E+21   1.69967193E+05   2.89052497E+05   5.17840306E+05   0.26264078      
  99               7.14462436E+02   6.78035893E+02   1936.45845746    9.93386063E-03   2.53612316E+21   1.58567670E+05   3.00532701E+05   3.49849599E+05   0.26124617      
  100              8.45258798E+02   7.33453610E+02   1976.60515010    1.05283940E-02   2.68768624E+21   1.49432799E+05   3.09726030E+05   1.78489167E+05   0.25971021      
  101              1.00000000E+03   7.94675277E+02   2017.95665751    1.11746066E-02   2.85235586E+21   1.45431637E+05   3.13745449E+05   0.00000000E+00   0.25826168      
