# ATMO pressure-temperature profile
# Effective temperature = 1000.0K
# log(g) = 5.0cm/s^2
# M/H = 0.0
# Optical depth grid in band 17 (1.20-1.33microns)
# All parameters in cgs units
#
# Model Level      Optical Depth    Pressure         Temperature      Density          Number Density   Rad Flux         Conv Flux        Radial Extension Adiabatic Gradient
#                                   [Ba]             [K]              [g/cm^3]         [/cm^3]          [ergs/s/cm^2/sr] [ergs/s/cm^2/sr] [cm]             [K/Ba]          
  1                5.00000000E-07   1.00000000E-05   247.46338444     1.14575101E-09   2.92694722E+14   5.66989785E+07   0.00000000E+00   5.38111549E+06   0.30642998      
  2                6.19412983E-07   1.60990860E-05   285.73425278     1.59743972E-09   4.08098270E+14   5.66989785E+07   0.00000000E+00   5.33602875E+06   0.30297832      
  3                7.67344888E-07   2.39879386E-05   286.77992655     2.37156441E-09   6.05856845E+14   5.66989785E+07   0.00000000E+00   5.29549785E+06   0.30253546      
  4                9.50606773E-07   3.39453349E-05   300.27177635     3.20514632E-09   8.18825622E+14   5.66989785E+07   0.00000000E+00   5.25938101E+06   0.30177193      
  5                1.17763635E-06   4.63995797E-05   299.67044416     4.38993788E-09   1.12149147E+15   5.66989785E+07   0.00000000E+00   5.22617882E+06   0.30155571      
  6                1.45888650E-06   6.19163812E-05   311.81776997     5.62970311E-09   1.43823729E+15   5.66989785E+07   0.00000000E+00   5.19496591E+06   0.30096506      
  7                1.80730647E-06   8.13130225E-05   311.42603403     7.40271755E-09   1.89117200E+15   5.66989785E+07   0.00000000E+00   5.16491968E+06   0.30078816      
  8                2.23893819E-06   1.05451832E-04   322.72155686     9.26415227E-09   2.36674786E+15   5.66989785E+07   0.00000000E+00   5.13577091E+06   0.30030925      
  9                2.77365477E-06   1.35559883E-04   322.57285101     1.19148218E-08   3.04389180E+15   5.66989785E+07   0.00000000E+00   5.10711347E+06   0.30175409      
  10               3.43607555E-06   1.72975547E-04   333.40262094     1.47093718E-08   3.75786818E+15   5.66989785E+07   0.00000000E+00   5.07885070E+06   0.30145155      
  11               4.25669961E-06   2.19585687E-04   333.61739500     1.86611273E-08   4.76739549E+15   5.66989785E+07   0.00000000E+00   5.05071773E+06   0.30135118      
  12               5.27331001E-06   2.77530523E-04   344.35151540     2.28499965E-08   5.83760353E+15   5.66989785E+07   0.00000000E+00   5.02265664E+06   0.30109949      
  13               6.53271338E-06   3.49715007E-04   344.98451235     2.87405909E-08   7.34244175E+15   5.66989785E+07   0.00000000E+00   4.99448879E+06   0.30101003      
  14               8.09289496E-06   4.39484562E-04   355.76158664     3.50235956E-08   8.94767931E+15   5.66989785E+07   0.00000000E+00   4.96619427E+06   0.30080023      
  15               1.00256884E-05   5.51211097E-04   356.67528620     4.38151941E-08   1.11936255E+16   5.66989785E+07   0.00000000E+00   4.93767330E+06   0.30072128      
  16               1.24200832E-05   6.89923826E-04   367.46291102     5.32308086E-08   1.35992035E+16   5.66989781E+07   0.00000000E+00   4.90895070E+06   0.3005453       
  17               1.53863215E-05   8.62084515E-04   368.47267746     6.63320183E-08   1.69461245E+16   5.66989785E+07   0.00000000E+00   4.87997784E+06   0.30048529      
  18               1.90609746E-05   1.07535617E-03   379.40645568     8.03567129E-08   2.05292675E+16   5.66989781E+07   0.00000000E+00   4.85076582E+06   0.3003383       
  19               2.36132303E-05   1.33949848E-03   380.50553836     9.98068460E-08   2.54980567E+16   5.66989786E+07   0.00000000E+00   4.82127087E+06   0.30028115      
  20               2.92526829E-05   1.66627138E-03   391.76104617     1.20586797E-07   3.08070649E+16   5.66989782E+07   0.00000000E+00   4.79148455E+06   0.30016049      
  21               3.62389832E-05   2.07063309E-03   393.06440490     1.49354281E-07   3.81562137E+16   5.66989785E+07   0.00000000E+00   4.76135367E+06   0.30010804      
  22               4.48937934E-05   2.57053904E-03   404.73889924     1.80062744E-07   4.60018288E+16   5.66989787E+07   0.00000000E+00   4.73086992E+06   0.30000558      
  23               5.56155970E-05   3.18855951E-03   406.22968318     2.22536022E-07   5.68523882E+16   5.66989788E+07   0.00000000E+00   4.69999604E+06   0.29995913      
  24               6.88980457E-05   3.95202505E-03   418.41263507     2.67786435E-07   6.84133311E+16   5.66989778E+07   0.00000000E+00   4.66872115E+06   0.2998744       
  25               8.53526881E-05   4.89491447E-03   420.02422100     3.30409310E-07   8.44105272E+16   5.66989785E+07   0.00000000E+00   4.63702242E+06   0.29983336      
  26               1.05737126E-04   6.05754120E-03   432.56120600     3.97033530E-07   1.01431921E+17   5.66989797E+07   0.00000000E+00   4.60492270E+06   0.29975973      
  27               1.30989898E-04   7.49097643E-03   434.34979434     4.88967313E-07   1.24917893E+17   5.66989847E+07   0.00000000E+00   4.57238963E+06   0.29972429      
  28               1.62273687E-04   9.25677386E-03   447.45807621     5.86525122E-07   1.49841856E+17   5.66989936E+07   0.00000000E+00   4.53941663E+06   0.29965919      
  29               2.01028857E-04   1.14349879E-02   449.84445401     7.20700578E-07   1.84119242E+17   5.66989776E+07   0.00000000E+00   4.50591390E+06   0.29969824      
  30               2.49039768E-04   1.41203808E-02   463.79239423     8.63191601E-07   2.20520326E+17   5.66989428E+07   0.00000000E+00   4.47186698E+06   0.2996391       
  31               3.08516931E-04   1.74385705E-02   467.04429781     1.05866911E-06   2.70444807E+17   5.66989788E+07   0.00000000E+00   4.43715554E+06   0.29951247      
  32               3.82198786E-04   2.15295471E-02   481.28746822     1.26833812E-06   3.24008333E+17   5.66989775E+07   0.00000000E+00   4.40185106E+06   0.29942317      
  33               4.73477780E-04   2.65712065E-02   485.14634827     1.55290552E-06   3.96701962E+17   5.66989829E+07   0.00000000E+00   4.36592714E+06   0.29943965      
  34               5.86556569E-04   3.27872776E-02   500.71388154     1.85660480E-06   4.74287377E+17   5.66989705E+07   0.00000000E+00   4.32931845E+06   0.29941874      
  35               7.26641509E-04   4.04622054E-02   505.81055866     2.26812411E-06   5.79412018E+17   5.66989846E+07   0.00000000E+00   4.29191761E+06   0.29938045      
  36               9.00182369E-04   4.99397972E-02   522.97958565     2.70747467E-06   6.91652383E+17   5.66989654E+07   0.00000000E+00   4.25367189E+06   0.29930734      
  37               1.11516929E-03   6.16613679E-02   529.69008223     3.30061330E-06   8.43173896E+17   5.66989980E+07   0.00000000E+00   4.21446103E+06   0.2992573       
  38               1.38150068E-03   7.61626060E-02   548.90898093     3.93406946E-06   1.00500286E+18   5.66989549E+07   0.00000000E+00   4.17421831E+06   0.29916308      
  39               1.71143891E-03   9.41167123E-02   557.68230272     4.78498923E-06   1.22237856E+18   5.66990022E+07   0.00000000E+00   4.13283718E+06   0.29908266      
  40               2.12017497E-03   1.16323709E-01   579.32416418     5.69305052E-06   1.45436173E+18   5.66989310E+07   0.00000000E+00   4.09028936E+06   0.29896827      
  41               2.62652780E-03   1.43781453E-01   590.58405679     6.90271126E-06   1.76338438E+18   5.66990301E+07   0.00000000E+00   4.04648852E+06   0.29888204      
  42               3.25381085E-03   1.77650164E-01   615.05777267     8.18928255E-06   2.09206676E+18   5.66988926E+07   0.00000000E+00   4.00144146E+06   0.29870538      
  43               4.03090537E-03   2.19346254E-01   629.44242833     9.88030028E-06   2.52406217E+18   5.66990376E+07   0.00000000E+00   3.95508745E+06   0.2985293       
  44               4.99359024E-03   2.70530472E-01   657.23060053     1.16705755E-05   2.98142750E+18   5.66988505E+07   0.00000000E+00   3.90742182E+06   0.29832815      
  45               6.18618926E-03   3.33215695E-01   675.18343584     1.39925576E-05   3.57461694E+18   5.66990626E+07   0.00000000E+00   3.85836827E+06   0.29813977      
  46               7.66361189E-03   4.09623562E-01   706.59067634     1.64364891E-05   4.19897092E+18   5.66988538E+07   0.00000000E+00   3.80798510E+06   0.29781191      
  47               9.49388141E-03   5.02310317E-01   728.49256161     1.95496236E-05   4.99427918E+18   5.66991663E+07   0.00000000E+00   3.75627874E+06   0.29742907      
  48               1.17612668E-02   6.14025212E-01   763.93949690     2.27887644E-05   5.82174366E+18   5.66988256E+07   0.00000000E+00   3.70335108E+06   0.29691272      
  49               1.45701627E-02   7.47934180E-01   790.02633071     2.68419939E-05   6.85721323E+18   5.66991620E+07   0.00000000E+00   3.64920813E+06   0.29640274      
  50               1.80498959E-02   9.07771397E-01   829.38180180     3.10324762E-05   7.92771141E+18   5.66987637E+07   0.00000000E+00   3.59382685E+06   0.29575898      
  51               2.23606798E-02   1.09771540E+00   859.49777215     3.62108789E-05   9.25061998E+18   5.66991299E+07   0.00000000E+00   3.53716406E+06   0.295029        
  52               2.77009907E-02   1.32221495E+00   902.53674024     4.15365839E-05   1.06111636E+19   5.66986599E+07   0.00000000E+00   3.47927706E+06   0.29408439      
  53               3.43167066E-02   1.58583644E+00   936.32568675     4.80203810E-05   1.22675347E+19   5.66991728E+07   0.00000000E+00   3.42024974E+06   0.29307348      
  54               4.25124273E-02   1.89434526E+00   983.05971803     5.46359332E-05   1.39574176E+19   5.66987133E+07   0.00000000E+00   3.36001903E+06   0.29192859      
  55               5.26654988E-02   2.25513071E+00   1020.71810300    6.26426684E-05   1.60026439E+19   5.66992808E+07   0.00000000E+00   3.29834867E+06   0.29067073      
  56               6.52433875E-02   2.67792077E+00   1071.45588764    7.08629697E-05   1.81029465E+19   5.66988597E+07   0.00000000E+00   3.23489081E+06   0.28922518      
  57               8.08252026E-02   3.17453570E+00   1113.05079451    8.08631168E-05   2.06581331E+19   5.66993517E+07   0.00000000E+00   3.16928541E+06   0.28766496      
  58               1.00128360E-01   3.76408667E+00   1167.72852748    9.13855924E-05   2.33476710E+19   5.66981761E+07   0.00000000E+00   3.10070161E+06   0.28599675      
  59               1.24041612E-01   4.47295714E+00   1212.47834000    1.04581631E-04   2.67206235E+19   5.66975496E+07   0.00000000E+00   3.02818971E+06   0.28423951      
  60               1.53665970E-01   5.34100955E+00   1269.23321892    1.19281453E-04   3.04794948E+19   5.66958399E+07   0.00000000E+00   2.95046653E+06   0.28244336      
  61               1.90365394E-01   6.40849722E+00   1314.61885756    1.38170925E-04   3.53087369E+19   5.66967604E+07   0.00000000E+00   2.86731400E+06   0.28052572      
  62               2.35829593E-01   7.72084785E+00   1371.89279021    1.59500134E-04   4.07634244E+19   5.66952983E+07   0.00000000E+00   2.77890951E+06   0.2785834       
  63               2.92151824E-01   9.32133726E+00   1417.07131711    1.86414190E-04   4.76444539E+19   5.66968382E+07   0.00000000E+00   2.68609059E+06   0.27653582      
  64               3.61925265E-01   1.12564036E+01   1474.06843809    2.16392315E-04   5.53105336E+19   5.66955437E+07   0.00000000E+00   2.58974254E+06   0.2745142       
  65               4.48362417E-01   1.35572758E+01   1518.53677953    2.52984374E-04   6.46655472E+19   5.66988470E+07   0.00000000E+00   2.49140334E+06   0.2724553       
  66               5.55443005E-01   1.62382083E+01   1575.70987254    2.92026975E-04   7.46427603E+19   5.66999203E+07   0.00000000E+00   2.39276626E+06   0.27054136      
  67               6.88097217E-01   1.93170275E+01   1620.74668790    3.37733365E-04   8.63278641E+19   5.67191424E+07   0.00000000E+00   2.29472978E+06   0.26862028      
  68               8.52432700E-01   2.27573473E+01   1679.72021004    3.84061722E-04   9.81319729E+19   5.67255279E+07   0.00000000E+00   2.19919909E+06   0.26682665      
  69               1.05601576E+00   2.64898657E+01   1727.97953069    4.34570600E-04   1.11036817E+20   5.67526518E+07   0.00000000E+00   2.10783545E+06   0.26497511      
  70               1.30821975E+00   3.03900092E+01   1791.91072287    4.80870205E-04   1.22840140E+20   5.65236982E+07   1.72781383E+05   2.02251540E+06   0.26324837      
  71               1.62065660E+00   3.41596112E+01   1847.60855551    5.24546754E-04   1.33914867E+20   5.13804589E+07   5.31886651E+06   1.94745476E+06   0.26139348      
  72               2.00771148E+00   3.75933757E+01   1894.36728832    5.63574088E-04   1.43738457E+20   4.50850076E+07   1.16163018E+07   1.88429652E+06   0.25955991      
  73               2.48720511E+00   4.05752332E+01   1932.02070466    5.96403858E-04   1.52116067E+20   3.98153466E+07   1.68873054E+07   1.83286353E+06   0.25794027      
  74               3.08121427E+00   4.39593825E+01   1972.37247652    6.32899188E-04   1.61431577E+20   3.48234266E+07   2.18804342E+07   1.77778116E+06   0.25652107      
  75               3.81708825E+00   4.68635053E+01   2004.76506679    6.63972218E-04   1.69315658E+20   2.95107825E+07   2.71939739E+07   1.73298009E+06   0.25522784      
  76               4.72870805E+00   4.92347648E+01   2030.25933109    6.88793049E-04   1.75649207E+20   2.57515547E+07   3.09533197E+07   1.69791621E+06   0.25408276      
  77               5.85804632E+00   5.19955225E+01   2058.40452015    7.17450053E-04   1.82962068E+20   2.33269353E+07   3.33782557E+07   1.65864373E+06   0.25298691      
  78               7.25709989E+00   5.51834392E+01   2089.69983157    7.49982086E-04   1.91271690E+20   2.01263483E+07   3.65766286E+07   1.61518409E+06   0.25217         
  79               8.99028379E+00   5.75753561E+01   2112.00359362    7.74902230E-04   1.97454856E+20   1.65003417E+07   4.01951297E+07   1.58380418E+06   0.25164471      
  80               1.11373970E+01   5.93208628E+01   2128.06730767    7.92353408E-04   2.01905402E+20   1.44654092E+07   4.22247864E+07   1.56152811E+06   0.25103066      
  81               1.37972966E+01   6.14039728E+01   2146.41429385    8.13147529E-04   2.07209068E+20   1.36839785E+07   4.30067188E+07   1.53557627E+06   0.25040842      
  82               1.70924493E+01   6.38813043E+01   2167.90484104    8.37542677E-04   2.13431934E+20   1.30829772E+07   4.36083221E+07   1.50555727E+06   0.24961355      
  83               2.11745701E+01   6.68119471E+01   2192.11813361    8.66259181E-04   2.20757778E+20   1.24629162E+07   4.42289936E+07   1.47115115E+06   0.2487494       
  84               2.62316072E+01   7.02602716E+01   2219.84526188    8.99549753E-04   2.29251910E+20   1.18232892E+07   4.48692186E+07   1.43208758E+06   0.24766831      
  85               3.24963962E+01   7.42961662E+01   2250.52938389    9.38201418E-04   2.39115405E+20   1.11314123E+07   4.55616657E+07   1.38815572E+06   0.2464874       
  86               4.02573794E+01   7.89954451E+01   2284.89995938    9.82471027E-04   2.50415208E+20   1.04200019E+07   4.62736157E+07   1.33920897E+06   0.24505072      
  87               4.98718870E+01   8.44406576E+01   2322.23457358    1.03322229E-03   2.63373066E+20   9.66544482E+06   4.70286664E+07   1.28516357E+06   0.24353965      
  88               6.17825886E+01   9.07211195E+01   2363.22831760    1.09081335E-03   2.78053623E+20   8.89884847E+06   4.77957093E+07   1.22600280E+06   0.24174135      
  89               7.65378750E+01   9.79369109E+01   2406.98391260    1.15602668E-03   2.94712837E+20   8.12903871E+06   4.85659277E+07   1.16174499E+06   0.23989894      
  90               9.48171070E+01   1.06199850E+02   2454.24947595    1.22923399E-03   3.13423125E+20   7.37742467E+06   4.93179144E+07   1.09242879E+06   0.23775828      
  91               1.17461894E+02   1.15634394E+02   2503.94875622    1.31163523E-03   3.34493307E+20   6.63425951E+06   5.00613714E+07   1.01812709E+06   0.23557504      
  92               1.45514845E+02   1.26385247E+02   2556.94808363    1.40356028E-03   3.58014247E+20   5.93809866E+06   5.07577559E+07   9.38891038E+05   0.23304128      
  93               1.80267568E+02   1.38623825E+02   2612.02810019    1.50662352E-03   3.84402208E+20   5.29700846E+06   5.13990194E+07   8.54729163E+05   0.23052594      
  94               2.23320145E+02   1.52548824E+02   2670.29326165    1.62128610E-03   4.13785953E+20   4.71307838E+06   5.19830845E+07   7.65631607E+05   0.22766079      
  95               2.76654794E+02   1.68391402E+02   2730.30576616    1.74969132E-03   4.46719043E+20   4.17245859E+06   5.25238391E+07   6.71568675E+05   0.22485644      
  96               3.42727143E+02   1.86419189E+02   2793.44444281    1.89241428E-03   4.83366353E+20   3.67906127E+06   5.30173752E+07   5.72495194E+05   0.22175884      
  97               4.24579284E+02   2.06942529E+02   2858.02152463    2.05227523E-03   5.24457253E+20   3.22402139E+06   5.34725901E+07   4.68353088E+05   0.21879985      
  98               5.25979842E+02   2.30320073E+02   2925.73535723    2.22995206E-03   5.70193930E+20   2.81380400E+06   5.38830215E+07   3.59073686E+05   0.21560877      
  99               6.51597486E+02   2.56967769E+02   2994.60198038    2.42914784E-03   6.21534708E+20   2.44731862E+06   5.42498599E+07   2.44577686E+05   0.21251965      
  100              8.07215886E+02   2.87358318E+02   3066.59639218    2.65064059E-03   6.78723664E+20   2.13239017E+06   5.45654678E+07   1.24809247E+05   0.20921318      
  101              1.00000000E+03   3.21953001E+02   3139.23700987    2.89859467E-03   7.42838171E+20   1.96754925E+06   5.47307638E+07   0.00000000E+00   0.20594875      
