# ATMO pressure-temperature profile
# Effective temperature = 1300.0K
# log(g) = 3.0cm/s^2
# M/H = 0.0
# Optical depth grid in band 17 (1.20-1.33microns)
# All parameters in cgs units
#
# Model Level      Optical Depth    Pressure         Temperature      Density          Number Density   Rad Flux         Conv Flux        Radial Extension Adiabatic Gradient
#                                   [Ba]             [K]              [g/cm^3]         [/cm^3]          [ergs/s/cm^2/sr] [ergs/s/cm^2/sr] [cm]             [K/Ba]          
  1                1.00000000E-05   1.00000000E-05   481.55565885     5.88757533E-10   1.50410914E+14   1.61937809E+08   0.00000000E+00   6.06493067E+08   0.29747326      
  2                1.20226443E-05   1.18587719E-05   544.54714593     6.17392785E-10   1.57735726E+14   1.61937808E+08   0.00000000E+00   6.03409536E+08   0.29778064      
  3                1.44543977E-05   1.41039731E-05   565.92956794     7.06443410E-10   1.80511521E+14   1.61937808E+08   0.00000000E+00   6.00009415E+08   0.29787451      
  4                1.73780083E-05   1.71550110E-05   585.89006587     8.29823383E-10   2.12080484E+14   1.61937808E+08   0.00000000E+00   5.96023911E+08   0.29794844      
  5                2.08929613E-05   2.13252205E-05   598.01555691     1.01053287E-09   2.58289581E+14   1.61937808E+08   0.00000000E+00   5.91469820E+08   0.29796433      
  6                2.51188643E-05   2.68831397E-05   611.85656458     1.24495070E-09   3.18241054E+14   1.61937807E+08   0.00000000E+00   5.86514463E+08   0.29796358      
  7                3.01995172E-05   3.40519391E-05   620.77944526     1.55423243E-09   3.97310789E+14   1.61937807E+08   0.00000000E+00   5.81360828E+08   0.29794348      
  8                3.63078055E-05   4.30875454E-05   632.41576051     1.93034411E-09   4.93486083E+14   1.61937807E+08   0.00000000E+00   5.76144243E+08   0.29789936      
  9                4.36515832E-05   5.43052802E-05   639.93438611     2.40430830E-09   6.14656461E+14   1.61937807E+08   0.00000000E+00   5.70937181E+08   0.29785971      
  10               5.24807460E-05   6.80837854E-05   650.55169193     2.96502416E-09   7.58032320E+14   1.61937807E+08   0.00000000E+00   5.65776644E+08   0.2977827       
  11               6.30957344E-05   8.49018896E-05   657.38410569     3.65903060E-09   9.35457360E+14   1.61937807E+08   0.00000000E+00   5.60670654E+08   0.29772797      
  12               7.58577575E-05   1.05317003E-04   667.47273059     4.47012563E-09   1.14285414E+15   1.61937806E+08   0.00000000E+00   5.55622761E+08   0.29785443      
  13               9.12010839E-05   1.30020982E-04   673.91808503     5.46593198E-09   1.39743678E+15   1.61937806E+08   0.00000000E+00   5.50625005E+08   0.29779264      
  14               1.09647820E-04   1.59816877E-04   683.73881362     6.62185160E-09   1.69300501E+15   1.61937806E+08   0.00000000E+00   5.45672380E+08   0.29766466      
  15               1.31825674E-04   1.95694376E-04   689.98854141     8.03502759E-09   2.05429262E+15   1.61937806E+08   0.00000000E+00   5.40753810E+08   0.29760061      
  16               1.58489319E-04   2.38807651E-04   699.73160556     9.66847830E-09   2.47196653E+15   1.61937806E+08   0.00000000E+00   5.35862345E+08   0.29746305      
  17               1.90546072E-04   2.90571543E-04   705.93147361     1.16610078E-08   2.98137341E+15   1.61937805E+08   0.00000000E+00   5.30987285E+08   0.29739401      
  18               2.29086765E-04   3.52643350E-04   715.74556016     1.39576996E-08   3.56864112E+15   1.61937805E+08   0.00000000E+00   5.26121869E+08   0.29724371      
  19               2.75422870E-04   4.27068667E-04   722.05734844     1.67558679E-08   4.28402362E+15   1.61937805E+08   0.00000000E+00   5.21255216E+08   0.29716815      
  20               3.31131121E-04   5.16245086E-04   732.08729717     1.99767873E-08   5.10762376E+15   1.61937804E+08   0.00000000E+00   5.16381005E+08   0.29700432      
  21               3.98107171E-04   6.23102302E-04   738.59857059     2.38994265E-08   6.11049978E+15   1.61937804E+08   0.00000000E+00   5.11490571E+08   0.29692028      
  22               4.78630092E-04   7.51079696E-04   748.93439508     2.84099707E-08   7.26387037E+15   1.61937804E+08   0.00000000E+00   5.06579178E+08   0.29673847      
  23               5.75439937E-04   9.04410869E-04   755.76158501     3.39010670E-08   8.66775843E+15   1.61937803E+08   0.00000000E+00   5.01638478E+08   0.29664266      
  24               6.91830971E-04   1.08811142E-03   766.50995190     4.02142592E-08   1.02820902E+16   1.61937803E+08   0.00000000E+00   4.96663236E+08   0.29644133      
  25               8.31763771E-04   1.30839880E-03   773.75240189     4.79034277E-08   1.22479658E+16   1.61937802E+08   0.00000000E+00   4.91644245E+08   0.29633226      
  26               1.00000000E-03   1.57265348E-03   785.05245183     5.67485677E-08   1.45097592E+16   1.61937801E+08   0.00000000E+00   4.86575943E+08   0.29610692      
  27               1.20226443E-03   1.89010511E-03   792.91252173     6.75282704E-08   1.72657926E+16   1.61937800E+08   0.00000000E+00   4.81447832E+08   0.29597826      
  28               1.44543977E-03   2.27163610E-03   804.91550435     7.99475883E-08   2.04415729E+16   1.61937799E+08   0.00000000E+00   4.76255232E+08   0.29572269      
  29               1.73780083E-03   2.73077488E-03   813.50856771     9.50926324E-08   2.43136191E+16   1.61937799E+08   0.00000000E+00   4.70989386E+08   0.29557073      
  30               2.08929613E-03   3.28358883E-03   826.38296241     1.12559546E-07   2.87801633E+16   1.61937797E+08   0.00000000E+00   4.65646019E+08   0.29527997      
  31               2.51188643E-03   3.95025937E-03   835.93914994     1.33866843E-07   3.42276266E+16   1.61937795E+08   0.00000000E+00   4.60214968E+08   0.29509624      
  32               3.01995172E-03   4.75444749E-03   849.84625478     1.58479771E-07   4.05215015E+16   1.61937794E+08   0.00000000E+00   4.54693750E+08   0.29476098      
  33               3.63078055E-03   5.72571557E-03   860.48778496     1.88494297E-07   4.81959894E+16   1.61937792E+08   0.00000000E+00   4.49074180E+08   0.29453899      
  34               4.36515832E-03   6.89897002E-03   875.67828125     2.23174689E-07   5.70644347E+16   1.61937789E+08   0.00000000E+00   4.43353847E+08   0.29415049      
  35               5.24807460E-03   8.31791066E-03   887.71698276     2.65425754E-07   6.78680799E+16   1.61937786E+08   0.00000000E+00   4.37523824E+08   0.29387818      
  36               6.30957344E-03   1.00322671E-02   904.26449957     3.14267507E-07   8.03580605E+16   1.61937783E+08   0.00000000E+00   4.31588007E+08   0.29343606      
  37               7.58577575E-03   1.21034159E-02   917.74203338     3.73577548E-07   9.55241478E+16   1.61937780E+08   0.00000000E+00   4.25543355E+08   0.29327678      
  38               9.12010839E-03   1.46029553E-02   935.99428067     4.41930490E-07   1.13003892E+17   1.61937775E+08   0.00000000E+00   4.19391681E+08   0.29282637      
  39               1.09647820E-02   1.76216575E-02   951.33234254     5.24684187E-07   1.34165339E+17   1.61937770E+08   0.00000000E+00   4.13122737E+08   0.29241218      
  40               1.31825674E-02   2.12616896E-02   971.51404643     6.19906065E-07   1.58516520E+17   1.61937765E+08   0.00000000E+00   4.06740191E+08   0.29180333      
  41               1.58489319E-02   2.56477582E-02   988.99969564     7.34560170E-07   1.87836113E+17   1.61937759E+08   0.00000000E+00   4.00240406E+08   0.29128965      
  42               1.90546072E-02   3.09191086E-02   1011.72896917    8.65628173E-07   2.21354634E+17   1.61937749E+08   0.00000000E+00   3.93629772E+08   0.29047434      
  43               2.29086765E-02   3.72393027E-02   1031.86791267    1.02221689E-06   2.61398609E+17   1.61937741E+08   0.00000000E+00   3.86910945E+08   0.28976318      
  44               2.75422870E-02   4.47789507E-02   1057.33206031    1.19956479E-06   3.06752670E+17   1.61937732E+08   0.00000000E+00   3.80102182E+08   0.2888341       
  45               3.31131121E-02   5.37312724E-02   1080.52580539    1.40847966E-06   3.60178530E+17   1.61937721E+08   0.00000000E+00   3.73214886E+08   0.2881217       
  46               3.98107171E-02   6.42897698E-02   1109.45323319    1.64130050E-06   4.19719078E+17   1.61937704E+08   0.00000000E+00   3.66270509E+08   0.28717387      
  47               4.78630092E-02   7.66597433E-02   1136.21453027    1.91099790E-06   4.88689335E+17   1.61937694E+08   0.00000000E+00   3.59285856E+08   0.28634742      
  48               5.75439937E-02   9.10654448E-02   1168.89546562    2.20662643E-06   5.64291851E+17   1.61937676E+08   0.00000000E+00   3.52270653E+08   0.28523393      
  49               6.91830971E-02   1.07759835E-01   1199.43980787    2.54464918E-06   6.50735199E+17   1.61937665E+08   0.00000000E+00   3.45225468E+08   0.28423367      
  50               8.31763771E-02   1.26996352E-01   1235.90600527    2.91040784E-06   7.44271936E+17   1.61937652E+08   0.00000000E+00   3.38156829E+08   0.28290359      
  51               1.00000000E-01   1.49038509E-01   1270.01236909    3.32382212E-06   8.49995032E+17   1.61937658E+08   0.00000000E+00   3.31069894E+08   0.28162871      
  52               1.20226443E-01   1.74135810E-01   1310.25138931    3.76426808E-06   9.62629799E+17   1.61937650E+08   0.00000000E+00   3.23974636E+08   0.27985438      
  53               1.44543977E-01   2.02513228E-01   1348.37327325    4.25394522E-06   1.08785021E+18   1.61937653E+08   0.00000000E+00   3.16883152E+08   0.27848588      
  54               1.73780083E-01   2.34327390E-01   1393.07563836    4.76436716E-06   1.21835598E+18   1.61937642E+08   0.00000000E+00   3.09816341E+08   0.27716301      
  55               2.08929613E-01   2.69668950E-01   1436.19109184    5.31858549E-06   1.36001768E+18   1.61937653E+08   0.00000000E+00   3.02795506E+08   0.27567373      
  56               2.51188643E-01   3.07213691E-01   1488.59477641    5.84855537E-06   1.49482349E+18   1.61075151E+08   8.85344775E+05   2.96063200E+08   0.27346677      
  57               3.01995172E-01   3.46214420E-01   1537.76074843    6.38063065E-06   1.63073060E+18   1.57675050E+08   4.30903257E+06   2.89678813E+08   0.27131357      
  58               3.63078055E-01   3.86247522E-01   1584.00097401    6.91285210E-06   1.76618463E+18   1.52473381E+08   9.54461229E+06   2.83650812E+08   0.26927097      
  59               4.36515832E-01   4.24084033E-01   1624.12054942    7.40672284E-06   1.89129598E+18   1.45857123E+08   1.61796304E+07   2.78362875E+08   0.26754471      
  60               5.24807460E-01   4.57384685E-01   1657.30652649    7.83786382E-06   1.99896236E+18   1.39046218E+08   2.29726521E+07   2.73991866E+08   0.26605087      
  61               6.30957344E-01   4.85914500E-01   1684.02711298    8.19449749E-06   2.08995348E+18   1.33382233E+08   2.86189444E+07   2.70431955E+08   0.26461028      
  62               7.58577575E-01   5.18312089E-01   1713.08497191    8.59204720E-06   2.19148384E+18   1.27863041E+08   3.41231938E+07   2.66570923E+08   0.26319109      
  63               9.12010839E-01   5.45678056E-01   1736.25236857    8.93334914E-06   2.27640472E+18   1.23164257E+08   3.87619276E+07   2.63446855E+08   0.26207538      
  64               1.09647820E+00   5.66583793E-01   1753.55004527    9.18393217E-06   2.34030156E+18   1.19550065E+08   4.23312622E+07   2.61138811E+08   0.26117792      
  65               1.31825674E+00   5.90584613E-01   1772.50261900    9.47039543E-06   2.41335429E+18   1.15783222E+08   4.61088250E+07   2.58565289E+08   0.26013842      
  66               1.58489319E+00   6.18006128E-01   1793.64709922    9.79301040E-06   2.49563818E+18   1.11674913E+08   5.02283026E+07   2.55717882E+08   0.25895338      
  67               1.90546072E+00   6.49173482E-01   1816.47305734    1.01572685E-05   2.58855651E+18   1.07099621E+08   5.48153217E+07   2.52592856E+08   0.2576374       
  68               2.29086765E+00   6.84391421E-01   1841.44366940    1.05626273E-05   2.69198080E+18   1.01958439E+08   5.99691558E+07   2.49192770E+08   0.25613995      
  69               2.75422870E+00   7.23903867E-01   1867.90604661    1.10135710E-05   2.80706008E+18   9.61640321E+07   6.57715870E+07   2.45529370E+08   0.25443322      
  70               3.31131121E+00   7.67669090E-01   1896.06299216    1.15052212E-05   2.93256152E+18   8.99413179E+07   7.19895768E+07   2.41641441E+08   0.25249724      
  71               3.98107171E+00   8.16070682E-01   1925.31990366    1.20437747E-05   3.07008723E+18   8.39911199E+07   7.79368458E+07   2.37529645E+08   0.25039774      
  72               4.78630092E+00   8.70410218E-01   1956.67374520    1.26385782E-05   3.22204352E+18   7.84171540E+07   8.35184267E+07   2.33125247E+08   0.24806074      
  73               5.75439937E+00   9.31252747E-01   1989.45166606    1.32975516E-05   3.39047084E+18   7.28657617E+07   8.90774057E+07   2.28432000E+08   0.24538834      
  74               6.91830971E+00   9.99220599E-01   2024.10616627    1.40215855E-05   3.57564118E+18   6.72981171E+07   9.46518702E+07   2.23454392E+08   0.24241189      
  75               8.31763771E+00   1.07500229E+00   2059.93180257    1.48198129E-05   3.77991808E+18   6.17387102E+07   1.00215294E+08   2.18197293E+08   0.23911031      
  76               1.00000000E+01   1.15936282E+00   2097.37879354    1.56937652E-05   4.00376274E+18   5.62774929E+07   1.05677313E+08   2.12665619E+08   0.23559235      
  77               1.20226443E+01   1.25315046E+00   2135.74268235    1.66539678E-05   4.24991388E+18   5.09654946E+07   1.10988659E+08   2.06864313E+08   0.23176601      
  78               1.44543977E+01   1.35731029E+00   2175.45714845    1.77029588E-05   4.51912597E+18   4.58915724E+07   1.16060060E+08   2.00798045E+08   0.22778956      
  79               1.73780083E+01   1.47289129E+00   2215.84422010    1.88528413E-05   4.81456783E+18   4.10743091E+07   1.20872774E+08   1.94471324E+08   0.2235249       
  80               2.08929613E+01   1.60106171E+00   2257.30597671    2.01075589E-05   5.13740115E+18   3.65642798E+07   1.25377511E+08   1.87888325E+08   0.2190211       
  81               2.51188643E+01   1.74311916E+00   2299.15622482    2.14814808E-05   5.49141713E+18   3.23102443E+07   1.29626722E+08   1.81053037E+08   0.21417905      
  82               3.01995172E+01   1.90031570E+00   2341.72202992    2.29809027E-05   5.87781962E+18   2.83898207E+07   1.33541977E+08   1.73977737E+08   0.20932374      
  83               3.63078055E+01   2.07424315E+00   2384.43315753    2.46174235E-05   6.30086756E+18   2.48985903E+07   1.37027792E+08   1.66665186E+08   0.20446989      
  84               4.36515832E+01   2.26685183E+00   2427.74348639    2.64019810E-05   6.76310570E+18   2.18264738E+07   1.40094565E+08   1.59110047E+08   0.19964374      
  85               5.24807460E+01   2.48004687E+00   2471.05739064    2.83531543E-05   7.26947247E+18   1.90251565E+07   1.42891410E+08   1.51317763E+08   0.19481567      
  86               6.30957344E+01   2.71592925E+00   2514.77929478    3.04792339E-05   7.82247919E+18   1.65208718E+07   1.45390953E+08   1.43293597E+08   0.19018448      
  87               7.58577575E+01   2.97680661E+00   2558.39347046    3.28010549E-05   8.42770109E+18   1.43156475E+07   1.47590277E+08   1.35042762E+08   0.18566012      
  88               9.12010839E+01   3.26520256E+00   2602.28862929    3.53288196E-05   9.08825500E+18   1.24029821E+07   1.49497098E+08   1.26570711E+08   0.18120486      
  89               1.09647820E+02   3.58387029E+00   2645.92035637    3.80871922E-05   9.81073071E+18   1.07429616E+07   1.51152399E+08   1.17883266E+08   0.17701819      
  90               1.31825674E+02   3.93580644E+00   2689.79721162    4.10862305E-05   1.05983933E+19   9.31490355E+06   1.52577019E+08   1.08986448E+08   0.17302224      
  91               1.58489319E+02   4.32421657E+00   2733.32366316    4.43546051E-05   1.14588811E+19   8.06844602E+06   1.53823133E+08   9.98877019E+07   0.1691607       
  92               1.90546072E+02   4.75251730E+00   2776.99612753    4.79030063E-05   1.23957918E+19   6.99321503E+06   1.54901434E+08   9.05957522E+07   0.16549387      
  93               2.29086765E+02   5.22433388E+00   2820.23249194    5.17629220E-05   1.34175077E+19   6.06208057E+06   1.55838789E+08   8.11204926E+07   0.16221787      
  94               2.75422870E+02   5.74348700E+00   2863.65496452    5.59420569E-05   1.45271624E+19   5.26062401E+06   1.56648442E+08   7.14727478E+07   0.15918666      
  95               3.31131121E+02   6.31401999E+00   2906.59459025    6.04766105E-05   1.57342966E+19   4.56155978E+06   1.57358603E+08   6.16637061E+07   0.15639383      
  96               3.98107171E+02   6.94022876E+00   2949.70260340    6.53730888E-05   1.70420327E+19   3.95999005E+06   1.57974335E+08   5.17042674E+07   0.15378453      
  97               4.78630092E+02   7.62672721E+00   2992.27720843    7.06733711E-05   1.84612978E+19   3.43966790E+06   1.58512853E+08   4.16042804E+07   0.151452        
  98               5.75439937E+02   8.37846119E+00   3035.06126713    7.63816367E-05   1.99950567E+19   2.99244462E+06   1.58983353E+08   3.13725139E+07   0.14924217      
  99               6.91830971E+02   9.20038617E+00   3077.24448847    8.25458895E-05   2.16555837E+19   2.60055266E+06   1.59402243E+08   2.10211298E+07   0.14721471      
  100              8.31763771E+02   1.00977619E+01   3119.62511252    8.91648590E-05   2.34449095E+19   2.26168135E+06   1.59769022E+08   1.05609698E+07   0.14533302      
  101              1.00000000E+03   1.10763389E+01   3161.37399035    9.62952575E-05   2.53773458E+19   2.09196730E+06   1.59959978E+08   0.00000000E+00   0.14370521      
