# ATMO pressure-temperature profile
# Effective temperature = 200.0K
# log(g) = 3.0cm/s^2
# M/H = 0.0
# Optical depth grid in band 17 (1.20-1.33microns)
# All parameters in cgs units
#
# Model Level      Optical Depth    Pressure         Temperature      Density          Number Density   Rad Flux         Conv Flux        Radial Extension Adiabatic Gradient
#                                   [Ba]             [K]              [g/cm^3]         [/cm^3]          [ergs/s/cm^2/sr] [ergs/s/cm^2/sr] [cm]             [K/Ba]          
  1                1.00000000E-04   1.00000000E-05   30.17989589      9.33876829E-09   2.39998265E+15   9.06339239E+04   0.00000000E+00   1.41860649E+08   0.34612403      
  2                1.17489755E-04   9.80885937E-05   33.51503391      8.24871279E-08   2.11984782E+16   9.06339240E+04   0.00000000E+00   1.38686832E+08   0.34616436      
  3                1.38038426E-04   2.01436348E-04   40.79195832      1.39178010E-07   3.57675443E+16   9.06339240E+04   0.00000000E+00   1.37722287E+08   0.31479647      
  4                1.62181010E-04   3.22696299E-04   39.19254887      2.32058677E-07   5.96370723E+16   9.06339240E+04   0.00000000E+00   1.37047552E+08   0.31481472      
  5                1.90546072E-04   4.64938977E-04   45.48286440      2.88108111E-07   7.40412918E+16   9.06339239E+04   0.00000000E+00   1.36497437E+08   0.31483269      
  6                2.23872114E-04   6.31765276E-04   45.41463953      3.92073254E-07   1.00759434E+17   9.06338527E+04   0.00000000E+00   1.36001070E+08   0.31484778      
  7                2.63026799E-04   8.27343202E-04   47.41367755      4.91800989E-07   1.26388599E+17   9.06338614E+04   0.00000000E+00   1.35555679E+08   0.31486097      
  8                3.09029543E-04   1.05658607E-03   48.91200141      6.08831037E-07   1.56464309E+17   9.06338587E+04   0.00000000E+00   1.35136738E+08   0.31487291      
  9                3.63078055E-04   1.32516601E-03   50.59304225      7.38221736E-07   1.89716599E+17   9.06338661E+04   0.00000000E+00   1.34736119E+08   0.31488401      
  10               4.26579519E-04   1.63968268E-03   51.97423175      8.89158263E-07   2.28505981E+17   9.06338898E+04   0.00000000E+00   1.34347914E+08   0.31489454      
  11               5.01187234E-04   2.00790964E-03   53.61445650      1.05552760E-06   2.71261461E+17   9.06339330E+04   0.00000000E+00   1.33967820E+08   0.31490468      
  12               5.88843655E-04   2.43875965E-03   54.97048395      1.25039370E-06   3.21340363E+17   9.06340032E+04   0.00000000E+00   1.33592788E+08   0.31491457      
  13               6.91830971E-04   2.94242854E-03   56.66486718      1.46352244E-06   3.76112605E+17   9.06341056E+04   0.00000000E+00   1.33220464E+08   0.31492429      
  14               8.12830516E-04   3.53093541E-03   57.98258674      1.71632499E-06   4.41080672E+17   9.06342617E+04   0.00000000E+00   1.32849140E+08   0.31493393      
  15               9.54992586E-04   4.21817013E-03   59.79751008      1.98814625E-06   5.10936385E+17   9.06344779E+04   0.00000000E+00   1.32477108E+08   0.31494356      
  16               1.12201845E-03   5.01987507E-03   61.21768284      2.31112459E-06   5.93939025E+17   9.06347763E+04   0.00000000E+00   1.32103101E+08   0.31495323      
  17               1.31825674E-03   5.95384014E-03   63.22267957      2.65418755E-06   6.82103237E+17   9.06351765E+04   0.00000000E+00   1.31726004E+08   0.31496298      
  18               1.54881662E-03   7.04102173E-03   64.82699528      3.06116775E-06   7.86693626E+17   9.06356894E+04   0.00000000E+00   1.31344594E+08   0.31497285      
  19               1.81970086E-03   8.30547525E-03   67.13272942      3.48688417E-06   8.96099064E+17   9.06362827E+04   0.00000000E+00   1.30957567E+08   0.31498289      
  20               2.13796209E-03   9.77409610E-03   69.01757559      3.99139071E-06   1.02575288E+18   9.06369339E+04   0.00000000E+00   1.30563901E+08   0.31499313      
  21               2.51188643E-03   1.14766566E-02   71.82265908      4.50361487E-06   1.15739006E+18   9.06374829E+04   0.00000000E+00   1.30162332E+08   0.31500359      
  22               2.95120923E-03   1.34400753E-02   74.55378469      5.08088476E-06   1.30574342E+18   9.06371866E+04   0.00000000E+00   1.29751880E+08   0.31501424      
  23               3.46736850E-03   1.56957358E-02   77.03404844      5.74256994E-06   1.47579079E+18   9.06364368E+04   0.00000000E+00   1.29334289E+08   0.31502514      
  24               4.07380278E-03   1.82815765E-02   80.19831839      6.42474239E-06   1.65110321E+18   9.06348288E+04   0.00000000E+00   1.28908572E+08   0.31503635      
  25               4.78630092E-03   2.12442439E-02   83.26086086      7.19130518E-06   1.84810321E+18   9.06317490E+04   0.00000000E+00   1.28472708E+08   0.31504793      
  26               5.62341325E-03   2.46418439E-02   87.26346246      7.95880929E-06   2.04534513E+18   9.06259556E+04   8.04703616E+00   1.28023607E+08   0.31505998      
  27               6.60693448E-03   2.85477825E-02   91.38457614      8.80454293E-06   2.26269136E+18   9.06148978E+04   1.91045039E+01   1.27557003E+08   0.31507255      
  28               7.76247117E-03   3.30508558E-02   95.72099492      9.73156847E-06   2.50092890E+18   9.05972082E+04   3.67921986E+01   1.27070524E+08   0.31508573      
  29               9.12010839E-03   3.82574996E-02   100.21535064     1.07594394E-05   2.76508299E+18   9.05705578E+04   6.34401623E+01   1.26561695E+08   0.31509953      
  30               1.07151931E-02   4.42909738E-02   104.97034716     1.18920295E-05   3.05614838E+18   9.05279956E+04   1.06008067E+02   1.26028306E+08   0.31756813      
  31               1.25892541E-02   5.12696092E-02   109.97930977     1.31388317E-05   3.37656300E+18   9.04509346E+04   1.83100285E+02   1.25470010E+08   0.32005991      
  32               1.47910839E-02   5.92076731E-02   115.18987872     1.44867258E-05   3.72296979E+18   9.03398195E+04   2.94900547E+02   1.24894634E+08   0.32196248      
  33               1.73780083E-02   6.72255784E-02   120.00458401     1.57897604E-05   4.05753759E+18   9.01724402E+04   4.66505847E+02   1.24364487E+08   0.32342699      
  34               2.04173794E-02   7.43638569E-02   124.00193174     1.69028393E-05   4.34369472E+18   8.99755483E+04   6.74703360E+02   1.23927543E+08   0.32425303      
  35               2.39883292E-02   8.06879021E-02   127.32177617     1.78658738E-05   4.59019964E+18   8.97772495E+04   8.91263333E+02   1.23563614E+08   0.32492154      
  36               2.81838293E-02   8.57705831E-02   129.88709026     1.86146973E-05   4.78297614E+18   8.95775985E+04   1.09640525E+03   1.23284904E+08   0.32542569      
  37               3.31131121E-02   8.97703626E-02   131.81897523     1.92085160E-05   4.93265667E+18   8.93833404E+04   1.26062928E+03   1.23073363E+08   0.3258038       
  38               3.89045145E-02   9.27645245E-02   133.24703128     1.96364577E-05   5.04255009E+18   8.92093434E+04   1.40810680E+03   1.22919194E+08   0.32601105      
  39               4.57088190E-02   9.62706324E-02   134.85775727     2.01352329E-05   5.17063321E+18   8.90557509E+04   1.56178516E+03   1.22742868E+08   0.3259873       
  40               5.37031796E-02   1.00374421E-01   136.71612841     2.07081864E-05   5.31776500E+18   8.89154863E+04   1.70228909E+03   1.22541896E+08   0.32575013      
  41               6.30957344E-02   1.05175516E-01   138.80067036     2.13728212E-05   5.48844007E+18   8.87861886E+04   1.83197835E+03   1.22313684E+08   0.32539133      
  42               7.41310241E-02   1.10789628E-01   141.17938768     2.21343399E-05   5.68399452E+18   8.86666590E+04   1.95200348E+03   1.22055567E+08   0.32525276      
  43               8.70963590E-02   1.17351101E-01   143.83504326     2.30123634E-05   5.90946682E+18   8.85555075E+04   2.06374743E+03   1.21764839E+08   0.32512704      
  44               1.02329299E-01   1.25015897E-01   146.83497411     2.40145524E-05   6.16682424E+18   8.84510152E+04   2.16890468E+03   1.21438790E+08   0.32499059      
  45               1.20226443E-01   1.33965126E-01   150.15964057     2.51638626E-05   6.46196165E+18   8.83506484E+04   2.26999182E+03   1.21074741E+08   0.32488309      
  46               1.41253754E-01   1.44409211E-01   153.87812710     2.64701724E-05   6.79741592E+18   8.82504331E+04   2.37097582E+03   1.20670069E+08   0.32462988      
  47               1.65958691E-01   1.56592838E-01   157.96349977     2.79610796E-05   7.18027351E+18   8.81445936E+04   2.47763065E+03   1.20222230E+08   0.32416199      
  48               1.94984460E-01   1.70800503E-01   162.48246831     2.96497762E-05   7.61392294E+18   8.80200585E+04   2.60303072E+03   1.19728790E+08   0.32346695      
  49               2.29086765E-01   1.87363351E-01   167.40137487     3.15692625E-05   8.10683744E+18   8.78541565E+04   2.76986207E+03   1.19187422E+08   0.322524        
  50               2.69153480E-01   2.06667045E-01   172.78490278     3.37368348E-05   8.66345804E+18   8.75882289E+04   3.03679011E+03   1.18595920E+08   0.32129784      
  51               3.16227766E-01   2.29156864E-01   178.58954252     3.61922837E-05   9.29400035E+18   8.71344500E+04   3.49164794E+03   1.17952306E+08   0.3198276       
  52               3.71535229E-01   2.55350170E-01   184.87867265     3.89573311E-05   1.00040344E+19   8.62987226E+04   4.32858874E+03   1.17254736E+08   0.31827026      
  53               4.36515832E-01   2.85849074E-01   191.60697332     4.20791917E-05   1.08056605E+19   8.46480590E+04   5.98085416E+03   1.16501456E+08   0.31673223      
  54               5.12861384E-01   3.21311137E-01   198.83531192     4.55806076E-05   1.17046412E+19   8.05442650E+04   1.00860405E+04   1.15691724E+08   0.31513295      
  55               6.02559586E-01   3.62483692E-01   206.49899856     4.95147875E-05   1.27144144E+19   7.22699263E+04   1.83606067E+04   1.14825054E+08   0.3136066       
  56               7.07945784E-01   4.10171794E-01   214.65873495     5.38978347E-05   1.38402223E+19   5.96512350E+04   3.09786647E+04   1.13901919E+08   0.31208707      
  57               8.31763771E-01   4.64766153E-01   223.15507726     5.88289973E-05   1.50852864E+19   4.45476231E+04   4.60825340E+04   1.12932078E+08   0.31071745      
  58               9.77237221E-01   5.26365551E-01   231.95637418     6.40618144E-05   1.64364108E+19   3.28468554E+04   5.77820777E+04   1.11928662E+08   0.30938805      
  59               1.14815362E+00   5.95011519E-01   240.88048427     7.00362028E-05   1.78916172E+19   2.59987488E+04   6.46185746E+04   1.10903138E+08   0.30816165      
  60               1.34896288E+00   6.68972779E-01   249.74265081     7.59476889E-05   1.94017797E+19   2.31178381E+04   6.74905779E+04   1.09889026E+08   0.30696329      
  61               1.58489319E+00   7.54840547E-01   259.13159817     8.25911818E-05   2.10989424E+19   2.20039226E+04   6.86058000E+04   1.08804834E+08   0.30587235      
  62               1.86208714E+00   8.54499299E-01   269.15857429     9.00123966E-05   2.29947838E+19   2.11962098E+04   6.94148546E+04   1.07648995E+08   0.30487225      
  63               2.18776162E+00   9.70118453E-01   279.73217364     9.83288996E-05   2.51193377E+19   2.06016111E+04   7.00104652E+04   1.06420034E+08   0.30399129      
  64               2.57039578E+00   1.10415483E+00   290.97001737     1.07592146E-04   2.74857490E+19   2.02692204E+04   7.03430423E+04   1.05116892E+08   0.30321317      
  65               3.01995172E+00   1.25944966E+00   302.77058945     1.17941314E-04   3.01295724E+19   2.02139637E+04   7.03973798E+04   1.03738307E+08   0.30253065      
  66               3.54813389E+00   1.43923258E+00   315.26083588     1.29437404E-04   3.30663911E+19   2.03657933E+04   7.02432446E+04   1.02283231E+08   0.30195764      
  67               4.16869383E+00   1.64714388E+00   328.32749377     1.42240451E-04   3.63370884E+19   2.05979159E+04   7.00072789E+04   1.00750956E+08   0.30146336      
  68               4.89778819E+00   1.88733789E+00   342.10392512     1.56419335E-04   3.99592603E+19   2.07770905E+04   6.98232618E+04   9.91406615E+07   0.30108228      
  69               5.75439937E+00   2.16473161E+00   356.48199151     1.72173101E-04   4.39837549E+19   2.07706214E+04   6.98257327E+04   9.74503422E+07   0.30076924      
  70               6.76082975E+00   2.48495072E+00   371.61268429     1.89594652E-04   4.84343071E+19   2.04426428E+04   7.01528696E+04   9.56779838E+07   0.300514        
  71               7.94328235E+00   2.85421217E+00   387.36832011     2.08910911E-04   5.33688682E+19   1.96857679E+04   7.09134793E+04   9.38225715E+07   0.30027841      
  72               9.33254301E+00   3.27926028E+00   403.88861468     2.30204202E-04   5.88085021E+19   1.85138285E+04   7.20927304E+04   9.18843611E+07   0.30008901      
  73               1.09647820E+01   3.76739640E+00   421.01876483     2.53710730E-04   6.48135345E+19   1.71433799E+04   7.34726325E+04   8.98645307E+07   0.29993132      
  74               1.28824955E+01   4.32727311E+00   438.91958222     2.79529813E-04   7.14093679E+19   1.58478707E+04   7.47779483E+04   8.77621619E+07   0.29979951      
  75               1.51356125E+01   4.96840372E+00   457.43575841     3.07956073E-04   7.86706261E+19   1.46818191E+04   7.59520860E+04   8.55769703E+07   0.29966267      
  76               1.77827941E+01   5.70078666E+00   476.71716794     3.39059598E-04   8.66163415E+19   1.33156760E+04   7.73247811E+04   8.33104697E+07   0.29953598      
  77               2.08929613E+01   6.53469834E+00   496.56665979     3.73128585E-04   9.53177598E+19   1.13755544E+04   7.92715726E+04   8.09659503E+07   0.29941865      
  78               2.45470892E+01   7.48140975E+00   517.13844318     4.10191963E-04   1.04785806E+20   9.96454283E+03   8.06868913E+04   7.85460650E+07   0.29931567      
  79               2.88403150E+01   8.55645560E+00   538.29210164     4.50697356E-04   1.15133507E+20   9.42025940E+03   8.12330167E+04   7.60457720E+07   0.29916846      
  80               3.38844156E+01   9.77732614E+00   560.24916398     4.94848851E-04   1.26405137E+20   8.92076369E+03   8.17352123E+04   7.34605426E+07   0.29898166      
  81               3.98107171E+01   1.11612652E+01   582.80916747     5.43026106E-04   1.38711635E+20   8.43713557E+03   8.22215544E+04   7.07907942E+07   0.29873537      
  82               4.67735141E+01   1.27245783E+01   606.12687916     5.95269276E-04   1.52056746E+20   7.97162792E+03   8.26902326E+04   6.80411349E+07   0.29848532      
  83               5.49540874E+01   1.44836319E+01   629.94730027     6.51938766E-04   1.66532537E+20   7.54385896E+03   8.31201702E+04   6.52174322E+07   0.29819424      
  84               6.45654229E+01   1.64599986E+01   654.48189410     7.13124901E-04   1.82162089E+20   7.17989246E+03   8.34845740E+04   6.23188784E+07   0.29787922      
  85               7.58577575E+01   1.86824338E+01   679.57372136     7.79525218E-04   1.99123591E+20   6.86298984E+03   8.38018125E+04   5.93380891E+07   0.29747396      
  86               8.91250938E+01   2.11793362E+01   705.44940428     8.51293960E-04   2.17456460E+20   6.57142479E+03   8.40931554E+04   5.62729741E+07   0.2970263       
  87               1.04712855E+02   2.39788969E+01   731.86838682     9.29028391E-04   2.37313285E+20   6.28715919E+03   8.43760621E+04   5.31249669E+07   0.29645602      
  88               1.23026877E+02   2.71096670E+01   759.01347748     1.01276123E-03   2.58702446E+20   6.01179423E+03   8.46474499E+04   4.98973405E+07   0.2959061       
  89               1.44543977E+02   3.06039346E+01   786.65387619     1.10312683E-03   2.81786004E+20   5.76040606E+03   8.48923113E+04   4.65914378E+07   0.29519818      
  90               1.69824365E+02   3.45178115E+01   815.11976445     1.20075232E-03   3.06723936E+20   5.56865687E+03   8.50790346E+04   4.31907405E+07   0.29447487      
  91               1.99526231E+02   3.89128826E+01   844.31048822     1.30683865E-03   3.33823617E+20   5.45058203E+03   8.51956922E+04   3.96821847E+07   0.29366873      
  92               2.34422882E+02   4.38443367E+01   874.42966605     1.42174497E-03   3.63173759E+20   5.40825206E+03   8.52388986E+04   3.60643052E+07   0.29278047      
  93               2.75422870E+02   4.93576088E+01   905.17993011     1.54614803E-03   3.94952653E+20   5.45900060E+03   8.51893081E+04   3.23457584E+07   0.29183462      
  94               3.23593657E+02   5.54847684E+01   936.62982541     1.67972768E-03   4.29073442E+20   5.59730246E+03   8.50509935E+04   2.85437347E+07   0.29083997      
  95               3.80189396E+02   6.22527615E+01   968.39582339     1.82279425E-03   4.65619922E+20   5.77433805E+03   8.48729963E+04   2.46758648E+07   0.2898144       
  96               4.46683592E+02   6.97305226E+01   1000.76434224    1.97570466E-03   5.04680979E+20   5.95878480E+03   8.46879620E+04   2.07354497E+07   0.28873843      
  97               5.24807460E+02   7.79952391E+01   1033.53013495    2.13981039E-03   5.46601462E+20   6.12524690E+03   8.45225810E+04   1.67158802E+07   0.28761551      
  98               6.16595002E+02   8.71096725E+01   1066.91050044    2.31509641E-03   5.91376729E+20   6.23685110E+03   8.44190821E+04   1.26208436E+07   0.28644314      
  99               7.24435960E+02   9.71224084E+01   1100.54358427    2.50233233E-03   6.39201870E+20   6.28262827E+03   8.44159556E+04   8.46081690E+06   0.28523992      
  100              8.51138038E+02   1.08067817E+02   1134.57969824    2.70087341E-03   6.89901689E+20   6.31720989E+03   8.45093003E+04   4.25056192E+06   0.28400913      
  101              1.00000000E+03   1.19986247E+02   1168.64527133    2.91099508E-03   7.43660311E+20   6.33346582E+03   8.46019245E+04   0.00000000E+00   0.28277031      
