# ATMO pressure-temperature profile
# Effective temperature = 300.0K
# log(g) = 5.5cm/s^2
# M/H = 0.0
# Optical depth grid in band 17 (1.20-1.33microns)
# All parameters in cgs units
#
# Model Level      Optical Depth    Pressure         Temperature      Density          Number Density   Rad Flux         Conv Flux        Radial Extension Adiabatic Gradient
#                                   [Ba]             [K]              [g/cm^3]         [/cm^3]          [ergs/s/cm^2/sr] [ergs/s/cm^2/sr] [cm]             [K/Ba]          
  1                8.00000000E-07   1.00000000E-05   47.64962654      5.91490677E-09   1.52007963E+15   4.58984239E+05   0.00000000E+00   8.84112564E+05   0.34612403      
  2                9.86413681E-07   3.06892737E-04   52.43060920      1.64971571E-07   4.23962599E+16   4.58984239E+05   0.00000000E+00   8.54057264E+05   0.31479445      
  3                1.21626494E-06   6.71231285E-04   58.43987060      3.23720610E-07   8.31933829E+16   4.58984222E+05   0.00000000E+00   8.49071688E+05   0.31483375      
  4                1.49967547E-06   1.11831917E-03   57.86089519      5.44738442E-07   1.39993045E+17   4.58984208E+05   0.00000000E+00   8.45704916E+05   0.31485855      
  5                1.84912550E-06   1.66646349E-03   63.53768161      7.39216829E-07   1.89972300E+17   4.58984197E+05   0.00000000E+00   8.42973329E+05   0.31487795      
  6                2.28000336E-06   2.33806580E-03   63.94875761      1.03046210E-06   2.64819803E+17   4.58984170E+05   0.00000000E+00   8.40539947E+05   0.31489469      
  7                2.81128314E-06   3.15962544E-03   67.15722963      1.32602049E-06   3.40775740E+17   4.58984156E+05   0.00000000E+00   8.38317416E+05   0.31490994      
  8                3.46636019E-06   4.16357124E-03   68.21236998      1.72032407E-06   4.42108333E+17   4.58984138E+05   0.00000000E+00   8.36215429E+05   0.31492434      
  9                4.27408139E-06   5.38835357E-03   70.83355221      2.14399846E-06   5.50988968E+17   4.58984130E+05   0.00000000E+00   8.34198728E+05   0.31493828      
  10               5.27001545E-06   6.87671556E-03   72.67804768      2.66676787E-06   6.85336162E+17   4.58984107E+05   0.00000000E+00   8.32230371E+05   0.31495201      
  11               6.49801917E-06   8.67727336E-03   74.96736097      3.26225917E-06   8.38372252E+17   4.58984083E+05   0.00000000E+00   8.30299936E+05   0.3149657       
  12               8.01216876E-06   1.08447841E-02   77.34021121      3.95205482E-06   1.01564374E+18   4.58984029E+05   0.00000000E+00   8.28391004E+05   0.3149795       
  13               9.87914110E-06   1.34473721E-02   79.31140774      4.77869343E-06   1.22808267E+18   4.58983968E+05   0.00000000E+00   8.26497181E+05   0.31499355      
  14               1.21811499E-05   1.65674145E-02   82.08678503      5.68838385E-06   1.46186521E+18   4.58983862E+05   0.00000000E+00   8.24604787E+05   0.31500795      
  15               1.50195662E-05   2.03118691E-02   83.84024564      6.82817670E-06   1.75478206E+18   4.58983738E+05   0.00000000E+00   8.22704839E+05   0.31502285      
  16               1.85193820E-05   2.48113797E-02   86.96824586      8.04076946E-06   2.06640786E+18   4.58983558E+05   0.00000000E+00   8.20784561E+05   0.31503839      
  17               2.28347147E-05   3.02299201E-02   88.68424609      9.60722420E-06   2.46897311E+18   4.58983353E+05   0.00000000E+00   8.18835010E+05   0.31505474      
  18               2.81555937E-05   3.67653900E-02   92.28783245      1.12279931E-05   2.88549662E+18   4.58983034E+05   0.00000000E+00   8.16845131E+05   0.31507208      
  19               3.47163285E-05   4.46683118E-02   94.08372057      1.33811198E-05   3.43883149E+18   4.58982621E+05   0.00000000E+00   8.14806257E+05   0.31509063      
  20               4.28058268E-05   5.42515276E-02   98.19200585      1.55719588E-05   4.00185805E+18   4.58981982E+05   0.00000000E+00   8.12706865E+05   0.31511066      
  21               5.27803164E-05   6.58959820E-02   100.14292286     1.85458205E-05   4.76611493E+18   4.58981092E+05   0.00000000E+00   8.10540037E+05   0.3151325       
  22               6.50790328E-05   8.00699169E-02   104.73449070     2.15470197E-05   5.53739485E+18   4.58979776E+05   0.00000000E+00   8.08297840E+05   0.31515653      
  23               8.02435604E-05   9.73473601E-02   106.98235442     2.56459851E-05   6.59079596E+18   4.58977988E+05   0.00000000E+00   8.05973625E+05   0.31518324      
  24               9.89416822E-05   1.18368845E-01   112.23868195     2.97237537E-05   7.63872175E+18   4.58975170E+05   0.00000000E+00   8.03565926E+05   0.3183934       
  25               1.21996786E-04   1.43706897E-01   114.96785593     3.52296358E-05   9.05371919E+18   4.58970371E+05   0.00000000E+00   8.01089831E+05   0.31800807      
  26               1.50424124E-04   1.73283106E-01   121.20627388     4.02950309E-05   1.03551636E+19   4.58960175E+05   0.00000000E+00   7.98607464E+05   0.32182642      
  27               1.85475517E-04   2.04833817E-01   124.52112530     4.63626800E-05   1.19147370E+19   4.58941265E+05   0.00000000E+00   7.96299127E+05   0.32165726      
  28               2.28694484E-04   2.34781998E-01   130.90861924     5.05571981E-05   1.29903961E+19   4.58912603E+05   0.00000000E+00   7.94342938E+05   0.32438216      
  29               2.81984210E-04   2.58279937E-01   133.32829512     5.46027819E-05   1.40311796E+19   4.58875928E+05   9.15007188E+01   7.92928673E+05   0.32437873      
  30               3.47691354E-04   2.75875424E-01   137.94005667     5.64106966E-05   1.44859991E+19   4.58838220E+05   1.34705767E+02   7.91925990E+05   0.32614669      
  31               4.28709385E-04   2.87904662E-01   138.13469228     5.87874717E-05   1.50963436E+19   4.58813385E+05   1.57593274E+02   7.91265426E+05   0.32611664      
  32               5.28606003E-04   3.02682459E-01   142.17541499     6.00484220E-05   1.54201497E+19   4.58803098E+05   1.70424839E+02   7.90478894E+05   0.3254059       
  33               6.51780242E-04   3.20827482E-01   143.08835394     6.32420770E-05   1.62402651E+19   4.58805572E+05   1.66110147E+02   7.89547778E+05   0.32542098      
  34               8.03656185E-04   3.43095429E-01   148.09364366     6.53457526E-05   1.67804790E+19   4.58819398E+05   1.55138848E+02   7.88452389E+05   0.32508594      
  35               9.90921819E-04   3.70409430E-01   149.93156026     6.96831578E-05   1.78943041E+19   4.58846076E+05   1.27451751E+02   7.87172381E+05   0.32516235      
  36               1.22182355E-03   4.03897451E-01   156.16229618     7.29514251E-05   1.87335794E+19   4.58877779E+05   1.85545752E+02   7.85687100E+05   0.32488253      
  37               1.50652933E-03   4.44934765E-01   159.13230940     7.88636414E-05   2.02518086E+19   4.58903198E+05   0.00000000E+00   7.83976204E+05   0.32494236      
  38               1.85757643E-03   4.95199422E-01   165.50866693     8.43914144E-05   2.16713132E+19   4.58919176E+05   0.00000000E+00   7.82027817E+05   0.32435151      
  39               2.29042351E-03   5.56743834E-01   168.49330999     9.31990768E-05   2.39330800E+19   4.58935462E+05   0.00000000E+00   7.79833327E+05   0.32442335      
  40               2.82413135E-03   6.32082637E-01   175.09278663     1.01822703E-04   2.61475767E+19   4.58947916E+05   0.00000000E+00   7.77387697E+05   0.32307948      
  41               3.48220225E-03   7.24302106E-01   178.58102414     1.14399291E-04   2.93771918E+19   4.58946395E+05   0.00000000E+00   7.74685677E+05   0.32301872      
  42               4.29361493E-03   8.37197748E-01   184.80330833     1.27778606E-04   3.28128648E+19   4.58992477E+05   0.00000000E+00   7.71732859E+05   0.32061641      
  43               5.29410063E-03   9.75428028E-01   190.11803515     1.44714193E-04   3.71618865E+19   4.58943106E+05   0.00000000E+00   7.68518321E+05   0.3202135       
  44               6.52771662E-03   1.14428464E+00   196.29954233     1.64421576E-04   4.22221769E+19   4.58927381E+05   0.00000000E+00   7.65056664E+05   0.3176165       
  45               8.04878622E-03   1.34999018E+00   202.55266737     1.87989076E-04   4.82745776E+19   4.58924978E+05   0.00000000E+00   7.61356676E+05   0.31739062      
  46               9.92429106E-03   1.59981616E+00   209.46418026     2.15442620E-04   5.53205072E+19   4.58965589E+05   0.00000000E+00   7.57431021E+05   0.31509195      
  47               1.22368206E-02   1.90184186E+00   218.20118158     2.45852977E-04   6.31310691E+19   4.58791706E+05   0.00000000E+00   7.53281095E+05   0.31478724      
  48               1.50882091E-02   2.26485189E+00   230.36998132     2.77350141E-04   7.12097987E+19   4.56575226E+05   2.27688178E+03   7.48884840E+05   0.31266744      
  49               1.86040198E-02   2.69779953E+00   243.40587912     3.12727349E-04   8.02794615E+19   4.47442119E+05   1.14733855E+04   7.44235501E+05   0.31212135      
  50               2.29390746E-02   3.19467065E+00   256.47945800     3.53163336E-04   9.02192775E+19   4.30890320E+05   2.80515791E+04   7.39502999E+05   0.31020297      
  51               2.82842712E-02   3.74662423E+00   269.51040360     3.94154699E-04   1.00690951E+20   4.16686389E+05   4.22670805E+04   7.34824771E+05   0.30950314      
  52               3.48749902E-02   4.41305586E+00   283.45236955     4.41429587E-04   1.12767817E+20   4.07049882E+05   5.19085001E+04   7.29772443E+05   0.3074338       
  53               4.30014593E-02   5.21403486E+00   298.33400945     4.95533787E-04   1.26589302E+20   3.98313402E+05   6.06494359E+04   7.24356753E+05   0.30612398      
  54               5.30215347E-02   6.17225821E+00   314.11152550     5.57137408E-04   1.42326593E+20   3.89971788E+05   6.89954674E+04   7.18589766E+05   0.30451869      
  55               6.53764590E-02   7.31193380E+00   330.69220265     6.26917512E-04   1.60152652E+20   3.82798531E+05   7.61733004E+04   7.12491662E+05   0.30368686      
  56               8.06102920E-02   8.66296054E+00   348.17165889     7.05464274E-04   1.80218246E+20   3.78319260E+05   8.06576986E+04   7.06067429E+05   0.30260404      
  57               9.93938685E-02   1.02626624E+01   366.41711718     7.94120475E-04   2.02866402E+20   3.77937788E+05   8.10443516E+04   6.99308805E+05   0.30206585      
  58               1.22554340E-01   1.21498184E+01   385.62750057     8.93313579E-04   2.28206300E+20   3.81753182E+05   7.72339820E+04   6.92223432E+05   0.30137286      
  59               1.51111597E-01   1.43609681E+01   405.46488115     1.00422867E-03   2.56540722E+20   3.89646151E+05   6.93457567E+04   6.84840993E+05   0.30099805      
  60               1.86323183E-01   1.69347876E+01   426.16223349     1.12669606E-03   2.87826406E+20   4.01195286E+05   5.78019154E+04   6.77189285E+05   0.30054186      
  61               2.29739671E-01   1.99203033E+01   447.36700650     1.26251592E-03   3.22520879E+20   4.14894644E+05   4.41097100E+04   6.69273407E+05   0.30028594      
  62               2.83272943E-01   2.33616608E+01   469.38815385     1.41116067E-03   3.60493492E+20   4.27474325E+05   3.15389535E+04   6.61120300E+05   0.30003799      
  63               3.49280383E-01   2.72996086E+01   491.73068511     1.57410705E-03   4.02119329E+20   4.34786801E+05   2.42344378E+04   6.52764950E+05   0.29986244      
  64               4.30668686E-01   3.17793236E+01   514.76147203     1.75045931E-03   4.47161551E+20   4.33276316E+05   2.57481260E+04   6.44230842E+05   0.29963904      
  65               5.31021855E-01   3.68962088E+01   538.18017563     1.94387105E-03   4.96569324E+20   4.25163046E+05   3.38602711E+04   6.35458897E+05   0.29946262      
  66               6.54759028E-01   4.27500035E+01   562.56704550     2.15463564E-03   5.50411762E+20   4.14057933E+05   4.49637624E+04   6.26413724E+05   0.29926367      
  67               8.07329079E-01   4.94260910E+01   587.39002858     2.38597933E-03   6.09474492E+20   3.99127223E+05   5.98935123E+04   6.17102418E+05   0.29910178      
  68               9.95450561E-01   5.69932858E+01   613.09586469     2.63592038E-03   6.73319432E+20   3.80713751E+05   7.83045616E+04   6.07560506E+05   0.29888519      
  69               1.22740757E+00   6.55193175E+01   639.01940589     2.90731637E-03   7.42644822E+20   3.61704622E+05   9.73102748E+04   5.97821051E+05   0.29863969      
  70               1.51341452E+00   7.51674829E+01   665.92723453     3.20066484E-03   8.17577762E+20   3.43783712E+05   1.15229083E+05   5.87819243E+05   0.29834077      
  71               1.86606598E+00   8.60974145E+01   693.27168923     3.52146684E-03   8.99523438E+20   3.25597606E+05   1.33416235E+05   5.77524025E+05   0.29801282      
  72               2.30089127E+00   9.84492591E+01   721.68663329     3.86812717E-03   9.88074361E+20   3.04988917E+05   1.54029359E+05   5.66940760E+05   0.29762332      
  73               2.83703828E+00   1.12354475E+02   750.42762747     4.24539881E-03   1.08444467E+21   2.80938241E+05   1.78090107E+05   5.56089801E+05   0.29720414      
  74               3.49811672E+00   1.27959268E+02   780.16799249     4.65072355E-03   1.18798089E+21   2.55698233E+05   2.03344255E+05   5.44984292E+05   0.29670601      
  75               4.31323774E+00   1.45618864E+02   810.44960237     5.09481613E-03   1.30141996E+21   2.32829671E+05   2.26220137E+05   5.33511839E+05   0.29614436      
  76               5.31829590E+00   1.65727885E+02   842.27171058     5.57930711E-03   1.42517834E+21   2.15262786E+05   2.43776725E+05   5.21584692E+05   0.29553741      
  77               6.55754979E+00   1.88598408E+02   874.82442702     6.11300237E-03   1.56150350E+21   2.03048200E+05   2.55954151E+05   5.09200752E+05   0.29483776      
  78               8.08557104E+00   2.14441584E+02   908.75858728     6.69111146E-03   1.70917416E+21   1.96382301E+05   2.62548553E+05   4.96422554E+05   0.29406007      
  79               9.96964736E+00   2.43355669E+02   942.91897135     7.31824499E-03   1.86935994E+21   1.94270383E+05   2.64564642E+05   4.83356115E+05   0.29315396      
  80               1.22927457E+01   2.75519177E+02   978.03915713     7.98799929E-03   2.04042873E+21   1.96174357E+05   2.62557422E+05   4.70053362E+05   0.29216222      
  81               1.51571657E+01   3.11483288E+02   1013.42639157    8.71535248E-03   2.22622154E+21   2.00523527E+05   2.58118247E+05   4.56422984E+05   0.29108705      
  82               1.86890445E+01   3.51724997E+02   1050.08979840    9.49771996E-03   2.42606613E+21   2.04212358E+05   2.54389959E+05   4.42435993E+05   0.28990687      
  83               2.30439114E+01   3.96645483E+02   1086.98385015    1.03471928E-02   2.64304928E+21   2.05342246E+05   2.53367472E+05   4.28106738E+05   0.2887026       
  84               2.84135369E+01   4.46609991E+02   1125.05092145    1.12564343E-02   2.87529292E+21   2.03173875E+05   2.55694152E+05   4.13466434E+05   0.28739566      
  85               3.50343769E+01   5.01971083E+02   1163.09939118    1.22379751E-02   3.12599091E+21   1.97420189E+05   2.61562399E+05   3.98550525E+05   0.28602623      
  86               4.31979859E+01   5.61912846E+02   1201.43586240    1.32625574E-02   3.38761626E+21   1.91811065E+05   2.67240449E+05   3.83671925E+05   0.28455012      
  87               5.32638553E+01   6.27692973E+02   1239.47481091    1.43604560E-02   3.66805130E+21   1.92577398E+05   2.66496103E+05   3.68599019E+05   0.28306785      
  88               6.56752445E+01   7.01520104E+02   1279.32289580    1.55495693E-02   3.97178552E+21   1.98621469E+05   2.60426968E+05   3.52975720E+05   0.2815502       
  89               8.09786996E+01   7.86016912E+02   1320.50738371    1.68790976E-02   4.31138589E+21   2.07969666E+05   2.51040569E+05   3.36482458E+05   0.27994938      
  90               9.98481215E+01   8.84663564E+02   1365.15423750    1.83761411E-02   4.69377491E+21   2.22041182E+05   2.36943388E+05   3.18769927E+05   0.27827706      
  91               1.23114441E+02   1.00258828E+03   1413.03247289    2.01200060E-02   5.13920946E+21   2.44437903E+05   2.14422260E+05   2.99376093E+05   0.27647169      
  92               1.51802212E+02   1.14765217E+03   1467.00607394    2.21837875E-02   5.66636063E+21   2.70789551E+05   1.87818660E+05   2.77662708E+05   0.27445215      
  93               1.87174723E+02   1.32667505E+03   1525.93852337    2.46538392E-02   6.29728522E+21   2.95399855E+05   1.62887077E+05   2.53455288E+05   0.27216016      
  94               2.30789634E+02   1.54622918E+03   1590.98741198    2.75590271E-02   7.03935651E+21   3.16489577E+05   1.41408703E+05   2.26819379E+05   0.26965998      
  95               2.84567566E+02   1.81195583E+03   1659.75669276    3.09564399E-02   7.90731461E+21   3.23444284E+05   1.34369076E+05   1.98050171E+05   0.26677214      
  96               3.50876675E+02   2.12710769E+03   1732.28303218    3.48376350E-02   8.89398648E+21   3.19487763E+05   1.38484458E+05   1.67697461E+05   0.26368515      
  97               4.32636941E+02   2.49458483E+03   1805.74861295    3.91938680E-02   1.00061458E+22   3.14843807E+05   1.43388165E+05   1.36249164E+05   0.26055061      
  98               5.33448747E+02   2.92030388E+03   1881.39795003    4.40379396E-02   1.12427672E+22   3.07320256E+05   1.51335373E+05   1.03844965E+05   0.25726705      
  99               6.57751428E+02   3.41351919E+03   1957.48350526    4.94750906E-02   1.26307773E+22   2.96945935E+05   1.62101727E+05   7.04308188E+04   0.25400785      
  100              8.11018759E+02   3.98702122E+03   2036.23423826    5.55561529E-02   1.41822994E+22   2.86842067E+05   1.72583706E+05   3.58385635E+04   0.25079635      
  101              1.00000000E+03   4.65443187E+03   2115.78451765    6.24263201E-02   1.59338631E+22   2.80706724E+05   1.78998132E+05   0.00000000E+00   0.24760728      
