# ATMO pressure-temperature profile
# Effective temperature = 2200.0K
# log(g) = 3.0cm/s^2
# M/H = 0.0
# Optical depth grid in band 17 (1.20-1.33microns)
# All parameters in cgs units
#
# Model Level      Optical Depth    Pressure         Temperature      Density          Number Density   Rad Flux         Conv Flux        Radial Extension Adiabatic Gradient
#                                   [Ba]             [K]              [g/cm^3]         [/cm^3]          [ergs/s/cm^2/sr] [ergs/s/cm^2/sr] [cm]             [K/Ba]          
  1                1.00000000E-05   1.00000000E-05   749.34278974     3.77974184E-10   9.66596697E+13   1.32817808E+09   0.00000000E+00   9.65276698E+08   0.29628295      
  2                1.20226443E-05   1.56309825E-05   862.90871784     5.13054923E-10   1.31204056E+14   1.32817808E+09   0.00000000E+00   9.52489547E+08   0.2927618       
  3                1.44543977E-05   2.16474114E-05   906.67034371     6.76237064E-10   1.72934801E+14   1.32817808E+09   0.00000000E+00   9.42275273E+08   0.29160647      
  4                1.73780083E-05   2.84402991E-05   942.17967377     8.54954125E-10   2.18638313E+14   1.32817808E+09   0.00000000E+00   9.33341527E+08   0.29065539      
  5                2.08929613E-05   3.62366133E-05   966.22030208     1.06221836E-09   2.71642227E+14   1.32817808E+09   0.00000000E+00   9.25160440E+08   0.29032888      
  6                2.51188643E-05   4.52625695E-05   991.88011804     1.29247558E-09   3.30526176E+14   1.32817808E+09   0.00000000E+00   9.17457168E+08   0.29008991      
  7                3.01995172E-05   5.57542338E-05   1010.54737543    1.56265628E-09   3.99619814E+14   1.32817808E+09   0.00000000E+00   9.10074702E+08   0.28972681      
  8                3.63078055E-05   6.79794221E-05   1032.70557539    1.86441760E-09   4.76789614E+14   1.32817808E+09   0.00000000E+00   9.02912406E+08   0.28867467      
  9                4.36515832E-05   8.22407575E-05   1049.18308086    2.22012799E-09   5.67755909E+14   1.32817807E+09   0.00000000E+00   8.95902703E+08   0.28817672      
  10               5.24807460E-05   9.88899230E-05   1069.76696517    2.61821316E-09   6.69558759E+14   1.32817807E+09   0.00000000E+00   8.88997110E+08   0.28721417      
  11               6.30957344E-05   1.18329112E-04   1085.25197530    3.08818375E-09   7.89744956E+14   1.32817807E+09   0.00000000E+00   8.82160763E+08   0.2878459       
  12               7.58577575E-05   1.41026068E-04   1105.16625720    3.61421510E-09   9.24267370E+14   1.32817807E+09   0.00000000E+00   8.75367019E+08   0.28701886      
  13               9.12010839E-05   1.67515712E-04   1120.28941809    4.23513900E-09   1.08305660E+15   1.32817807E+09   0.00000000E+00   8.68596292E+08   0.28662264      
  14               1.09647820E-04   1.98436879E-04   1139.95398716    4.93034350E-09   1.26084269E+15   1.32817807E+09   0.00000000E+00   8.61829490E+08   0.28576911      
  15               1.31825674E-04   2.34551562E-04   1154.96309306    5.75193571E-09   1.47094374E+15   1.32817806E+09   0.00000000E+00   8.55047791E+08   0.28537033      
  16               1.58489319E-04   2.76750909E-04   1174.71159053    6.67269689E-09   1.70641100E+15   1.32817806E+09   0.00000000E+00   8.48236208E+08   0.28447877      
  17               1.90546072E-04   3.26036572E-04   1189.96710958    7.76029866E-09   1.98452786E+15   1.32817806E+09   0.00000000E+00   8.41387145E+08   0.2840452       
  18               2.29086765E-04   3.83576939E-04   1210.13110121    8.97781428E-09   2.29586267E+15   1.32817805E+09   0.00000000E+00   8.34493503E+08   0.28309781      
  19               2.75422870E-04   4.50581594E-04   1225.90871212    1.04106815E-08   2.66220292E+15   1.32817805E+09   0.00000000E+00   8.27562730E+08   0.28264225      
  20               3.31131121E-04   5.28484376E-04   1246.72283795    1.20068804E-08   3.07035136E+15   1.32817804E+09   0.00000000E+00   8.20594878E+08   0.28161214      
  21               3.98107171E-04   6.18447949E-04   1263.24921359    1.38686089E-08   3.54601001E+15   1.32817804E+09   0.00000000E+00   8.13623135E+08   0.28108177      
  22               4.78630092E-04   7.22295711E-04   1284.91018454    1.59240895E-08   4.07162811E+15   1.32817803E+09   0.00000000E+00   8.06635125E+08   0.27995742      
  23               5.75439937E-04   8.39241575E-04   1302.31854808    1.82621992E-08   4.66762120E+15   1.32817803E+09   0.00000000E+00   7.99777029E+08   0.27938346      
  24               6.91830971E-04   9.70295855E-04   1324.96896925    2.07551960E-08   5.30425395E+15   1.32817803E+09   0.00000000E+00   7.93045433E+08   0.27809463      
  25               8.31763771E-04   1.12099294E-03   1343.33750809    2.36513951E-08   6.04426610E+15   1.32817802E+09   0.00000000E+00   7.86243794E+08   0.27738183      
  26               1.00000000E-03   1.29310973E-03   1367.15662120    2.68094230E-08   6.85082619E+15   1.32817803E+09   0.00000000E+00   7.79408563E+08   0.27593998      
  27               1.20226443E-03   1.48514252E-03   1386.73515569    3.03689618E-08   7.75711888E+15   1.32817806E+09   0.00000000E+00   7.72678216E+08   0.27513666      
  28               1.44543977E-03   1.69198717E-03   1411.42067946    3.40053014E-08   8.68293260E+15   1.32817810E+09   0.00000000E+00   7.66241507E+08   0.27337372      
  29               1.73780083E-03   1.91159154E-03   1431.96682577    3.78835894E-08   9.66914298E+15   1.32817812E+09   0.00000000E+00   7.60122933E+08   0.2724196       
  30               2.08929613E-03   2.13045911E-03   1457.78975038    4.15411775E-08   1.05853239E+16   1.32817807E+09   0.00000000E+00   7.54604890E+08   0.2703756       
  31               2.51188643E-03   2.34772301E-03   1478.09307350    4.51476638E-08   1.15045839E+16   1.32817795E+09   0.00000000E+00   7.49588044E+08   0.26922975      
  32               3.01995172E-03   2.59879360E-03   1500.18726526    4.92382985E-08   1.25473541E+16   1.32817783E+09   0.00000000E+00   7.44262953E+08   0.26704787      
  33               3.63078055E-03   2.88845102E-03   1522.05770185    5.39380063E-08   1.37454743E+16   1.32817771E+09   0.00000000E+00   7.38642309E+08   0.26559763      
  34               4.36515832E-03   3.22191541E-03   1546.14667973    5.92247781E-08   1.50934764E+16   1.32817758E+09   0.00000000E+00   7.32742325E+08   0.26303659      
  35               5.24807460E-03   3.60477849E-03   1570.28198924    6.52403005E-08   1.66274930E+16   1.32817745E+09   0.00000000E+00   7.26582981E+08   0.26115347      
  36               6.30957344E-03   4.04280916E-03   1596.93406055    7.19411776E-08   1.83367387E+16   1.32817733E+09   0.00000000E+00   7.20189187E+08   0.25766317      
  37               7.58577575E-03   4.54129265E-03   1623.99146123    7.94576719E-08   2.02545028E+16   1.32817723E+09   0.00000000E+00   7.13596004E+08   0.25507462      
  38               9.12010839E-03   5.10340446E-03   1654.08298567    8.76568678E-08   2.23474788E+16   1.32817724E+09   0.00000000E+00   7.06860603E+08   0.25061125      
  39               1.09647820E-02   5.72586039E-03   1685.22055596    9.65150083E-08   2.46098998E+16   1.32817743E+09   0.00000000E+00   7.00093228E+08   0.24677982      
  40               1.31825674E-02   6.39715989E-03   1719.31794080    1.05667529E-07   2.69498809E+16   1.32817836E+09   0.00000000E+00   6.93445837E+08   0.24059787      
  41               1.58489319E-02   7.12997225E-03   1750.26187087    1.15660554E-07   2.95060210E+16   1.32817820E+09   0.00000000E+00   6.86817080E+08   0.23607033      
  42               1.90546072E-02   7.95989463E-03   1782.43715591    1.26752243E-07   3.23458771E+16   1.32817799E+09   0.00000000E+00   6.79962664E+08   0.22955448      
  43               2.29086765E-02   8.89780121E-03   1816.99418895    1.38934838E-07   3.54694946E+16   1.32817776E+09   0.00000000E+00   6.72894919E+08   0.22356115      
  44               2.75422870E-02   9.94866789E-03   1861.84275231    1.51494257E-07   3.87032802E+16   1.32686667E+09   1.28622558E+06   6.65651321E+08   0.21355883      
  45               3.31131121E-02   1.11192030E-02   1905.62499995    1.65284394E-07   4.22631688E+16   1.32276369E+09   5.37534811E+06   6.58253870E+08   0.20362855      
  46               3.98107171E-02   1.24263170E-02   1948.22451012    1.80486910E-07   4.61986479E+16   1.31580820E+09   1.23237564E+07   6.50685759E+08   0.19355761      
  47               4.78630092E-02   1.38891973E-02   1989.67350870    1.97290565E-07   5.05616421E+16   1.30577133E+09   2.23615047E+07   6.42933174E+08   0.18391427      
  48               5.75439937E-02   1.55295050E-02   2030.04285487    2.15899723E-07   5.54087365E+16   1.29238137E+09   3.57619139E+07   6.34985123E+08   0.17458806      
  49               6.91830971E-02   1.73721921E-02   2069.28824737    2.36561601E-07   6.08078251E+16   1.27539607E+09   5.27596118E+07   6.26831165E+08   0.16551705      
  50               8.31763771E-02   1.94465593E-02   2107.45195749    2.59556553E-07   6.68360736E+16   1.25468747E+09   7.34768897E+07   6.18459480E+08   0.15749566      
  51               1.00000000E-01   2.17854329E-02   2144.85320147    2.85149858E-07   7.35689336E+16   1.23013980E+09   9.80381828E+07   6.09862025E+08   0.15054995      
  52               1.20226443E-01   2.44254210E-02   2181.53554720    3.13665102E-07   8.10971522E+16   1.20163530E+09   1.26566530E+08   6.01034311E+08   0.14419567      
  53               1.44543977E-01   2.74076075E-02   2217.58665358    3.45450097E-07   8.95192360E+16   1.16915069E+09   1.59090126E+08   5.91974375E+08   0.13852569      
  54               1.73780083E-01   3.07778377E-02   2253.09735096    3.80881428E-07   9.89427525E+16   1.13269488E+09   1.95610566E+08   5.82682824E+08   0.13351183      
  55               2.08929613E-01   3.45870637E-02   2288.14718825    4.20367384E-07   1.09485240E+17   1.09227439E+09   2.36123223E+08   5.73162679E+08   0.12880872      
  56               2.51188643E-01   3.88920709E-02   2322.65186995    4.64391577E-07   1.21283798E+17   1.04797255E+09   2.80517414E+08   5.63418771E+08   0.12443815      
  57               3.01995172E-01   4.37355317E-02   2356.57260814    5.13289719E-07   1.34424808E+17   9.99946338E+08   3.28628397E+08   5.53497670E+08   0.12055863      
  58               3.63078055E-01   4.91845542E-02   2389.95660616    5.67493920E-07   1.49061183E+17   9.48781047E+08   3.79881187E+08   5.43401145E+08   0.11731609      
  59               4.36515832E-01   5.53362582E-02   2423.14095049    6.27786148E-07   1.65408168E+17   8.95067632E+08   4.33703057E+08   5.33094339E+08   0.11449829      
  60               5.24807460E-01   6.22735341E-02   2456.01919615    6.94812315E-07   1.83652818E+17   8.39054934E+08   4.89814998E+08   5.22590111E+08   0.11203596      
  61               6.30957344E-01   7.00809930E-02   2488.72985019    7.69104820E-07   2.03961562E+17   7.80941424E+08   5.48016097E+08   5.11909457E+08   0.10984536      
  62               7.58577575E-01   7.88475558E-02   2521.10249855    8.51328747E-07   2.26528877E+17   7.21038283E+08   6.08021047E+08   5.01075125E+08   0.10792251      
  63               9.12010839E-01   8.86852086E-02   2553.34674932    9.42185964E-07   2.51574857E+17   6.60023245E+08   6.69135983E+08   4.90090417E+08   0.10622179      
  64               1.09647820E+00   9.97160218E-02   2585.32263131    1.04259891E-06   2.79367599E+17   5.98603907E+08   7.30616940E+08   4.78960444E+08   0.10471853      
  65               1.31825674E+00   1.12072688E-01   2617.22711145    1.15335183E-06   3.10158880E+17   5.37515016E+08   7.91731884E+08   4.67691709E+08   0.10335078      
  66               1.58489319E+00   1.25899150E-01   2648.87751251    1.27551748E-06   3.44260156E+17   4.77543477E+08   8.51696846E+08   4.56291842E+08   0.10213253      
  67               1.90546072E+00   1.41351079E-01   2680.48461576    1.40995105E-06   3.81954516E+17   4.19512077E+08   9.09718473E+08   4.44769251E+08   0.10105662      
  68               2.29086765E+00   1.58596526E-01   2711.85816766    1.55786861E-06   4.23596671E+17   3.64310989E+08   9.64901638E+08   4.33132837E+08   0.10015265      
  69               2.75422870E+00   1.77816546E-01   2743.23509228    1.72017417E-06   4.69499334E+17   3.12844303E+08   1.01633019E+09   4.21391591E+08   0.099375006     
  70               3.31131121E+00   1.99206373E-01   2774.39624895    1.89826312E-06   5.20068535E+17   2.66014623E+08   1.06310821E+09   4.09554245E+08   0.098722313     
  71               3.98107171E+00   2.22976856E-01   2805.58924709    2.09310932E-06   5.75654015E+17   2.24590101E+08   1.10447215E+09   3.97628784E+08   0.098158017     
  72               4.78630092E+00   2.49356111E-01   2836.57358278    2.30633353E-06   6.36724852E+17   1.89045551E+08   1.13996472E+09   3.85622286E+08   0.097706018     
  73               5.75439937E+00   2.78590932E-01   2867.62482134    2.53897366E-06   7.03672348E+17   1.59401400E+08   1.16956252E+09   3.73540781E+08   0.097365018     
  74               6.91830971E+00   3.10948468E-01   2898.50263941    2.79288637E-06   7.77034963E+17   1.35172443E+08   1.19374054E+09   3.61389278E+08   0.097115743     
  75               8.31763771E+00   3.46718863E-01   2929.48345108    3.06921877E-06   8.57259409E+17   1.15542050E+08   1.21331797E+09   3.49171467E+08   0.096907638     
  76               1.00000000E+01   3.86218464E-01   2960.29688586    3.37019325E-06   9.44982147E+17   9.95481373E+07   1.22925879E+09   3.36889691E+08   0.096735687     
  77               1.20226443E+01   4.29793411E-01   2991.23007618    3.69711720E-06   1.04072449E+18   8.63550192E+07   1.24240599E+09   3.24544791E+08   0.096565044     
  78               1.44543977E+01   4.77823460E-01   3021.99204664    4.05268732E-06   1.14524919E+18   7.52549556E+07   1.25347886E+09   3.12136295E+08   0.096414055     
  79               1.73780083E+01   5.30712222E-01   3052.88679618    4.43830122E-06   1.25914060E+18   6.58005677E+07   1.26289554E+09   2.99665542E+08   0.09630188      
  80               2.08929613E+01   5.88897922E-01   3083.62691615    4.85700694E-06   1.38326069E+18   5.76398393E+07   1.27101368E+09   2.87133199E+08   0.096269107     
  81               2.51188643E+01   6.52863623E-01   3114.55568083    5.31031308E-06   1.51828119E+18   5.05930358E+07   1.27801659E+09   2.74537813E+08   0.096307865     
  82               3.01995172E+01   7.23141124E-01   3145.38301961    5.80186991E-06   1.66523435E+18   4.44425725E+07   1.28412411E+09   2.61876445E+08   0.096430113     
  83               3.63078055E+01   8.00315792E-01   3176.47281354    6.33338233E-06   1.82491266E+18   3.90981447E+07   1.28943374E+09   2.49144892E+08   0.096620767     
  84               4.36515832E+01   8.85031619E-01   3207.52363263    6.90921028E-06   1.99854882E+18   3.44177850E+07   1.29409120E+09   2.36338093E+08   0.096905745     
  85               5.24807460E+01   9.77996712E-01   3238.92625353    7.53121814E-06   2.18706744E+18   3.03371036E+07   1.29815238E+09   2.23450217E+08   0.097231434     
  86               6.30957344E+01   1.07998985E+00   3270.34052656    8.20470584E-06   2.39195242E+18   2.67270335E+07   1.30174585E+09   2.10474994E+08   0.09757005      
  87               7.58577575E+01   1.19187060E+00   3302.14908517    8.93192464E-06   2.61431715E+18   2.35542164E+07   1.30490404E+09   1.97405478E+08   0.097894766     
  88               9.12010839E+01   1.31458841E+00   3333.98997145    9.71931787E-06   2.85595493E+18   2.07314930E+07   1.30771356E+09   1.84234288E+08   0.098204347     
  89               1.09647820E+02   1.44919408E+00   3366.25464195    1.05695913E-05   3.11821047E+18   1.82431859E+07   1.31019920E+09   1.70953484E+08   0.098482596     
  90               1.31825674E+02   1.59685066E+00   3398.56514002    1.14905752E-05   3.40325540E+18   1.60274283E+07   1.31241481E+09   1.57554850E+08   0.098750783     
  91               1.58489319E+02   1.75884630E+00   3431.33564977    1.24854520E-05   3.71270572E+18   1.40840643E+07   1.31435038E+09   1.44029821E+08   0.09903885      
  92               1.90546072E+02   1.93660435E+00   3464.20108168    1.35634475E-05   4.04914799E+18   1.23660148E+07   1.31605437E+09   1.30369853E+08   0.099387604     
  93               2.29086765E+02   2.13169405E+00   3497.61005058    1.47280558E-05   4.41447766E+18   1.08643051E+07   1.31753681E+09   1.16566506E+08   0.099799766     
  94               2.75422870E+02   2.34584233E+00   3531.19063150    1.59901070E-05   4.81175487E+18   9.53405513E+06   1.31884388E+09   1.02611700E+08   0.10027926      
  95               3.31131121E+02   2.58095314E+00   3565.40155007    1.73535525E-05   5.24321312E+18   8.36798329E+06   1.31999122E+09   8.84973575E+07   0.10080813      
  96               3.98107171E+02   2.83912555E+00   3599.85087235    1.88312474E-05   5.71249625E+18   7.33309113E+06   1.32101591E+09   7.42155288E+07   0.10139352      
  97               4.78630092E+02   3.12267801E+00   3635.01108264    2.04276904E-05   6.22224783E+18   6.42539192E+06   1.32191284E+09   5.97580580E+07   0.10201256      
  98               5.75439937E+02   3.43417206E+00   3670.46732725    2.21582353E-05   6.77682901E+18   5.61940340E+06   1.32270698E+09   4.51167298E+07   0.10264921      
  99               6.91830971E+02   3.77645000E+00   3706.69160825    2.40283563E-05   7.37943521E+18   4.91436574E+06   1.32339808E+09   3.02827522E+07   0.10328632      
  100              8.31763771E+02   4.15266506E+00   3743.25079455    2.60565403E-05   8.03533185E+18   4.29009793E+06   1.32400686E+09   1.52470432E+07   0.10391704      
  101              1.00000000E+03   4.56632273E+00   3780.62315779    2.82495285E-05   8.74840847E+18   4.01221813E+06   1.32427800E+09   0.00000000E+00   0.1045561       
