# ATMO pressure-temperature profile
# Effective temperature = 2400.0K
# log(g) = 4.0cm/s^2
# M/H = 0.0
# Optical depth grid in band 17 (1.20-1.33microns)
# All parameters in cgs units
#
# Model Level      Optical Depth    Pressure         Temperature      Density          Number Density   Rad Flux         Conv Flux        Radial Extension Adiabatic Gradient
#                                   [Ba]             [K]              [g/cm^3]         [/cm^3]          [ergs/s/cm^2/sr] [ergs/s/cm^2/sr] [cm]             [K/Ba]          
  1                8.00000000E-05   1.00000000E-05   973.11477256     2.91057116E-10   7.44323574E+13   1.88113129E+09   0.00000000E+00   1.13405761E+08   0.29035378      
  2                9.42017752E-05   2.83552792E-04   1124.47650132    7.14209292E-09   1.82645671E+15   1.88113126E+09   0.00000000E+00   9.44325893E+07   0.2859473       
  3                1.10924681E-04   5.50768267E-04   1194.40054531    1.30605823E-08   3.33998685E+15   1.88113121E+09   0.00000000E+00   9.16658483E+07   0.28414429      
  4                1.30616273E-04   8.40080289E-04   1226.82102503    1.93949624E-08   4.95981439E+15   1.88113118E+09   0.00000000E+00   8.98480662E+07   0.28216686      
  5                1.53803560E-04   1.15842377E-03   1268.40913898    2.58697781E-08   6.61506226E+15   1.88113113E+09   0.00000000E+00   8.84268457E+07   0.28123321      
  6                1.81107105E-04   1.51191764E-03   1288.80826409    3.32295336E-08   8.49700084E+15   1.88113108E+09   0.00000000E+00   8.72211868E+07   0.27964944      
  7                2.13257635E-04   1.89504646E-03   1322.92742962    4.05939176E-08   1.03755154E+16   1.88113100E+09   0.00000000E+00   8.61779409E+07   0.27895889      
  8                2.51115597E-04   2.31045458E-03   1339.08280914    4.88984001E-08   1.24972898E+16   1.88113092E+09   0.00000000E+00   8.52455451E+07   0.27741339      
  9                2.95694188E-04   2.77404222E-03   1370.05745516    5.73864936E-08   1.46656098E+16   1.88113080E+09   0.00000000E+00   8.43703951E+07   0.27681275      
  10               3.48186468E-04   3.29377355E-03   1384.50288185    6.74259183E-08   1.72316043E+16   1.88113070E+09   0.00000000E+00   8.35348678E+07   0.27527858      
  11               4.09997292E-04   3.85858557E-03   1414.17527289    7.73726112E-08   1.97629029E+16   1.88113056E+09   0.00000000E+00   8.27528337E+07   0.27465585      
  12               4.82780909E-04   4.46236011E-03   1427.59508574    8.86367101E-08   2.26404685E+16   1.88113041E+09   0.00000000E+00   8.20237550E+07   0.27304087      
  13               5.68485234E-04   5.09865080E-03   1456.37397349    9.93538645E-08   2.53576030E+16   1.88113021E+09   0.00000000E+00   8.13456725E+07   0.27241852      
  14               6.69403978E-04   5.76578558E-03   1470.19736524    1.11290570E-07   2.84059087E+16   1.88113018E+09   0.00000000E+00   8.07112303E+07   0.27051712      
  15               7.88238038E-04   6.43137353E-03   1499.13615039    1.21945284E-07   3.10733800E+16   1.88112993E+09   0.00000000E+00   8.01397816E+07   0.26973053      
  16               9.28167781E-04   7.05809684E-03   1511.40685926    1.32740683E-07   3.38245528E+16   1.88113032E+09   0.00000000E+00   7.96471850E+07   0.26810693      
  17               1.09293816E-03   7.76872991E-03   1534.36203066    1.43915740E-07   3.66731335E+16   1.88113050E+09   0.00000000E+00   7.91330353E+07   0.26743075      
  18               1.28695893E-03   8.57343815E-03   1547.29015878    1.57493728E-07   4.01336903E+16   1.88113066E+09   0.00000000E+00   7.85985292E+07   0.26567015      
  19               1.51542270E-03   9.48338710E-03   1571.26032207    1.71545581E-07   4.37160762E+16   1.88113075E+09   0.00000000E+00   7.80449292E+07   0.26484133      
  20               1.78444386E-03   1.05103363E-02   1585.36697847    1.88426638E-07   4.80189482E+16   1.88113083E+09   0.00000000E+00   7.74737293E+07   0.26194879      
  21               2.10122224E-03   1.16670818E-02   1610.68190875    2.05866775E-07   5.24660420E+16   1.88113083E+09   0.00000000E+00   7.68864103E+07   0.26089004      
  22               2.47423582E-03   1.29664461E-02   1626.38320388    2.26578642E-07   5.77462674E+16   1.88113082E+09   0.00000000E+00   7.62847817E+07   0.25887207      
  23               2.91346758E-03   1.44214411E-02   1653.52398606    2.47849712E-07   6.31719090E+16   1.88113069E+09   0.00000000E+00   7.56707955E+07   0.25780688      
  24               3.43067273E-03   1.60427361E-02   1671.46835310    2.72740944E-07   6.95194168E+16   1.88113056E+09   0.00000000E+00   7.50472144E+07   0.25497753      
  25               4.03969326E-03   1.78377417E-02   1701.11678269    2.97941304E-07   7.59506651E+16   1.88113020E+09   0.00000000E+00   7.44175249E+07   0.25315575      
  26               4.75682846E-03   1.98019289E-02   1722.33502502    3.26648649E-07   8.32752034E+16   1.88112987E+09   0.00000000E+00   7.37879061E+07   0.24932768      
  27               5.60127107E-03   2.19037726E-02   1756.06872502    3.54320521E-07   9.03448193E+16   1.88112816E+09   0.00000000E+00   7.31700832E+07   0.24653095      
  28               6.59562098E-03   2.41476099E-02   1777.28520880    3.85911859E-07   9.84108229E+16   1.88112835E+09   0.00000000E+00   7.25632772E+07   0.24269858      
  29               7.76649006E-03   2.66553291E-02   1803.49128903    4.19730158E-07   1.07052260E+17   1.88112834E+09   0.00000000E+00   7.19401867E+07   0.24061097      
  30               9.14521438E-03   2.94577864E-02   1824.50494799    4.58454697E-07   1.16944797E+17   1.88112840E+09   0.00000000E+00   7.13013255E+07   0.23667871      
  31               1.07686929E-02   3.25876463E-02   1851.38460982    4.99696656E-07   1.27491780E+17   1.88112836E+09   0.00000000E+00   7.06474047E+07   0.23438846      
  32               1.26803748E-02   3.60784928E-02   1873.77520031    5.46514544E-07   1.39462273E+17   1.88112839E+09   0.00000000E+00   6.99794027E+07   0.23002013      
  33               1.49314227E-02   3.99669480E-02   1902.21717395    5.96196805E-07   1.52183205E+17   1.88112832E+09   0.00000000E+00   6.92981886E+07   0.22720366      
  34               1.75820816E-02   4.42903725E-02   1926.76101241    6.52106582E-07   1.66497349E+17   1.88112832E+09   0.00000000E+00   6.86048021E+07   0.22211528      
  35               2.07032912E-02   4.90889062E-02   1957.60028687    7.11093258E-07   1.81628993E+17   1.88112823E+09   0.00000000E+00   6.79001266E+07   0.21864702      
  36               2.43785848E-02   5.44015932E-02   1985.47517571    7.76689115E-07   1.98460005E+17   1.88112825E+09   0.00000000E+00   6.71852518E+07   0.21283773      
  37               2.87063246E-02   6.02664419E-02   2020.72667946    8.44908946E-07   2.16019927E+17   1.88112804E+09   0.00000000E+00   6.64612601E+07   0.20832832      
  38               3.38023342E-02   6.66813232E-02   2062.85485947    9.14951633E-07   2.34132324E+17   1.87908514E+09   2.02123890E+06   6.57316448E+07   0.20005483      
  39               3.98029987E-02   7.36790469E-02   2103.63339626    9.90387324E-07   2.53687917E+17   1.87385457E+09   7.23305248E+06   6.49965134E+07   0.19215603      
  40               4.68689142E-02   8.13335047E-02   2143.15383648    1.07192430E-06   2.74879265E+17   1.86554761E+09   1.55200242E+07   6.42535971E+07   0.1848759       
  41               5.51891865E-02   8.97242395E-02   2181.73190404    1.16016152E-06   2.97875129E+17   1.85404493E+09   2.70030544E+07   6.35011618E+07   0.1778615       
  42               6.49864917E-02   9.89379697E-02   2219.23913356    1.25597521E-06   3.22912407E+17   1.83919664E+09   4.18343707E+07   6.27378601E+07   0.17132433      
  43               7.65230361E-02   1.09069027E-01   2256.04300284    1.35998385E-06   3.50170780E+17   1.82083159E+09   6.01869639E+07   6.19626702E+07   0.16524502      
  44               9.01075730E-02   1.20219897E-01   2291.96486544    1.47318501E-06   3.79921819E+17   1.79875466E+09   8.22529213E+07   6.11748556E+07   0.15933164      
  45               1.06103667E-01   1.32463280E-01   2327.11739041    1.59614773E-06   4.12290238E+17   1.77273865E+09   1.08230789E+08   6.03763849E+07   0.15381608      
  46               1.24939422E-01   1.45918060E-01   2361.43042592    1.72963259E-06   4.47568725E+17   1.74280419E+09   1.38152376E+08   5.95665925E+07   0.14894867      
  47               1.47118942E-01   1.60755895E-01   2395.34753791    1.87496912E-06   4.86098424E+17   1.70904266E+09   1.71944347E+08   5.87426305E+07   0.14468593      
  48               1.73235819E-01   1.77117267E-01   2428.73455228    2.03335024E-06   5.28210087E+17   1.67128872E+09   2.09728357E+08   5.79046631E+07   0.14074487      
  49               2.03989021E-01   1.95152921E-01   2461.78873640    2.20570445E-06   5.74182715E+17   1.62942462E+09   2.51623027E+08   5.70530102E+07   0.13712565      
  50               2.40201599E-01   2.15011873E-01   2494.35006249    2.39323815E-06   6.24353973E+17   1.58331508E+09   2.97766323E+08   5.61886395E+07   0.13385463      
  51               2.82842712E-01   2.36861157E-01   2526.63298449    2.59687463E-06   6.79012117E+17   1.53288496E+09   3.48232943E+08   5.53121857E+07   0.13094259      
  52               3.33053570E-01   2.60896373E-01   2558.52295509    2.81816397E-06   7.38591938E+17   1.47816043E+09   4.02989315E+08   5.44237021E+07   0.12825458      
  53               3.92177970E-01   2.87327271E-01   2590.19615981    3.05833409E-06   8.03470678E+17   1.41920055E+09   4.61975507E+08   5.35233834E+07   0.12577977      
  54               4.61798262E-01   3.16378094E-01   2621.52466466    3.31911086E-06   8.74134570E+17   1.35610464E+09   5.25093108E+08   5.26115515E+07   0.12352496      
  55               5.43777701E-01   3.48287958E-01   2652.68940911    3.60179415E-06   9.50994259E+17   1.28901538E+09   5.92200205E+08   5.16886311E+07   0.12152412      
  56               6.40310309E-01   3.83310855E-01   2683.57518054    3.90823473E-06   1.03457789E+18   1.21811954E+09   6.63114707E+08   5.07551369E+07   0.11975819      
  57               7.53979598E-01   4.21716436E-01   2714.35770218    4.23979114E-06   1.12532842E+18   1.14366180E+09   7.37588299E+08   4.98116388E+07   0.11816098      
  58               8.87827707E-01   4.63792031E-01   2744.88705788    4.59855335E-06   1.22384000E+18   1.06603301E+09   8.15228533E+08   4.88587189E+07   0.11670197      
  59               1.04543683E+00   5.09843510E-01   2775.33078561    4.98598995E-06   1.33060142E+18   9.85750774E+08   8.95516200E+08   4.78969602E+07   0.11536796      
  60               1.23102506E+00   5.60196693E-01   2805.53262105    5.40443358E-06   1.44627559E+18   9.03523800E+08   9.77742323E+08   4.69269312E+07   0.11416425      
  61               1.44955933E+00   6.15199177E-01   2835.67146970    5.85543633E-06   1.57139610E+18   8.20285409E+08   1.06097510E+09   4.59491628E+07   0.113098        
  62               1.70688827E+00   6.75222010E-01   2865.59667178    6.34158414E-06   1.70670070E+18   7.37208034E+08   1.14404059E+09   4.49641402E+07   0.11215672      
  63               2.00989882E+00   7.40662362E-01   2895.48983542    6.86455146E-06   1.85278092E+18   6.55685442E+08   1.22554414E+09   4.39722840E+07   0.11131893      
  64               2.36670046E+00   8.11946434E-01   2925.19146210    7.42729035E-06   2.01047613E+18   5.77294845E+08   1.30390965E+09   4.29739428E+07   0.11057935      
  65               2.78684231E+00   8.89533691E-01   2954.89047928    8.03164380E-06   2.18045362E+18   5.03667526E+08   1.37750779E+09   4.19693716E+07   0.10992084      
  66               3.28156866E+00   9.73920700E-01   2984.42128203    8.68103719E-06   2.36368341E+18   4.36289259E+08   1.44485503E+09   4.09587351E+07   0.10934729      
  67               3.86411992E+00   1.06564277E+00   3013.98412743    9.37750634E-06   2.56092301E+18   3.76216398E+08   1.50489633E+09   3.99421313E+07   0.10884338      
  68               4.55008695E+00   1.16526249E+00   3043.40147886    1.01249021E-05   2.77325854E+18   3.23942177E+08   1.55714144E+09   3.89197490E+07   0.10841252      
  69               5.35782835E+00   1.27337271E+00   3072.87606740    1.09252487E-05   3.00148608E+18   2.79364473E+08   1.60169462E+09   3.78918209E+07   0.10803804      
  70               6.30896177E+00   1.39061985E+00   3102.22146211    1.17829634E-05   3.24684433E+18   2.41873993E+08   1.63916637E+09   3.68584264E+07   0.10772897      
  71               7.42894249E+00   1.51770882E+00   3131.65787287    1.27003677E-05   3.51026568E+18   2.10508081E+08   1.67051951E+09   3.58195133E+07   0.10746797      
  72               8.74774463E+00   1.65540853E+00   3160.99259911    1.36827135E-05   3.79321578E+18   1.84181173E+08   1.69683917E+09   3.47749247E+07   0.10727371      
  73               1.03006634E+01   1.80455785E+00   3190.46582736    1.47326159E-05   4.09677914E+18   1.61912517E+08   1.71910124E+09   3.37244109E+07   0.10713818      
  74               1.21292597E+01   1.96607173E+00   3219.88102919    1.58562500E-05   4.42267852E+18   1.42846360E+08   1.73816308E+09   3.26676519E+07   0.10707017      
  75               1.42824725E+01   2.14094502E+00   3249.49056401    1.70565571E-05   4.77217184E+18   1.26355834E+08   1.75465110E+09   3.16042831E+07   0.1070391       
  76               1.68179283E+01   2.33026066E+00   3279.07907989    1.83408557E-05   5.14728782E+18   1.11940111E+08   1.76906591E+09   3.05339051E+07   0.10704814      
  77               1.98034838E+01   2.53519813E+00   3308.90693906    1.97124962E-05   5.54949151E+18   9.92897512E+07   1.78171680E+09   2.94560834E+07   0.10707147      
  78               2.33190416E+01   2.75704322E+00   3338.74173491    2.11801624E-05   5.98117609E+18   8.81012162E+07   1.79290712E+09   2.83703570E+07   0.10711782      
  79               2.74586889E+01   2.99719821E+00   3368.85459787    2.27476813E-05   6.44405202E+18   7.82089541E+07   1.80279798E+09   2.72762382E+07   0.10716575      
  80               3.23332155E+01   3.25719339E+00   3398.99767617    2.44253513E-05   6.94094363E+18   6.94179176E+07   1.81158844E+09   2.61732212E+07   0.10725085      
  81               3.80730788E+01   3.53869617E+00   3429.46756790    2.62173452E-05   7.47381624E+18   6.16445137E+07   1.81936376E+09   2.50607881E+07   0.10735842      
  82               4.48318951E+01   3.84352680E+00   3460.00396379    2.81357619E-05   8.04598385E+18   5.47385386E+07   1.82627378E+09   2.39384060E+07   0.1075129       
  83               5.27905513E+01   4.17366640E+00   3490.92283140    3.01851770E-05   8.65970951E+18   4.86256844E+07   1.83239229E+09   2.28055431E+07   0.10769084      
  84               6.21620456E+01   4.53127175E+00   3521.94515776    3.23797947E-05   9.31887228E+18   4.31716359E+07   1.83785304E+09   2.16616752E+07   0.1079143       
  85               7.31971881E+01   4.91869068E+00   3553.40484385    3.47245947E-05   1.00260684E+19   3.83318276E+07   1.84269871E+09   2.05062785E+07   0.10816476      
  86               8.61913133E+01   5.33848008E+00   3585.00671494    3.72361836E-05   1.07858281E+19   3.40039958E+07   1.84702808E+09   1.93388344E+07   0.1084658       
  87               1.01492184E+02   5.79342436E+00   3617.10420847    3.99199350E-05   1.16011264E+19   3.01608202E+07   1.85087300E+09   1.81588217E+07   0.10879288      
  88               1.19509299E+02   6.28655827E+00   3649.38227667    4.27953240E-05   1.24772658E+19   2.67185312E+07   1.85431727E+09   1.69657195E+07   0.10915566      
  89               1.40724851E+02   6.82119353E+00   3682.20668969    4.58683664E-05   1.34176991E+19   2.36648592E+07   1.85737284E+09   1.57589930E+07   0.10953267      
  90               1.65706635E+02   7.40094745E+00   3715.24437603    4.91619556E-05   1.44286525E+19   2.09391105E+07   1.86010042E+09   1.45380977E+07   0.10994009      
  91               1.95123240E+02   8.02977701E+00   3748.87831005    5.26828400E-05   1.55141498E+19   1.85338578E+07   1.86250756E+09   1.33024634E+07   0.11036133      
  92               2.29761945E+02   8.71200687E+00   3782.76003540    5.64578958E-05   1.66815060E+19   1.63893566E+07   1.86464910E+09   1.20515137E+07   0.11081468      
  93               2.70549789E+02   9.45236798E+00   3817.29132160    6.04946482E-05   1.79354036E+19   1.44973901E+07   1.86653762E+09   1.07846524E+07   0.11129581      
  94               3.18578380E+02   1.02560315E+01   3852.11524824    6.48243467E-05   1.92843904E+19   1.28091974E+07   1.86822251E+09   9.50127939E+06   0.11180562      
  95               3.75133111E+02   1.11286634E+01   3887.64233561    6.94557313E-05   2.07339738E+19   1.13193788E+07   1.86970854E+09   8.20076738E+06   0.11233239      
  96               4.41727563E+02   1.20764695E+01   3923.50269375    7.44254018E-05   2.22941989E+19   9.99101688E+06   1.87103277E+09   6.88247697E+06   0.11288246      
  97               5.20144008E+02   1.31062607E+01   3960.11966734    7.97435320E-05   2.39715620E+19   8.82044200E+06   1.87219884E+09   5.54573571E+06   0.11344346      
  98               6.12481111E+02   1.42255098E+01   3997.10975976    8.54531048E-05   2.57779042E+19   7.77825138E+06   1.87323145E+09   4.18985533E+06   0.11401005      
  99               7.21210099E+02   1.54424361E+01   4034.90211964    9.15664826E-05   2.77209843E+19   6.86270548E+06   1.87413465E+09   2.81410853E+06   0.11456937      
  100              8.49240896E+02   1.67660745E+01   4073.09883369    9.81343988E-05   2.98148262E+19   6.05097539E+06   1.87493545E+09   1.41775077E+06   0.11514055      
  101              1.00000000E+03   1.82063734E+01   4112.15121321    1.05171229E-04   3.20686154E+19   5.68854599E+06   1.87529160E+09   0.00000000E+00   0.11574859      
