# ATMO pressure-temperature profile
# Effective temperature = 1500.0K
# log(g) = 3.0cm/s^2
# M/H = 0.0
# Optical depth grid in band 17 (1.20-1.33microns)
# All parameters in cgs units
#
# Model Level      Optical Depth    Pressure         Temperature      Density          Number Density   Rad Flux         Conv Flux        Radial Extension Adiabatic Gradient
#                                   [Ba]             [K]              [g/cm^3]         [/cm^3]          [ergs/s/cm^2/sr] [ergs/s/cm^2/sr] [cm]             [K/Ba]          
  1                1.00000000E-05   1.00000000E-05   567.99117948     4.98990272E-10   1.27521745E+14   2.87038346E+08   0.00000000E+00   6.55254217E+08   0.29789804      
  2                1.20226443E-05   1.33412442E-05   619.62264140     6.09898918E-10   1.55953417E+14   2.87038346E+08   0.00000000E+00   6.49191599E+08   0.29798704      
  3                1.44543977E-05   1.93677360E-05   637.29374392     8.60816347E-10   2.20122806E+14   2.87038346E+08   0.00000000E+00   6.40874265E+08   0.29791448      
  4                1.73780083E-05   2.72058370E-05   657.46124690     1.17204917E-09   2.99721413E+14   2.87038346E+08   0.00000000E+00   6.33070798E+08   0.29776499      
  5                2.08929613E-05   3.68918272E-05   666.60634873     1.56753055E-09   4.00854312E+14   2.87038347E+08   0.00000000E+00   6.25924796E+08   0.29767593      
  6                2.51188643E-05   4.86156137E-05   682.69548485     2.01695309E-09   5.15791976E+14   2.87038347E+08   0.00000000E+00   6.19331333E+08   0.2974787       
  7                3.01995172E-05   6.27535541E-05   689.59542586     2.57746867E-09   6.59128051E+14   2.87038347E+08   0.00000000E+00   6.13130619E+08   0.29738376      
  8                3.63078055E-05   7.97026899E-05   704.12932954     3.20600724E-09   8.19872621E+14   2.87038347E+08   0.00000000E+00   6.07234456E+08   0.29714701      
  9                4.36515832E-05   1.00005076E-04   709.90010024     3.98998489E-09   1.02035347E+15   2.87038347E+08   0.00000000E+00   6.01557972E+08   0.29704836      
  10               5.24807460E-05   1.24251790E-04   723.68410589     4.86290902E-09   1.24359641E+15   2.87038347E+08   0.00000000E+00   5.96053447E+08   0.29710771      
  11               6.30957344E-05   1.53203128E-04   728.84825252     5.95354227E-09   1.52249668E+15   2.87038347E+08   0.00000000E+00   5.90672819E+08   0.29703833      
  12               7.58577575E-05   1.87708833E-04   742.33643019     7.16186648E-09   1.83151203E+15   2.87038347E+08   0.00000000E+00   5.85388480E+08   0.29682309      
  13               9.12010839E-05   2.28833533E-04   747.20350086     8.67411730E-09   2.21823017E+15   2.87038347E+08   0.00000000E+00   5.80170804E+08   0.29675289      
  14               1.09647820E-04   2.77783918E-04   760.69076147     1.03428991E-08   2.64499465E+15   2.87038347E+08   0.00000000E+00   5.75002800E+08   0.29652041      
  15               1.31825674E-04   3.36068796E-04   765.42726650     1.24356830E-08   3.18016827E+15   2.87038347E+08   0.00000000E+00   5.69863546E+08   0.29644789      
  16               1.58489319E-04   4.05413227E-04   778.98799336     1.47405392E-08   3.76958022E+15   2.87038347E+08   0.00000000E+00   5.64741769E+08   0.29619873      
  17               1.90546072E-04   4.87929489E-04   783.61550541     1.76360805E-08   4.51003472E+15   2.87038347E+08   0.00000000E+00   5.59623985E+08   0.29612331      
  18               2.29086765E-04   5.86033990E-04   797.31322127     2.08184667E-08   5.32377484E+15   2.87038347E+08   0.00000000E+00   5.54504050E+08   0.29585371      
  19               2.75422870E-04   7.02675595E-04   801.91014963     2.48191046E-08   6.34680272E+15   2.87038347E+08   0.00000000E+00   5.49372646E+08   0.29577364      
  20               3.31131121E-04   8.41285602E-04   815.85832444     2.92067420E-08   7.46886392E+15   2.87038346E+08   0.00000000E+00   5.44224389E+08   0.29548235      
  21               3.98107171E-04   1.00599531E-03   820.52679982     3.47263845E-08   8.88032834E+15   2.87038346E+08   0.00000000E+00   5.39052514E+08   0.29539609      
  22               4.78630092E-04   1.20158557E-03   834.82028210     4.07676533E-08   1.04252758E+16   2.87038346E+08   0.00000000E+00   5.33854232E+08   0.29507992      
  23               5.75439937E-04   1.43381783E-03   839.63217113     4.83682982E-08   1.23688905E+16   2.87038346E+08   0.00000000E+00   5.28624440E+08   0.2949852       
  24               6.91830971E-04   1.70938017E-03   854.41912241     5.66658379E-08   1.44908393E+16   2.87038346E+08   0.00000000E+00   5.23360886E+08   0.29463929      
  25               8.31763771E-04   2.03632342E-03   859.53143517     6.71027590E-08   1.71597451E+16   2.87038346E+08   0.00000000E+00   5.18058863E+08   0.29453265      
  26               1.00000000E-03   2.42395417E-03   874.93571260     7.84695988E-08   2.00666141E+16   2.87038346E+08   0.00000000E+00   5.12716941E+08   0.29415431      
  27               1.20226443E-03   2.88346275E-03   880.46860033     9.27588279E-08   2.37206351E+16   2.87038346E+08   0.00000000E+00   5.07330953E+08   0.29403185      
  28               1.44543977E-03   3.42774628E-03   896.64927179     1.08277618E-07   2.76892956E+16   2.87038346E+08   0.00000000E+00   5.01899969E+08   0.29361365      
  29               1.73780083E-03   4.07230774E-03   902.75676277     1.27768520E-07   3.26735015E+16   2.87038346E+08   0.00000000E+00   4.96419937E+08   0.29347014      
  30               2.08929613E-03   4.83483524E-03   919.74783701     1.48889775E-07   3.80748976E+16   2.87038346E+08   0.00000000E+00   4.90891385E+08   0.2930102       
  31               2.51188643E-03   5.73672091E-03   926.51833651     1.75373050E-07   4.48472216E+16   2.87038346E+08   0.00000000E+00   4.85310056E+08   0.2928422       
  32               3.01995172E-03   6.80302181E-03   944.64195543     2.03979159E-07   5.21627492E+16   2.87038346E+08   0.00000000E+00   4.79672307E+08   0.29232864      
  33               3.63078055E-03   8.06412011E-03   952.44872234     2.39810081E-07   6.13255178E+16   2.87038346E+08   0.00000000E+00   4.73970371E+08   0.29212344      
  34               4.36515832E-03   9.55448139E-03   971.95090933     2.78428031E-07   7.12014156E+16   2.87038345E+08   0.00000000E+00   4.68202685E+08   0.29153506      
  35               5.24807460E-03   1.13155645E-02   980.93164943     3.26729434E-07   8.35532438E+16   2.87038345E+08   0.00000000E+00   4.62363809E+08   0.29172065      
  36               6.30957344E-03   1.33939052E-02   1002.08019458    3.78576614E-07   9.68123094E+16   2.87038345E+08   0.00000000E+00   4.56454375E+08   0.29106093      
  37               7.58577575E-03   1.58451688E-02   1012.70565643    4.43162495E-07   1.13328587E+17   2.87038345E+08   0.00000000E+00   4.50469823E+08   0.29066281      
  38               9.12010839E-03   1.87305780E-02   1035.99098045    5.12086110E-07   1.30954686E+17   2.87038344E+08   0.00000000E+00   4.44412864E+08   0.28974003      
  39               1.09647820E-02   2.21219851E-02   1048.68323607    5.97485859E-07   1.52793757E+17   2.87038343E+08   0.00000000E+00   4.38281676E+08   0.28924663      
  40               1.31825674E-02   2.60963506E-02   1074.65494749    6.87792184E-07   1.75888148E+17   2.87038343E+08   0.00000000E+00   4.32081906E+08   0.28822646      
  41               1.58489319E-02   3.07415869E-02   1090.21952145    7.98654028E-07   2.04238761E+17   2.87038342E+08   0.00000000E+00   4.25814327E+08   0.28765792      
  42               1.90546072E-02   3.61481397E-02   1119.66220697    9.14416762E-07   2.33843215E+17   2.87038341E+08   0.00000000E+00   4.19487744E+08   0.28657557      
  43               2.29086765E-02   4.24171180E-02   1138.70496709    1.05505459E-06   2.69808596E+17   2.87038337E+08   0.00000000E+00   4.13105296E+08   0.28598329      
  44               2.75422870E-02   4.96641368E-02   1172.27958122    1.19992983E-06   3.06858057E+17   2.87038335E+08   0.00000000E+00   4.06664432E+08   0.28488193      
  45               3.31131121E-02   5.80164756E-02   1195.78195247    1.37417869E-06   3.51418959E+17   2.87038330E+08   0.00000000E+00   4.00160011E+08   0.28418943      
  46               3.98107171E-02   6.76020094E-02   1234.49367832    1.55100807E-06   3.96640059E+17   2.87038321E+08   0.00000000E+00   3.93594208E+08   0.28289834      
  47               4.78630092E-02   7.85483870E-02   1263.24004446    1.76114267E-06   4.50378061E+17   2.87038306E+08   0.00000000E+00   3.86971034E+08   0.28189244      
  48               5.75439937E-02   9.09719220E-02   1307.79541814    1.97020623E-06   5.03840876E+17   2.87038270E+08   0.00000000E+00   3.80301545E+08   0.280095        
  49               6.91830971E-02   1.04958775E-01   1342.90959927    2.21370090E-06   5.66106076E+17   2.87038219E+08   0.00000000E+00   3.73604161E+08   0.27876115      
  50               8.31763771E-02   1.20501715E-01   1395.48043026    2.44589654E-06   6.25453917E+17   2.86974083E+08   8.03729599E+04   3.66924435E+08   0.27713622      
  51               1.00000000E-01   1.37266539E-01   1446.59349246    2.68818543E-06   6.87296318E+17   2.84641192E+08   2.42892191E+06   3.60386172E+08   0.27517216      
  52               1.20226443E-01   1.54840699E-01   1495.17763082    2.93484848E-06   7.50098286E+17   2.80589707E+08   6.48784922E+06   3.54129155E+08   0.27296788      
  53               1.44543977E-01   1.72911692E-01   1540.71478234    3.18128004E-06   8.12882829E+17   2.75068803E+08   1.20292895E+07   3.48214890E+08   0.27084876      
  54               1.73780083E-01   1.90601827E-01   1581.77520989    3.41730177E-06   8.72786727E+17   2.68262878E+08   1.88583065E+07   3.42849468E+08   0.26883668      
  55               2.08929613E-01   2.06271197E-01   1615.58432638    3.62616569E-06   9.24772269E+17   2.61090115E+08   2.59134813E+07   3.38397572E+08   0.26725442      
  56               2.51188643E-01   2.19700138E-01   1643.02908353    3.79765820E-06   9.68525186E+17   2.55030041E+08   3.20016042E+07   3.34778808E+08   0.26581122      
  57               3.01995172E-01   2.34959528E-01   1672.52448708    3.98955250E-06   1.01752811E+18   2.48909142E+08   3.82788333E+07   3.30858525E+08   0.26427531      
  58               3.63078055E-01   2.48816136E-01   1698.00552119    4.16512143E-06   1.06136627E+18   2.43455408E+08   4.34827160E+07   3.27458848E+08   0.26292276      
  59               4.36515832E-01   2.60355479E-01   1718.30670391    4.30669282E-06   1.09746803E+18   2.38948776E+08   4.78731735E+07   3.24734293E+08   0.26176761      
  60               5.24807460E-01   2.73518416E-01   1740.63676768    4.46625076E-06   1.13816247E+18   2.33942171E+08   5.30195884E+07   3.21732992E+08   0.26043981      
  61               6.30957344E-01   2.88459064E-01   1764.83471704    4.64545451E-06   1.18387539E+18   2.28249543E+08   5.87266447E+07   3.18452914E+08   0.25889575      
  62               7.58577575E-01   3.05322760E-01   1790.96217002    4.84506702E-06   1.23480565E+18   2.21709346E+08   6.52835680E+07   3.14898327E+08   0.25713481      
  63               9.12010839E-01   3.24225147E-01   1818.72838653    5.06616796E-06   1.29123322E+18   2.14185292E+08   7.28244666E+07   3.11083036E+08   0.25520529      
  64               1.09647820E+00   3.45209161E-01   1848.01949025    5.30815794E-06   1.35301186E+18   2.05673224E+08   8.13340492E+07   3.07036554E+08   0.25306757      
  65               1.31825674E+00   3.68247154E-01   1878.33512676    5.57050348E-06   1.42001247E+18   1.96561593E+08   9.04288270E+07   3.02799866E+08   0.25064386      
  66               1.58489319E+00   3.93704045E-01   1909.97729013    5.85624746E-06   1.49302649E+18   1.87402515E+08   9.95956554E+07   2.98342795E+08   0.24794609      
  67               1.90546072E+00   4.22206966E-01   1943.17176642    6.17204873E-06   1.57376558E+18   1.78087367E+08   1.08933677E+08   2.93601833E+08   0.24496176      
  68               2.29086765E+00   4.54050200E-01   1977.94304039    6.51969813E-06   1.66270778E+18   1.68339346E+08   1.18697553E+08   2.88581985E+08   0.24163228      
  69               2.75422870E+00   4.89560137E-01   2013.99312761    6.90224050E-06   1.76065353E+18   1.58111382E+08   1.28941363E+08   2.83288481E+08   0.23784513      
  70               3.31131121E+00   5.29101791E-01   2051.30330914    7.32208577E-06   1.86825086E+18   1.47457169E+08   1.39608131E+08   2.77726300E+08   0.23371513      
  71               3.98107171E+00   5.73085980E-01   2089.59546865    7.78291650E-06   1.98647638E+18   1.36488320E+08   1.50583696E+08   2.71899755E+08   0.22928954      
  72               4.78630092E+00   6.21972339E-01   2128.86550824    8.28778973E-06   2.11616089E+18   1.25328212E+08   1.61746655E+08   2.65812789E+08   0.22462932      
  73               5.75439937E+00   6.76273285E-01   2168.84453580    8.84116553E-06   2.25849768E+18   1.14095714E+08   1.72978682E+08   2.59469164E+08   0.21977039      
  74               6.91830971E+00   7.36559370E-01   2209.54079719    9.44681810E-06   2.41452426E+18   1.02915755E+08   1.84153736E+08   2.52872499E+08   0.21471983      
  75               8.31763771E+00   8.03464887E-01   2250.67778930    1.01101919E-05   2.58570763E+18   9.19214976E+07   1.95141942E+08   2.46026372E+08   0.20946873      
  76               1.00000000E+01   8.77695704E-01   2292.26078269    1.08359880E-05   2.77335707E+18   8.11899964E+07   2.05863636E+08   2.38934247E+08   0.20391437      
  77               1.20226443E+01   9.59902852E-01   2333.89414318    1.16310761E-05   2.97901004E+18   7.09694848E+07   2.16067624E+08   2.31611328E+08   0.1983596       
  78               1.44543977E+01   1.05095230E+00   2375.72533298    1.24984418E-05   3.20414836E+18   6.16954066E+07   2.25329243E+08   2.24059596E+08   0.1929969       
  79               1.73780083E+01   1.15193948E+00   2417.57011279    1.34483358E-05   3.45125004E+18   5.34588240E+07   2.33556212E+08   2.16270059E+08   0.18777375      
  80               2.08929613E+01   1.26390589E+00   2459.54238604    1.44869551E-05   3.72208482E+18   4.61171283E+07   2.40889141E+08   2.08248237E+08   0.1826789       
  81               2.51188643E+01   1.38798070E+00   2501.37256756    1.56233144E-05   4.01911918E+18   3.96202911E+07   2.47379256E+08   2.00000839E+08   0.17785329      
  82               3.01995172E+01   1.52540910E+00   2543.25519364    1.68641489E-05   4.34432425E+18   3.39992359E+07   2.52988519E+08   1.91534093E+08   0.1733163       
  83               3.63078055E+01   1.67755371E+00   2584.94006464    1.82199395E-05   4.70058375E+18   2.91761240E+07   2.57796899E+08   1.82854288E+08   0.16889814      
  84               4.36515832E+01   1.84589461E+00   2626.55730024    1.96990199E-05   5.09032911E+18   2.50786292E+07   2.61878946E+08   1.73968352E+08   0.16476016      
  85               5.24807460E+01   2.03202892E+00   2667.93581252    2.13126929E-05   5.51671245E+18   2.15940435E+07   2.65348206E+08   1.64883990E+08   0.16097317      
  86               6.30957344E+01   2.23766285E+00   2709.25377586    2.30696112E-05   5.98233603E+18   1.86084693E+07   2.68320448E+08   1.55610033E+08   0.15735183      
  87               7.58577575E+01   2.46462482E+00   2750.24625904    2.49831593E-05   6.49090234E+18   1.60349828E+07   2.70886405E+08   1.46155963E+08   0.15392605      
  88               9.12010839E+01   2.71487161E+00   2791.12165025    2.70625551E-05   7.04524937E+18   1.38319310E+07   2.73088595E+08   1.36531642E+08   0.15076746      
  89               1.09647820E+02   2.99049006E+00   2831.65622035    2.93222385E-05   7.64940537E+18   1.19461633E+07   2.74979014E+08   1.26747228E+08   0.14798487      
  90               1.31825674E+02   3.29369517E+00   2872.13610582    3.17709545E-05   8.30623523E+18   1.03308564E+07   2.76603668E+08   1.16813040E+08   0.14543113      
  91               1.58489319E+02   3.62685569E+00   2912.26390472    3.44255462E-05   9.02039153E+18   8.94144644E+06   2.78008588E+08   1.06738915E+08   0.14309992      
  92               1.90546072E+02   3.99252601E+00   2952.34762691    3.72953565E-05   9.79503746E+18   7.75514008E+06   2.79215574E+08   9.65334873E+07   0.14096743      
  93               2.29086765E+02   4.39343857E+00   2992.08371106    4.03996164E-05   1.06354693E+19   6.73544068E+06   2.80260616E+08   8.62048570E+07   0.13907049      
  94               2.75422870E+02   4.83250781E+00   3031.82127340    4.37475781E-05   1.15450232E+19   5.85679196E+06   2.81169770E+08   7.57606269E+07   0.13731046      
  95               3.31131121E+02   5.31270231E+00   3071.19044766    4.73606820E-05   1.25295240E+19   5.09042991E+06   2.81971484E+08   6.52109311E+07   0.1357017       
  96               3.98107171E+02   5.83720036E+00   3110.56006146    5.12472553E-05   1.35922655E+19   4.42654674E+06   2.82672226E+08   5.45643959E+07   0.13423382      
  97               4.78630092E+02   6.40949040E+00   3149.56610797    5.54324561E-05   1.47400383E+19   3.84826769E+06   2.83287806E+08   4.38267970E+07   0.13295859      
  98               5.75439937E+02   7.03339687E+00   3188.64080515    5.99253065E-05   1.59766369E+19   3.34925785E+06   2.83821312E+08   3.30014800E+07   0.13184266      
  99               6.91830971E+02   7.71313594E+00   3227.41090485    6.47562021E-05   1.73102190E+19   2.91573132E+06   2.84288628E+08   2.20894783E+07   0.13085962      
  100              8.31763771E+02   8.45336312E+00   3266.32073285    6.99363467E-05   1.87454788E+19   2.54179337E+06   2.84634717E+08   1.10897775E+07   0.12996635      
  101              1.00000000E+03   9.25920206E+00   3304.97480085    7.55028376E-05   2.02922988E+19   2.36054517E+06   2.84772983E+08   0.00000000E+00   0.12918229      
