# ATMO pressure-temperature profile
# Effective temperature = 2300.0K
# log(g) = 4.0cm/s^2
# M/H = 0.0
# Optical depth grid in band 17 (1.20-1.33microns)
# All parameters in cgs units
#
# Model Level      Optical Depth    Pressure         Temperature      Density          Number Density   Rad Flux         Conv Flux        Radial Extension Adiabatic Gradient
#                                   [Ba]             [K]              [g/cm^3]         [/cm^3]          [ergs/s/cm^2/sr] [ergs/s/cm^2/sr] [cm]             [K/Ba]          
  1                8.00000000E-05   1.00000000E-05   882.91202790     3.20793072E-10   8.20367424E+13   1.58667259E+09   0.00000000E+00   1.06449292E+08   0.29207878      
  2                9.42017752E-05   3.26643593E-04   1023.80605107    9.03646975E-09   2.31090606E+15   1.58667256E+09   0.00000000E+00   8.78515960E+07   0.29006336      
  3                1.10924681E-04   6.43142405E-04   1091.47797981    1.66891568E-08   4.26793706E+15   1.58667253E+09   0.00000000E+00   8.52743511E+07   0.28751664      
  4                1.30616273E-04   9.86711477E-04   1121.60667253    2.49167692E-08   6.37199513E+15   1.58667249E+09   0.00000000E+00   8.35895407E+07   0.28679593      
  5                1.53803560E-04   1.36808746E-03   1161.56443231    3.33589845E-08   8.53093037E+15   1.58667246E+09   0.00000000E+00   8.22667193E+07   0.28507522      
  6                1.81107105E-04   1.79623968E-03   1179.93448068    4.31169965E-08   1.10263616E+16   1.58667241E+09   0.00000000E+00   8.11377879E+07   0.28472551      
  7                2.13257635E-04   2.28014047E-03   1212.56909114    5.32597647E-08   1.36201205E+16   1.58667236E+09   0.00000000E+00   8.01279936E+07   0.28321573      
  8                2.51115597E-04   2.82869831E-03   1226.95805526    6.52981272E-08   1.66987035E+16   1.58667229E+09   0.00000000E+00   7.91978019E+07   0.28300048      
  9                2.95694188E-04   3.45153117E-03   1256.68642505    7.77919530E-08   1.98934779E+16   1.58667222E+09   0.00000000E+00   7.83239160E+07   0.28155095      
  10               3.48186468E-04   4.15914274E-03   1269.50085278    9.27943184E-08   2.37299415E+16   1.58667213E+09   0.00000000E+00   7.74910654E+07   0.28138788      
  11               4.09997292E-04   4.96107438E-03   1298.02257792    1.08259355E-07   2.76833938E+16   1.58667202E+09   0.00000000E+00   7.66909612E+07   0.27995537      
  12               4.82780909E-04   5.87013601E-03   1310.25549347    1.26900005E-07   3.24502475E+16   1.58667188E+09   0.00000000E+00   7.59153755E+07   0.27981464      
  13               5.68485234E-04   6.89458548E-03   1338.47856722    1.45921728E-07   3.73097706E+16   1.58667173E+09   0.00000000E+00   7.51625288E+07   0.27831522      
  14               6.69403978E-04   8.04582667E-03   1350.73313235    1.68739618E-07   4.31446509E+16   1.58667154E+09   0.00000000E+00   7.44288638E+07   0.27817236      
  15               7.88238038E-04   9.31287435E-03   1379.06219872    1.91376803E-07   4.89131609E+16   1.58667130E+09   0.00000000E+00   7.37237464E+07   0.27663099      
  16               9.28167781E-04   1.07069676E-02   1391.71335204    2.18023250E-07   5.57240322E+16   1.58667101E+09   0.00000000E+00   7.30412572E+07   0.27807935      
  17               1.09293816E-03   1.22645782E-02   1420.50445494    2.44722434E-07   6.25368289E+16   1.58667072E+09   0.00000000E+00   7.23669142E+07   0.27558816      
  18               1.28695893E-03   1.39826369E-02   1433.70622937    2.76432295E-07   7.06406598E+16   1.58667038E+09   0.00000000E+00   7.17063626E+07   0.27531883      
  19               1.51542270E-03   1.58678710E-02   1463.11319087    3.07499002E-07   7.85536870E+16   1.58666997E+09   0.00000000E+00   7.10597266E+07   0.27325296      
  20               1.78444386E-03   1.79286136E-02   1477.71676871    3.43988129E-07   8.78782389E+16   1.58666918E+09   0.00000000E+00   7.04261046E+07   0.27291666      
  21               2.10122224E-03   2.00064102E-02   1508.01760442    3.76602616E-07   9.60923017E+16   1.58666878E+09   0.00000000E+00   6.98487524E+07   0.27048279      
  22               2.47423582E-03   2.20347073E-02   1522.47736762    4.10836850E-07   1.04829202E+17   1.58666888E+09   0.00000000E+00   6.93331021E+07   0.27003912      
  23               2.91346758E-03   2.41912858E-02   1552.64023667    4.42496887E-07   1.12853220E+17   1.58666713E+09   0.00000000E+00   6.88272983E+07   0.26737185      
  24               3.43067273E-03   2.62604926E-02   1567.33183010    4.76256219E-07   1.21357817E+17   1.58666783E+09   0.00000000E+00   6.83765026E+07   0.26700244      
  25               4.03969326E-03   2.82891643E-02   1591.39413357    5.05276819E-07   1.28756216E+17   1.58666864E+09   0.00000000E+00   6.79629535E+07   0.26488153      
  26               4.75682846E-03   3.05737504E-02   1604.48148166    5.41620220E-07   1.38019308E+17   1.58666819E+09   0.00000000E+00   6.75262412E+07   0.26463184      
  27               5.60127107E-03   3.31408386E-02   1630.36010604    5.77755782E-07   1.47233214E+17   1.58666892E+09   0.00000000E+00   6.70673374E+07   0.26260361      
  28               6.59562098E-03   3.60161818E-02   1645.61729725    6.22047463E-07   1.58523870E+17   1.58666911E+09   0.00000000E+00   6.65877079E+07   0.26223033      
  29               7.76649006E-03   3.92267966E-02   1673.82565799    6.66044605E-07   1.69745575E+17   1.58666964E+09   0.00000000E+00   6.60889090E+07   0.25963692      
  30               9.14521438E-03   4.27962184E-02   1691.82556464    7.18893840E-07   1.83221170E+17   1.58666933E+09   0.00000000E+00   6.55730702E+07   0.25890006      
  31               1.07686929E-02   4.67440377E-02   1723.07112132    7.70906306E-07   1.96493804E+17   1.58666978E+09   0.00000000E+00   6.50427659E+07   0.25551637      
  32               1.26803748E-02   5.10699780E-02   1744.90074316    8.31660602E-07   2.11992640E+17   1.58666942E+09   0.00000000E+00   6.45025005E+07   0.2543125       
  33               1.49314227E-02   5.56937606E-02   1781.58133755    8.88160050E-07   2.26426226E+17   1.58667087E+09   0.00000000E+00   6.39645023E+07   0.24981997      
  34               1.75820816E-02   6.05599143E-02   1806.76948441    9.52193002E-07   2.42777450E+17   1.58667095E+09   0.00000000E+00   6.34353525E+07   0.24785323      
  35               2.07032912E-02   6.59485273E-02   1837.48980117    1.01941682E-06   2.59959686E+17   1.58667136E+09   0.00000000E+00   6.28884118E+07   0.24353401      
  36               2.43785848E-02   7.19129615E-02   1863.26564524    1.09606973E-06   2.79549189E+17   1.58667140E+09   0.00000000E+00   6.23241568E+07   0.24143457      
  37               2.87063246E-02   7.85067798E-02   1895.86325248    1.17572100E-06   2.99934204E+17   1.58667180E+09   0.00000000E+00   6.17433013E+07   0.23635417      
  38               3.38023342E-02   8.57783544E-02   1925.01889740    1.26486488E-06   3.22751711E+17   1.58667099E+09   0.00000000E+00   6.11470131E+07   0.23352104      
  39               3.98029987E-02   9.37587396E-02   1964.97396584    1.35387508E-06   3.45605623E+17   1.58599303E+09   9.89597962E+05   6.05371712E+07   0.22753891      
  40               4.68689142E-02   1.02457211E-01   2004.44886778    1.44963801E-06   3.70231516E+17   1.58291557E+09   3.67231704E+06   5.99162605E+07   0.22123981      
  41               5.51891865E-02   1.11951861E-01   2043.62361229    1.55271744E-06   3.96785914E+17   1.57749141E+09   9.07789690E+06   5.92833986E+07   0.21456617      
  42               6.49864917E-02   1.22331585E-01   2082.20231626    1.66413564E-06   4.25541104E+17   1.56957431E+09   1.69798848E+07   5.86376676E+07   0.20776417      
  43               7.65230361E-02   1.33695897E-01   2120.44368767    1.78456197E-06   4.56685449E+17   1.55897552E+09   2.75640923E+07   5.79782053E+07   0.20119983      
  44               9.01075730E-02   1.46153509E-01   2158.15355743    1.91509654E-06   4.90515511E+17   1.54547306E+09   4.10533458E+07   5.73043276E+07   0.19470062      
  45               1.06103667E-01   1.59823855E-01   2195.51102821    2.05658019E-06   5.27268490E+17   1.52884152E+09   5.76746986E+07   5.66154861E+07   0.18835468      
  46               1.24939422E-01   1.74837854E-01   2232.33049776    2.21027695E-06   5.67286977E+17   1.50886528E+09   7.76447171E+07   5.59112659E+07   0.18225166      
  47               1.47118942E-01   1.91338671E-01   2268.81886736    2.37713066E-06   6.10841829E+17   1.48532079E+09   1.01187033E+08   5.51913790E+07   0.17633018      
  48               1.73235819E-01   2.09482960E-01   2304.74924417    2.55864098E-06   6.58340936E+17   1.45799318E+09   1.28515613E+08   5.44556504E+07   0.17044         
  49               2.03989021E-01   2.29387733E-01   2340.16967105    2.75575460E-06   7.09984197E+17   1.42668575E+09   1.59826798E+08   5.37060094E+07   0.16495908      
  50               2.40201599E-01   2.51236816E-01   2375.02552170    2.96948287E-06   7.66197693E+17   1.39148962E+09   1.95029321E+08   5.29422059E+07   0.1600365       
  51               2.82842712E-01   2.75288027E-01   2409.62599450    3.20187455E-06   8.27491464E+17   1.35254759E+09   2.33979823E+08   5.21621896E+07   0.15549649      
  52               3.33053570E-01   3.01757172E-01   2443.80919064    3.45475052E-06   8.94367784E+17   1.30972667E+09   2.76809981E+08   5.13663259E+07   0.15118468      
  53               3.92177970E-01   3.30877065E-01   2477.72019863    3.72955744E-06   9.67253352E+17   1.26297406E+09   3.23577964E+08   5.05550619E+07   0.14723307      
  54               4.61798262E-01   3.62870428E-01   2511.22861777    4.02798648E-06   1.04662515E+18   1.21211203E+09   3.74459513E+08   4.97296009E+07   0.14366232      
  55               5.43777701E-01   3.98016139E-01   2544.51813939    4.35168111E-06   1.13297668E+18   1.15726456E+09   4.29319335E+08   4.88901232E+07   0.14039759      
  56               6.40310309E-01   4.36614517E-01   2577.46896364    4.70297563E-06   1.22696046E+18   1.09864721E+09   4.87943976E+08   4.80368985E+07   0.13734493      
  57               7.53979598E-01   4.78987750E-01   2610.22500138    5.08375223E-06   1.32914481E+18   1.03658403E+09   5.50010367E+08   4.71702913E+07   0.13456435      
  58               8.87827707E-01   5.25478504E-01   2642.69104162    5.49651243E-06   1.44023845E+18   9.71447446E+08   6.15146513E+08   4.62907832E+07   0.13204055      
  59               1.04543683E+00   5.76450475E-01   2675.00688472    5.94324531E-06   1.56085636E+18   9.03667502E+08   6.82920108E+08   4.53989471E+07   0.12980296      
  60               1.23102506E+00   6.32288268E-01   2707.09063067    6.42658914E-06   1.69175772E+18   8.33703947E+08   7.52869934E+08   4.44954329E+07   0.12770717      
  61               1.44955933E+00   6.93400768E-01   2739.01650817    6.94883739E-06   1.83364605E+18   7.62192464E+08   8.24361838E+08   4.35809144E+07   0.12576427      
  62               1.70688827E+00   7.60222625E-01   2770.71090830    7.51286516E-06   1.98735484E+18   6.89969091E+08   8.96560180E+08   4.26560710E+07   0.12396396      
  63               2.00989882E+00   8.33216731E-01   2802.25049245    8.12116345E-06   2.15365864E+18   6.18120461E+08   9.68379695E+08   4.17215603E+07   0.12235682      
  64               2.36670046E+00   9.12877565E-01   2833.59325876    8.77679924E-06   2.33346270E+18   5.47936255E+08   1.03852782E+09   4.07779866E+07   0.12094937      
  65               2.78684231E+00   9.99731700E-01   2864.82840866    9.48242940E-06   2.52761363E+18   4.80793211E+08   1.10562673E+09   3.98259126E+07   0.11971032      
  66               3.28156866E+00   1.09433932E+00   2895.90273869    1.02414577E-05   2.73712020E+18   4.18044341E+08   1.16832994E+09   3.88658639E+07   0.11860479      
  67               3.86411992E+00   1.19729886E+00   2926.89527294    1.10568266E-05   2.96292887E+18   3.60892868E+08   1.22543651E+09   3.78983032E+07   0.11761321      
  68               4.55008695E+00   1.30925175E+00   2957.74809478    1.19323757E-05   3.20617940E+18   3.10214177E+08   1.27607424E+09   3.69236184E+07   0.1167245       
  69               5.35782835E+00   1.43088764E+00   2988.54304460    1.28713966E-05   3.46794225E+18   2.66399396E+08   1.31985248E+09   3.59421126E+07   0.11592919      
  70               6.30896177E+00   1.56294945E+00   3019.22269438    1.38782669E-05   3.74951956E+18   2.29282440E+08   1.35693237E+09   3.49540055E+07   0.11522097      
  71               7.42894249E+00   1.70620991E+00   3049.86750117    1.49564930E-05   4.05207363E+18   1.98233034E+08   1.38796000E+09   3.39596287E+07   0.1145724       
  72               8.74774463E+00   1.86149389E+00   3080.40331147    1.61108924E-05   4.37703352E+18   1.72378134E+08   1.41380654E+09   3.29592628E+07   0.11400087      
  73               1.03006634E+01   2.02970212E+00   3110.92931681    1.73453759E-05   4.72572017E+18   1.50738645E+08   1.43544888E+09   3.19530209E+07   0.11348088      
  74               1.21292597E+01   2.21181780E+00   3141.36590702    1.86657451E-05   5.09984131E+18   1.32432866E+08   1.45376679E+09   3.09408835E+07   0.11304337      
  75               1.42824725E+01   2.40891123E+00   3171.83831454    2.00764109E-05   5.50092336E+18   1.16760043E+08   1.46945367E+09   2.99227307E+07   0.11267927      
  76               1.68179283E+01   2.62214712E+00   3202.26579348    2.15841642E-05   5.93096714E+18   1.03199261E+08   1.48302441E+09   2.88983626E+07   0.11240988      
  77               1.98034838E+01   2.85279013E+00   3232.79145337    2.31939276E-05   6.39172341E+18   9.13676408E+07   1.49486883E+09   2.78675212E+07   0.11218973      
  78               2.33190416E+01   3.10221733E+00   3263.31124819    2.49138343E-05   6.88556466E+18   8.09733646E+07   1.50527783E+09   2.68298911E+07   0.11203417      
  79               2.74586889E+01   3.37192625E+00   3293.98208133    2.67494458E-05   7.41451375E+18   7.18112529E+07   1.51445629E+09   2.57851136E+07   0.11189872      
  80               3.23332155E+01   3.66355274E+00   3324.67593754    2.87105626E-05   7.98139798E+18   6.37155133E+07   1.52256965E+09   2.47327768E+07   0.11180464      
  81               3.80730788E+01   3.97888243E+00   3355.56689182    3.08035233E-05   8.58857367E+18   5.65650355E+07   1.52973399E+09   2.36724253E+07   0.11172351      
  82               4.48318951E+01   4.31986125E+00   3386.51017910    3.30400085E-05   9.23938900E+18   5.02207282E+07   1.53608383E+09   2.26035845E+07   0.11168474      
  83               5.27905513E+01   4.68860619E+00   3417.69991613    3.54270751E-05   9.93655105E+18   4.45939120E+07   1.54172051E+09   2.15257695E+07   0.11166791      
  84               6.21620456E+01   5.08742299E+00   3448.97739192    3.79784639E-05   1.06839867E+19   3.95812021E+07   1.54674645E+09   2.04384857E+07   0.11170069      
  85               7.31971881E+01   5.51881941E+00   3480.55590786    4.07019887E-05   1.14847993E+19   3.51254929E+07   1.55121795E+09   1.93412351E+07   0.11175959      
  86               8.61913133E+01   5.98552646E+00   3512.26043389    4.36137984E-05   1.23435899E+19   3.11486194E+07   1.55521260E+09   1.82335143E+07   0.11186953      
  87               1.01492184E+02   6.49051508E+00   3544.32229399    4.67225375E-05   1.32639170E+19   2.76126642E+07   1.55876744E+09   1.71148179E+07   0.11200631      
  88               1.19509299E+02   7.03702147E+00   3576.54927978    5.00471693E-05   1.42511694E+19   2.44608170E+07   1.56192338E+09   1.59846369E+07   0.11219611      
  89               1.40724851E+02   7.62857138E+00   3609.19221168    5.35972329E-05   1.53094307E+19   2.16722470E+07   1.56471605E+09   1.48424524E+07   0.11241514      
  90               1.65706635E+02   8.26900855E+00   3642.04179134    5.73949994E-05   1.64450181E+19   1.91918323E+07   1.56720108E+09   1.36877394E+07   0.11268029      
  91               1.95123240E+02   8.96251964E+00   3675.36343916    6.14511212E-05   1.76626421E+19   1.69951492E+07   1.56940292E+09   1.25199693E+07   0.11296656      
  92               2.29761945E+02   9.71367136E+00   3708.92938585    6.57917702E-05   1.89697095E+19   1.50362518E+07   1.57136729E+09   1.13386079E+07   0.11328825      
  93               2.70549789E+02   1.05274476E+01   3743.01881253    7.04289650E-05   2.03716833E+19   1.32997185E+07   1.57310936E+09   1.01431081E+07   0.11362102      
  94               3.18578380E+02   1.14092943E+01   3777.38571550    7.53935665E-05   2.18772783E+19   1.17511901E+07   1.57465389E+09   8.93291059E+06   0.11398857      
  95               3.75133111E+02   1.23651627E+01   3812.32942385    8.06990263E-05   2.34928255E+19   1.03816727E+07   1.57601488E+09   7.70744011E+06   0.11438315      
  96               4.41727563E+02   1.34015542E+01   3847.59523655    8.63812856E-05   2.52285116E+19   9.16270900E+06   1.57722562E+09   6.46611396E+06   0.11481792      
  97               5.20144008E+02   1.45255787E+01   3883.49683303    9.24555815E-05   2.70917043E+19   8.08779401E+06   1.57829221E+09   5.20833142E+06   0.11527059      
  98               6.12481111E+02   1.57450144E+01   3919.76169334    9.89642094E-05   2.90943887E+19   7.13460458E+06   1.57923681E+09   3.93348057E+06   0.11574547      
  99               7.21210099E+02   1.70683867E+01   3956.71308156    1.05924897E-04   3.12452321E+19   6.29598170E+06   1.58006538E+09   2.64092205E+06   0.11622269      
  100              8.49240896E+02   1.85050484E+01   3994.06199292    1.13387630E-04   3.35584013E+19   5.55211012E+06   1.58078833E+09   1.32999422E+06   0.11671124      
  101              1.00000000E+03   2.00652753E+01   4032.14502057    1.21373205E-04   3.60441524E+19   5.21563043E+06   1.58110306E+09   0.00000000E+00   0.11720277      
