# ATMO pressure-temperature profile
# Effective temperature = 700.0K
# log(g) = 3.5cm/s^2
# M/H = 0.0
# Optical depth grid in band 17 (1.20-1.33microns)
# All parameters in cgs units
#
# Model Level      Optical Depth    Pressure         Temperature      Density          Number Density   Rad Flux         Conv Flux        Radial Extension Adiabatic Gradient
#                                   [Ba]             [K]              [g/cm^3]         [/cm^3]          [ergs/s/cm^2/sr] [ergs/s/cm^2/sr] [cm]             [K/Ba]          
  1                5.00000000E-05   1.00000000E-05   162.68061073     1.73439469E-09   4.45235767E+14   1.36132619E+07   0.00000000E+00   1.24809527E+08   0.32208575      
  2                5.91534807E-05   2.60413500E-05   202.27528559     3.65024980E-09   9.32494998E+14   1.36132619E+07   0.00000000E+00   1.22791506E+08   0.31438821      
  3                6.99826855E-05   4.27663829E-05   211.88853260     5.72264733E-09   1.46191091E+15   1.36132619E+07   0.00000000E+00   1.21634309E+08   0.31131564      
  4                8.27943887E-05   6.22635517E-05   225.19908539     7.83915376E-09   2.00259491E+15   1.36132619E+07   0.00000000E+00   1.20713778E+08   0.31029148      
  5                9.79515255E-05   8.51052281E-05   226.81084832     1.06388413E-08   2.71780477E+15   1.36132619E+07   0.00000000E+00   1.19922833E+08   0.30904932      
  6                1.15883473E-04   1.11918339E-04   237.29610684     1.33724986E-08   3.41614648E+15   1.36132619E+07   0.00000000E+00   1.19211957E+08   0.30983099      
  7                1.37098216E-04   1.43400724E-04   238.38364997     1.70559845E-08   4.35713201E+15   1.36132619E+07   0.00000000E+00   1.18552749E+08   0.30876598      
  8                1.62196734E-04   1.80387457E-04   248.22121873     2.06048448E-08   5.26372597E+15   1.36132619E+07   0.00000000E+00   1.17928837E+08   0.30822281      
  9                1.91890027E-04   2.23833812E-04   249.43819274     2.54427853E-08   6.49962916E+15   1.36132619E+07   0.00000000E+00   1.17328789E+08   0.30731145      
  10               2.27019260E-04   2.74882763E-04   259.05771208     3.00851995E-08   7.68558309E+15   1.36132619E+07   0.00000000E+00   1.16745306E+08   0.30683563      
  11               2.68579588E-04   3.34854578E-04   260.38502180     3.64621402E-08   9.31464016E+15   1.36132619E+07   0.00000000E+00   1.16172708E+08   0.30605978      
  12               3.17748350E-04   4.05327514E-04   269.80281295     4.25952844E-08   1.08814169E+16   1.36132619E+07   0.00000000E+00   1.15607224E+08   0.30565339      
  13               3.75918418E-04   4.88136728E-04   271.06015536     5.10596359E-08   1.30437253E+16   1.36132619E+07   0.00000000E+00   1.15045712E+08   0.30500944      
  14               4.44737657E-04   5.85472970E-04   280.14914293     5.92542431E-08   1.51371248E+16   1.36132619E+07   0.00000000E+00   1.14486114E+08   0.30468458      
  15               5.26155608E-04   6.99890442E-04   281.14193910     7.05840109E-08   1.80314340E+16   1.36132619E+07   0.00000000E+00   1.13926641E+08   0.30414994      
  16               6.22478712E-04   8.34420456E-04   290.06123077     8.15637436E-08   2.08363237E+16   1.36132619E+07   0.00000000E+00   1.13365958E+08   0.30389422      
  17               7.36435649E-04   9.92608946E-04   290.82677523     9.67711040E-08   2.47212050E+16   1.36132619E+07   0.00000000E+00   1.12802899E+08   0.30344162      
  18               8.71254639E-04   1.17864101E-03   299.75397465     1.11485523E-07   2.84801609E+16   1.36132619E+07   0.00000000E+00   1.12236522E+08   0.30323266      
  19               1.03075489E-03   1.39740084E-03   300.45404998     1.31869642E-07   3.36874997E+16   1.36132619E+07   0.00000000E+00   1.11665982E+08   0.30283714      
  20               1.21945479E-03   1.65462585E-03   309.81654231     1.51424818E-07   3.86830797E+16   1.36132619E+07   0.00000000E+00   1.11090354E+08   0.30264771      
  21               1.44269991E-03   1.95700445E-03   310.77980134     1.78542207E-07   4.56105038E+16   1.36132619E+07   0.00000000E+00   1.10508810E+08   0.30228971      
  22               1.70681442E-03   2.31242288E-03   320.73615386     2.04418950E-07   5.22209995E+16   1.36132619E+07   0.00000000E+00   1.09920497E+08   0.30211282      
  23               2.01928028E-03   2.73003527E-03   322.04103602     2.40358161E-07   6.14020515E+16   1.36132619E+07   0.00000000E+00   1.09324720E+08   0.3017924       
  24               2.38894914E-03   3.22072810E-03   332.62169722     2.74539752E-07   7.01341160E+16   1.36132619E+07   0.00000000E+00   1.08720663E+08   0.30163087      
  25               2.82629313E-03   3.79707627E-03   334.35376877     3.21991846E-07   8.22562558E+16   1.36132619E+07   0.00000000E+00   1.08107664E+08   0.3013465       
  26               3.34370152E-03   4.47422590E-03   345.46167727     3.67214333E-07   9.38088625E+16   1.36132619E+07   0.00000000E+00   1.07484930E+08   0.30120377      
  27               3.95583167E-03   5.26946601E-03   347.60071505     4.29820946E-07   1.09802388E+17   1.36132619E+07   0.00000000E+00   1.06851944E+08   0.30096139      
  28               4.68002425E-03   6.20402446E-03   359.35508801     4.89498205E-07   1.25047652E+17   1.36132619E+07   0.00000000E+00   1.06207645E+08   0.30083525      
  29               5.53679448E-03   7.30184147E-03   362.12697668     5.71706291E-07   1.46048587E+17   1.36132619E+07   0.00000000E+00   1.05551397E+08   0.30062693      
  30               6.55041330E-03   8.59328076E-03   374.77224064     6.50118305E-07   1.66080034E+17   1.36132619E+07   0.00000000E+00   1.04881525E+08   0.30051717      
  31               7.74959494E-03   1.01116809E-02   378.39044012     7.57677902E-07   1.93557071E+17   1.36132619E+07   0.00000000E+00   1.04197381E+08   0.30033286      
  32               9.16831029E-03   1.19022538E-02   392.25696776     8.60317555E-07   2.19778083E+17   1.36132619E+07   0.00000000E+00   1.03496053E+08   0.30028133      
  33               1.08467493E-02   1.40134194E-02   397.17415500     1.00037609E-06   2.55557704E+17   1.36132619E+07   0.00000000E+00   1.02776420E+08   0.30017004      
  34               1.28324595E-02   1.65192624E-02   412.65416999     1.13501610E-06   2.89954767E+17   1.36132619E+07   0.00000000E+00   1.02032763E+08   0.30002965      
  35               1.51816929E-02   1.94969302E-02   419.23490067     1.31859158E-06   3.36848523E+17   1.36132619E+07   0.00000000E+00   1.01263063E+08   0.29984125      
  36               1.79609996E-02   2.30799799E-02   436.73068993     1.49836999E-06   3.82778516E+17   1.36132619E+07   0.00000000E+00   1.00456960E+08   0.29975474      
  37               2.12491128E-02   2.74087051E-02   445.64012889     1.74381453E-06   4.45481903E+17   1.36132619E+07   0.00000000E+00   9.96101221E+07   0.2996846       
  38               2.51391797E-02   3.27379691E-02   466.35280653     1.99036957E-06   5.08467243E+17   1.36132619E+07   0.00000000E+00   9.87055262E+07   0.29963652      
  39               2.97413996E-02   3.93461416E-02   478.85144065     2.32979757E-06   5.95151033E+17   1.36132619E+07   0.00000000E+00   9.77351006E+07   0.29952461      
  40               3.51861462E-02   4.76192480E-02   501.96482195     2.68979502E-06   6.87123955E+17   1.36132619E+07   0.00000000E+00   9.66900124E+07   0.29943501      
  41               4.16276604E-02   5.79619042E-02   518.08311870     3.17212378E-06   8.10343294E+17   1.36132619E+07   0.00000000E+00   9.55703219E+07   0.29930847      
  42               4.92484201E-02   7.08723064E-02   545.16911327     3.68592456E-06   9.41610219E+17   1.36132619E+07   0.00000000E+00   9.43763509E+07   0.2991882       
  43               5.82643093E-02   8.68386451E-02   565.20380759     4.35618735E-06   1.11284275E+18   1.36132619E+07   0.00000000E+00   9.31163254E+07   0.29899291      
  44               6.89307339E-02   1.06330830E-01   596.58864294     5.05334342E-06   1.29095190E+18   1.36132619E+07   0.00000000E+00   9.18025556E+07   0.29881785      
  45               8.15498567E-02   1.29779410E-01   621.32831893     5.92212240E-06   1.51290092E+18   1.36132619E+07   0.00000000E+00   9.04470889E+07   0.29855228      
  46               9.64791575E-02   1.57533091E-01   657.00901207     6.79815058E-06   1.73670601E+18   1.36132619E+07   0.00000000E+00   8.90638814E+07   0.29823621      
  47               1.14141560E-01   1.89963041E-01   685.78926331     7.85357939E-06   2.00633880E+18   1.36132619E+07   0.00000000E+00   8.76603656E+07   0.29778526      
  48               1.35037411E-01   2.27362018E-01   725.46238747     8.88569275E-06   2.27001567E+18   1.36132619E+07   0.00000000E+00   8.62446343E+07   0.2973698       
  49               1.59758657E-01   2.69945205E-01   759.82689490     1.00728244E-05   2.57327852E+18   1.35303286E+07   8.29333205E+04   8.48212648E+07   0.2967348       
  50               1.89005613E-01   3.17999698E-01   801.40556240     1.12503632E-05   2.87408888E+18   1.33512212E+07   2.62040669E+05   8.33937651E+07   0.29608092      
  51               2.23606798E-01   3.72085215E-01   835.56369567     1.26256688E-05   3.22543794E+18   1.31363274E+07   4.76934500E+05   8.19587023E+07   0.29517653      
  52               2.64542408E-01   4.32817844E-01   877.75125777     1.39805432E-05   3.57157305E+18   1.28786307E+07   7.34631262E+05   8.05131481E+07   0.29434135      
  53               3.12972084E-01   5.00917555E-01   911.98472571     1.55728362E-05   3.97836409E+18   1.26330617E+07   9.80200298E+05   7.90536572E+07   0.29322953      
  54               3.70267763E-01   5.77490034E-01   955.20574502     1.71412670E-05   4.37898450E+18   1.24329920E+07   1.18027004E+06   7.75715619E+07   0.29225867      
  55               4.38052539E-01   6.64315661E-01   990.42698036     1.90166572E-05   4.85822772E+18   1.23720514E+07   1.24121059E+06   7.60507823E+07   0.29095524      
  56               5.18246648E-01   7.64899069E-01   1036.60255302    2.09189959E-05   5.34463065E+18   1.25137721E+07   1.09948984E+06   7.44559667E+07   0.28982523      
  57               6.13121862E-01   8.84226185E-01   1076.01110932    2.32946652E-05   5.95213066E+18   1.29498739E+07   6.63388107E+05   7.27465101E+07   0.28824087      
  58               7.25365844E-01   1.03218017E+00   1130.12905189    2.58860051E-05   6.61535742E+18   1.36132619E+07   0.00000000E+00   7.08410194E+07   0.28673514      
  59               8.58158289E-01   1.22203848E+00   1180.04995315    2.93467139E-05   7.50084741E+18   1.36132619E+07   0.00000000E+00   6.86625957E+07   0.28467963      
  60               1.01526100E+00   1.46431742E+00   1226.23417588    3.38369289E-05   8.64943326E+18   1.36132619E+07   0.00000000E+00   6.62312126E+07   0.28334031      
  61               1.20112443E+00   1.76707563E+00   1271.37781334    3.93799348E-05   1.00671456E+19   1.36132619E+07   0.00000000E+00   6.36083794E+07   0.28141621      
  62               1.42101382E+00   2.13655584E+00   1313.99424233    4.60671307E-05   1.17773240E+19   1.36132619E+07   0.00000000E+00   6.08651502E+07   0.28022535      
  63               1.68115827E+00   2.57803679E+00   1356.43909586    5.38443743E-05   1.37662183E+19   1.36132619E+07   0.00000000E+00   5.80619833E+07   0.27845492      
  64               1.98892727E+00   3.09599920E+00   1397.34903158    6.27673627E-05   1.60480320E+19   1.36132619E+07   0.00000000E+00   5.52444905E+07   0.27736971      
  65               2.35303941E+00   3.69558068E+00   1439.34356587    7.27352932E-05   1.85970499E+19   1.36132619E+07   0.00000000E+00   5.24383446E+07   0.27555278      
  66               2.78380943E+00   4.38352860E+00   1480.94060260    8.38509409E-05   2.14393712E+19   1.36132619E+07   0.00000000E+00   4.96526682E+07   0.27437082      
  67               3.29344035E+00   5.16484460E+00   1524.70992675    9.59608469E-05   2.45355541E+19   1.36132619E+07   0.00000000E+00   4.68982605E+07   0.27243523      
  68               3.89636920E+00   6.03802091E+00   1569.25214775    1.09006524E-04   2.78694065E+19   1.36132619E+07   0.00000000E+00   4.41984445E+07   0.27115725      
  69               4.60967600E+00   6.98182015E+00   1616.92140890    1.22377636E-04   3.12755953E+19   1.36132619E+07   0.00000000E+00   4.16142361E+07   0.26914604      
  70               5.45356761E+00   7.97356716E+00   1666.00043181    1.35647452E-04   3.46659724E+19   1.36132619E+07   0.00000000E+00   3.91800905E+07   0.26776979      
  71               6.45195012E+00   8.97660366E+00   1718.65243609    1.48066370E-04   3.78311752E+19   1.29726516E+07   6.40610966E+05   3.69419202E+07   0.26559801      
  72               7.63310614E+00   9.91369709E+00   1765.20952800    1.59289669E-04   4.06785273E+19   1.11049299E+07   2.50833666E+06   3.50122806E+07   0.26423669      
  73               9.03049593E+00   1.07375418E+01   1801.95509055    1.69203617E-04   4.31605276E+19   9.24097477E+06   4.37230197E+06   3.34252636E+07   0.26252609      
  74               1.06837053E+01   1.14341933E+01   1832.58943509    1.77166679E-04   4.51924816E+19   8.09906320E+06   5.51422135E+06   3.21528745E+07   0.26171258      
  75               1.26395671E+01   1.22052512E+01   1863.40106529    1.85981172E-04   4.74423531E+19   7.22704020E+06   6.38626495E+06   3.08096094E+07   0.26021799      
  76               1.49534878E+01   1.28435948E+01   1888.86732002    1.93122284E-04   4.92505382E+19   6.13932867E+06   7.47401960E+06   2.97444336E+07   0.25965263      
  77               1.76910170E+01   1.33377754E+01   1906.83294401    1.98660931E-04   5.06636638E+19   5.49233492E+06   8.12102993E+06   2.89465980E+07   0.25846894      
  78               2.09297047E+01   1.38956113E+01   1927.69767610    2.04726169E-04   5.22113081E+19   5.24715850E+06   8.36617899E+06   2.80718888E+07   0.2579875       
  79               2.47612977E+01   1.45226391E+01   1949.16484596    2.11603931E-04   5.39663212E+19   4.97232410E+06   8.64107628E+06   2.71192279E+07   0.25663562      
  80               2.92943389E+01   1.52244354E+01   1973.41380521    2.19090524E-04   5.58790321E+19   4.40488407E+06   9.20860924E+06   2.60885152E+07   0.25598437      
  81               3.46572422E+01   1.57341950E+01   1989.55847671    2.24785559E-04   5.72814047E+19   3.65563699E+06   9.96699139E+06   2.53620372E+07   0.25477083      
  82               4.10019301E+01   1.60936294E+01   2001.52721916    2.28542667E-04   5.82395934E+19   3.26145982E+06   1.03539207E+07   2.48605593E+07   0.25400616      
  83               4.85081376E+01   1.65062803E+01   2013.91582592    2.32957640E-04   5.93654466E+19   3.13230245E+06   1.04827398E+07   2.42950226E+07   0.2534544       
  84               5.73885036E+01   1.69783245E+01   2028.86004223    2.37850313E-04   6.06133907E+19   3.02870162E+06   1.05868714E+07   2.36608720E+07   0.25254945      
  85               6.78945948E+01   1.75161366E+01   2044.34621253    2.43521275E-04   6.20597066E+19   2.89276197E+06   1.07224377E+07   2.29542121E+07   0.25177736      
  86               8.03240320E+01   1.81263679E+01   2062.56051366    2.49773222E-04   6.36546201E+19   2.78309057E+06   1.08326770E+07   2.21717683E+07   0.25069733      
  87               9.50289215E+01   1.88190557E+01   2081.45091305    2.56957324E-04   6.54873617E+19   2.66077200E+06   1.09546177E+07   2.13071304E+07   0.24963953      
  88               1.12425830E+02   1.96026719E+01   2103.27322535    2.64870213E-04   6.75064730E+19   2.54958571E+06   1.10664359E+07   2.03572770E+07   0.24836215      
  89               1.33007583E+02   2.04862028E+01   2125.79726736    2.73864367E-04   6.98016137E+19   2.41846020E+06   1.11971804E+07   1.93198976E+07   0.24700484      
  90               1.57357229E+02   2.14791957E+01   2151.30807717    2.83719469E-04   7.23171407E+19   2.29718539E+06   1.13191796E+07   1.81933900E+07   0.24552808      
  91               1.86164557E+02   2.25917984E+01   2177.48072671    2.94812128E-04   7.51488472E+19   2.15972207E+06   1.14568195E+07   1.69768589E+07   0.24375653      
  92               2.20245630E+02   2.38348894E+01   2206.57843504    3.06910482E-04   7.82383370E+19   2.03118832E+06   1.15855601E+07   1.56700115E+07   0.24189725      
  93               2.60565913E+02   2.52201201E+01   2236.22903736    3.20415943E-04   8.16877075E+19   1.89185971E+06   1.17248195E+07   1.42731294E+07   0.23973111      
  94               3.08267614E+02   2.67601093E+01   2268.67324049    3.35086204E-04   8.54361706E+19   1.76221501E+06   1.18555862E+07   1.27869097E+07   0.23756771      
  95               3.64702046E+02   2.84684754E+01   2301.52955645    3.51349607E-04   8.95928789E+19   1.62311762E+06   1.19947410E+07   1.12124423E+07   0.2348767       
  96               4.31467909E+02   3.03595633E+01   2336.92699231    3.69001494E-04   9.40970948E+19   1.49500171E+06   1.21244306E+07   9.55154749E+06   0.23241334      
  97               5.10456573E+02   3.24495916E+01   2372.62038000    3.88413334E-04   9.90619375E+19   1.36619001E+06   1.22523000E+07   7.80575717E+06   0.22917212      
  98               6.03905660E+02   3.47569633E+01   2410.50654600    4.09420731E-04   1.04438193E+20   1.25384006E+06   1.23660430E+07   5.97602774E+06   0.2266293       
  99               7.14462436E+02   3.73009461E+01   2448.73554740    4.32442646E-04   1.10332587E+20   1.13822179E+06   1.24818680E+07   4.06412250E+06   0.22284126      
  100              8.45258798E+02   4.01031745E+01   2488.60021117    4.57377286E-04   1.16721123E+20   1.03591761E+06   1.25780754E+07   2.07159842E+06   0.22010569      
  101              1.00000000E+03   4.31871727E+01   2528.99772213    4.84558221E-04   1.23689312E+20   9.79039592E+05   1.26349219E+07   0.00000000E+00   0.21734311      
