# ATMO pressure-temperature profile
# Effective temperature = 700.0K
# log(g) = 3.0cm/s^2
# M/H = 0.0
# Optical depth grid in band 17 (1.20-1.33microns)
# All parameters in cgs units
#
# Model Level      Optical Depth    Pressure         Temperature      Density          Number Density   Rad Flux         Conv Flux        Radial Extension Adiabatic Gradient
#                                   [Ba]             [K]              [g/cm^3]         [/cm^3]          [ergs/s/cm^2/sr] [ergs/s/cm^2/sr] [cm]             [K/Ba]          
  1                1.00000000E-04   1.00000000E-05   179.61666880     1.57853640E-09   4.03254481E+14   1.36132619E+07   0.00000000E+00   3.88587121E+08   0.31800348      
  2                1.17489755E-04   1.86476852E-05   217.57305181     2.43008276E-09   6.20791363E+14   1.36132619E+07   0.00000000E+00   3.84171802E+08   0.31147077      
  3                1.38038426E-04   2.84599154E-05   231.90949880     3.47949570E-09   8.88875442E+14   1.36132619E+07   0.00000000E+00   3.80797383E+08   0.30855515      
  4                1.62181010E-04   3.98268871E-05   239.26183416     4.71958888E-09   1.20567089E+15   1.36132619E+07   0.00000000E+00   3.77992372E+08   0.30801604      
  5                1.90546072E-04   5.30451690E-05   248.09294957     6.06223327E-09   1.54866418E+15   1.36132619E+07   0.00000000E+00   3.75521179E+08   0.30641645      
  6                2.23872114E-04   6.84347880E-05   253.67962980     7.64878671E-09   1.95396676E+15   1.36132619E+07   0.00000000E+00   3.73261144E+08   0.306118        
  7                2.63026799E-04   8.63674909E-05   261.41726462     9.36736071E-09   2.39299547E+15   1.36132619E+07   0.00000000E+00   3.71142583E+08   0.30488692      
  8                3.09029543E-04   1.07271782E-04   266.53895929     1.14110598E-08   2.91508108E+15   1.36132619E+07   0.00000000E+00   3.69120664E+08   0.30581544      
  9                3.63078055E-04   1.31652910E-04   273.70093955     1.36381458E-08   3.48401499E+15   1.36132619E+07   0.00000000E+00   3.67166265E+08   0.30483661      
  10               4.26579519E-04   1.60102451E-04   278.31037902     1.63105904E-08   4.16672097E+15   1.36132619E+07   0.00000000E+00   3.65258773E+08   0.30467752      
  11               5.01187234E-04   1.93317959E-04   284.84438153     1.92426819E-08   4.91575675E+15   1.36132619E+07   0.00000000E+00   3.63383894E+08   0.3039146       
  12               5.88843655E-04   2.32119611E-04   288.86447211     2.27834076E-08   5.82027550E+15   1.36132619E+07   0.00000000E+00   3.61530754E+08   0.30382255      
  13               6.91830971E-04   2.77469481E-04   294.84433747     2.66823049E-08   6.81629332E+15   1.36132619E+07   0.00000000E+00   3.59691444E+08   0.30321396      
  14               8.12830516E-04   3.30496528E-04   298.42033300     3.14006977E-08   8.02166147E+15   1.36132619E+07   0.00000000E+00   3.57859483E+08   0.3031661       
  15               9.54992586E-04   3.92517882E-04   304.19428857     3.65855105E-08   9.34618194E+15   1.36132619E+07   0.00000000E+00   3.56029627E+08   0.30265275      
  16               1.12201845E-03   4.65081784E-04   307.70322143     4.28546416E-08   1.09477060E+16   1.36132619E+07   0.00000000E+00   3.54197029E+08   0.30262034      
  17               1.31825674E-03   5.49995496E-04   313.60221245     4.97256513E-08   1.27029870E+16   1.36132619E+07   0.00000000E+00   3.52357576E+08   0.30216948      
  18               1.54881662E-03   6.49396212E-04   317.27707442     5.80325039E-08   1.48250750E+16   1.36132619E+07   0.00000000E+00   3.50507184E+08   0.30213912      
  19               1.81970086E-03   7.65785019E-04   323.53119216     6.71105477E-08   1.71441733E+16   1.36132619E+07   0.00000000E+00   3.48642178E+08   0.30173707      
  20               2.13796209E-03   9.02144325E-04   327.55775696     7.80886423E-08   1.99486712E+16   1.36132619E+07   0.00000000E+00   3.46758548E+08   0.3017025       
  21               2.51188643E-03   1.06197650E-03   334.20032309     9.00964113E-08   2.30162137E+16   1.36132619E+07   0.00000000E+00   3.44853015E+08   0.30134771      
  22               2.95120923E-03   1.24949015E-03   338.50446946     1.04656785E-07   2.67358669E+16   1.36132619E+07   0.00000000E+00   3.42921956E+08   0.30131291      
  23               3.46736850E-03   1.46963403E-03   345.47277566     1.20612946E-07   3.08120937E+16   1.36132619E+07   0.00000000E+00   3.40962543E+08   0.30100929      
  24               4.07380278E-03   1.72840738E-03   350.06413884     1.39989784E-07   3.57622084E+16   1.36132619E+07   0.00000000E+00   3.38971069E+08   0.30097648      
  25               4.78630092E-03   2.03288866E-03   357.31698185     1.61308510E-07   4.12084022E+16   1.36132619E+07   0.00000000E+00   3.36944862E+08   0.3007177       
  26               5.62341325E-03   2.39172670E-03   362.20392123     1.87221125E-07   4.78282228E+16   1.36132619E+07   0.00000000E+00   3.34879992E+08   0.30068735      
  27               6.60693448E-03   2.81523982E-03   369.95362109     2.15756459E-07   5.51180639E+16   1.36132619E+07   0.00000000E+00   3.32772783E+08   0.30046785      
  28               7.76247117E-03   3.31639246E-03   375.51966814     2.50396059E-07   6.39674546E+16   1.36132619E+07   0.00000000E+00   3.30616654E+08   0.30043388      
  29               9.12010839E-03   3.91102607E-03   384.20438826     2.88617013E-07   7.37316969E+16   1.36132619E+07   0.00000000E+00   3.28404705E+08   0.3002406       
  30               1.07151931E-02   4.61954788E-03   390.78634125     3.35159986E-07   8.56221121E+16   1.36132619E+07   0.00000000E+00   3.26126636E+08   0.30020202      
  31               1.25892541E-02   5.46733004E-03   400.74263659     3.86812466E-07   9.88178907E+16   1.36132619E+07   0.00000000E+00   3.23772083E+08   0.30003291      
  32               1.47910839E-02   6.48762318E-03   408.73860706     4.50015882E-07   1.14965040E+17   1.36132619E+07   0.00000000E+00   3.21326618E+08   0.29998893      
  33               1.73780083E-02   7.72221776E-03   420.39873041     5.20793259E-07   1.33047429E+17   1.36132619E+07   0.00000000E+00   3.18776394E+08   0.29984267      
  34               2.04173794E-02   9.22621321E-03   430.20728927     6.08044123E-07   1.55335801E+17   1.36132619E+07   0.00000000E+00   3.16103691E+08   0.29979475      
  35               2.39883292E-02   1.10687118E-02   444.12500272     7.06624800E-07   1.80516830E+17   1.36132619E+07   0.00000000E+00   3.13292764E+08   0.29973199      
  36               2.81838293E-02   1.33350614E-02   456.46479733     8.28308862E-07   2.11598979E+17   1.36132619E+07   0.00000000E+00   3.10330383E+08   0.2996919       
  37               3.31131121E-02   1.61256916E-02   472.73336178     9.67177213E-07   2.47074507E+17   1.36132619E+07   0.00000000E+00   3.07212541E+08   0.29948756      
  38               3.89045145E-02   1.95546112E-02   487.57599208     1.13712276E-06   2.90491021E+17   1.36132619E+07   0.00000000E+00   3.03942889E+08   0.29937722      
  39               4.57088190E-02   2.37495705E-02   506.58165284     1.32924152E-06   3.39572212E+17   1.36132619E+07   0.00000000E+00   3.00530781E+08   0.29927666      
  40               5.37031796E-02   2.88453423E-02   524.80051804     1.55839025E-06   3.98113845E+17   1.36132619E+07   0.00000000E+00   2.96990232E+08   0.29924597      
  41               6.30957344E-02   3.49865109E-02   547.32557086     1.81237237E-06   4.62999727E+17   1.36132619E+07   0.00000000E+00   2.93336054E+08   0.29910019      
  42               7.41310241E-02   4.23128274E-02   569.05335080     2.10818919E-06   5.38573402E+17   1.36132619E+07   0.00000000E+00   2.89587984E+08   0.29897918      
  43               8.70963590E-02   5.09539750E-02   595.31649202     2.42671701E-06   6.19949045E+17   1.36132619E+07   0.00000000E+00   2.85767596E+08   0.29873222      
  44               1.02329299E-01   6.10222676E-02   620.90006704     2.78646960E-06   7.11856533E+17   1.36132619E+07   0.00000000E+00   2.81895738E+08   0.29853894      
  45               1.20226443E-01   7.26273399E-02   650.92840229     3.16339665E-06   8.08151448E+17   1.36132619E+07   0.00000000E+00   2.77986931E+08   0.29821064      
  46               1.41253754E-01   8.58925419E-02   680.63592031     3.57788825E-06   9.14042586E+17   1.36132619E+07   0.00000000E+00   2.74043957E+08   0.29791129      
  47               1.65958691E-01   1.00907789E-01   716.41778881     3.99342057E-06   1.02019730E+18   1.35291638E+07   8.40980632E+04   2.70071612E+08   0.29733833      
  48               1.94984460E-01   1.17784197E-01   747.63639311     4.46667830E-06   1.14109665E+18   1.33707738E+07   2.42488115E+05   2.66075701E+08   0.29691386      
  49               2.29086765E-01   1.36657179E-01   783.92426595     4.94250872E-06   1.26265349E+18   1.31443525E+07   4.68909399E+05   2.62058947E+08   0.29619504      
  50               2.69153480E-01   1.57765662E-01   815.24403476     5.48672592E-06   1.40168586E+18   1.28825003E+07   7.30761616E+05   2.58005466E+08   0.29571943      
  51               3.16227766E-01   1.81405410E-01   852.42420449     6.03364776E-06   1.54141756E+18   1.25878684E+07   1.02539347E+06   2.53896819E+08   0.29479922      
  52               3.71535229E-01   2.07993675E-01   884.45924329     6.66732574E-06   1.70332744E+18   1.23085366E+07   1.30472525E+06   2.49704726E+08   0.29415806      
  53               4.36515832E-01   2.38170219E-01   923.50557732     7.31165996E-06   1.86798667E+18   1.20962250E+07   1.51703690E+06   2.45382608E+08   0.29293495      
  54               5.12861384E-01   2.73144684E-01   957.96096402     8.08321403E-06   2.06524119E+18   1.20691538E+07   1.54410806E+06   2.40833011E+08   0.2921414       
  55               6.02559586E-01   3.15061301E-01   1002.16678427    8.91142153E-06   2.27709368E+18   1.23363062E+07   1.27695572E+06   2.35893902E+08   0.29063337      
  56               7.07945784E-01   3.67726223E-01   1044.43258713    9.97848215E-06   2.55017526E+18   1.29792889E+07   6.33972972E+05   2.30308478E+08   0.28956201      
  57               8.31763771E-01   4.36623472E-01   1101.47843136    1.12325847E-05   2.87115687E+18   1.36132619E+07   0.00000000E+00   2.23800214E+08   0.28749745      
  58               9.77237221E-01   5.28216716E-01   1151.87015015    1.29925788E-05   3.32150153E+18   1.36132619E+07   0.00000000E+00   2.16217865E+08   0.28602168      
  59               1.14815362E+00   6.48437976E-01   1199.14359000    1.53195174E-05   3.91672510E+18   1.36132619E+07   0.00000000E+00   2.07696230E+08   0.28410602      
  60               1.34896288E+00   7.99364960E-01   1243.73769374    1.82070374E-05   4.65524080E+18   1.36132619E+07   0.00000000E+00   1.98659106E+08   0.28267467      
  61               1.58489319E+00   9.81934019E-01   1286.80914233    2.16159705E-05   5.52705783E+18   1.36132619E+07   0.00000000E+00   1.89456243E+08   0.28083866      
  62               1.86208714E+00   1.19706859E+00   1328.11431886    2.55316414E-05   6.52843996E+18   1.36132619E+07   0.00000000E+00   1.80298570E+08   0.27960449      
  63               2.18776162E+00   1.44568697E+00   1368.78508520    2.99175807E-05   7.65006003E+18   1.36132619E+07   0.00000000E+00   1.71302936E+08   0.27799218      
  64               2.57039578E+00   1.72885128E+00   1408.82213005    3.47603882E-05   8.88847614E+18   1.36132619E+07   0.00000000E+00   1.62522138E+08   0.27681874      
  65               3.01995172E+00   2.04858758E+00   1449.44330426    4.00347279E-05   1.02371518E+19   1.36132619E+07   0.00000000E+00   1.53951118E+08   0.27506852      
  66               3.54813389E+00   2.40641998E+00   1490.58789394    4.57307940E-05   1.16933695E+19   1.36132619E+07   0.00000000E+00   1.45588168E+08   0.27379996      
  67               4.16869383E+00   2.79917423E+00   1533.39381007    5.17181212E-05   1.32221496E+19   1.36132619E+07   0.00000000E+00   1.37511985E+08   0.27197792      
  68               4.89778819E+00   3.21947438E+00   1577.75643960    5.78209604E-05   1.47798781E+19   1.36132619E+07   0.00000000E+00   1.29825877E+08   0.27061116      
  69               5.75439937E+00   3.65554325E+00   1624.70295403    6.37693734E-05   1.62968548E+19   1.36132619E+07   0.00000000E+00   1.22644320E+08   0.26870437      
  70               6.76082975E+00   4.08721074E+00   1674.07614215    6.92116745E-05   1.76838842E+19   1.27785871E+07   8.34674772E+05   1.16146600E+08   0.26688976      
  71               7.94328235E+00   4.49022859E+00   1716.37360858    7.41960326E-05   1.89488327E+19   1.10361051E+07   2.57715679E+06   1.10522438E+08   0.26533579      
  72               9.33254301E+00   4.84248755E+00   1751.11730556    7.84736249E-05   2.00299153E+19   9.43086766E+06   4.18239425E+06   1.05905831E+08   0.26400723      
  73               1.09647820E+01   5.17442640E+00   1781.85912809    8.24407888E-05   2.10336522E+19   8.20084028E+06   5.41242165E+06   1.01778833E+08   0.26295006      
  74               1.28824955E+01   5.47769796E+00   1808.80260638    8.59960884E-05   2.19347529E+19   7.19867230E+06   6.41458967E+06   9.81769473E+07   0.26179544      
  75               1.51356125E+01   5.74202526E+00   1831.08107900    8.90566588E-05   2.27134635E+19   6.45095988E+06   7.16230211E+06   9.51564683E+07   0.26090864      
  76               1.77827941E+01   5.98737722E+00   1851.28196137    9.18569151E-05   2.34255551E+19   5.93231001E+06   7.68406963E+06   9.24437372E+07   0.26015964      
  77               2.08929613E+01   6.23567032E+00   1870.79514703    9.46668544E-05   2.41425284E+19   5.58180031E+06   8.03146167E+06   8.97811131E+07   0.25938039      
  78               2.45470892E+01   6.51335780E+00   1892.16030537    9.77632051E-05   2.49329030E+19   5.20349921E+06   8.40976284E+06   8.68946252E+07   0.25845526      
  79               2.88403150E+01   6.77897632E+00   1911.62848460    1.00739741E-04   2.56854077E+19   4.65978306E+06   8.95347900E+06   8.42180071E+07   0.25753329      
  80               3.38844156E+01   6.99475550E+00   1927.22904417    1.03131593E-04   2.62884540E+19   4.14497160E+06   9.46829034E+06   8.21009652E+07   0.25680315      
  81               3.98107171E+01   7.18727186E+00   1940.55725635    1.05270806E-04   2.68264652E+19   3.80519960E+06   9.81870256E+06   8.02532546E+07   0.25630026      
  82               4.67735141E+01   7.38039134E+00   1953.92121838    1.07358344E-04   2.73588716E+19   3.60369705E+06   1.00095649E+07   7.84366756E+07   0.25567571      
  83               5.49540874E+01   7.59924786E+00   1968.41041519    1.09726207E-04   2.79628089E+19   3.45472244E+06   1.01585395E+07   7.64202301E+07   0.25502485      
  84               6.45654229E+01   7.84640097E+00   1984.67146712    1.12364237E-04   2.86356939E+19   3.30481625E+06   1.03084457E+07   7.41943746E+07   0.25423279      
  85               7.58577575E+01   8.12431239E+00   2002.13183491    1.15326465E-04   2.93913668E+19   3.14815259E+06   1.04651093E+07   7.17530360E+07   0.25339533      
  86               8.91250938E+01   8.43618206E+00   2021.45727608    1.18605048E-04   3.02278471E+19   3.00498115E+06   1.06082808E+07   6.90864399E+07   0.25242082      
  87               1.04712855E+02   8.78562196E+00   2042.07477727    1.22266218E-04   3.11620995E+19   2.86610999E+06   1.07471519E+07   6.61846371E+07   0.25140019      
  88               1.23026877E+02   9.17677520E+00   2064.67645751    1.26306173E-04   3.21931836E+19   2.73445247E+06   1.08788094E+07   6.30370217E+07   0.25022743      
  89               1.44543977E+02   9.61334956E+00   2088.60508818    1.30792267E-04   3.33383608E+19   2.59600732E+06   1.10172546E+07   5.96403370E+07   0.24898736      
  90               1.69824365E+02   1.00992718E+01   2114.51184431    1.35711514E-04   3.45943981E+19   2.45862413E+06   1.11546378E+07   5.59930678E+07   0.24757971      
  91               1.99526231E+02   1.06387211E+01   2141.67581160    1.41136855E-04   3.59800310E+19   2.31718747E+06   1.12960744E+07   5.20952406E+07   0.2461116       
  92               2.34422882E+02   1.12361594E+01   2170.76194116    1.47052641E-04   3.74913892E+19   2.17802519E+06   1.14352367E+07   4.79482123E+07   0.24451046      
  93               2.75422870E+02   1.18963712E+01   2200.99412664    1.53538838E-04   3.91490711E+19   2.03691668E+06   1.15763452E+07   4.35544311E+07   0.24283147      
  94               3.23593657E+02   1.26245051E+01   2233.05220773    1.60578030E-04   4.09488138E+19   1.89915329E+06   1.17141086E+07   3.89171871E+07   0.24096927      
  95               3.80189396E+02   1.34261277E+01   2266.09843946    1.68260125E-04   4.29138860E+19   1.76005192E+06   1.18532100E+07   3.40403606E+07   0.23897553      
  96               4.46683592E+02   1.43071301E+01   2300.83050504    1.76571467E-04   4.50395185E+19   1.62475068E+06   1.19885112E+07   2.89290567E+07   0.2368172       
  97               5.24807460E+02   1.52739533E+01   2336.36639328    1.85607217E-04   4.73517842E+19   1.49283328E+06   1.21204286E+07   2.35883950E+07   0.23458143      
  98               6.16595002E+02   1.63337505E+01   2373.45575539    1.95347977E-04   4.98460350E+19   1.36941893E+06   1.22438430E+07   1.80226054E+07   0.23219441      
  99               7.24435960E+02   1.74944709E+01   2411.17594637    2.05904867E-04   5.25530285E+19   1.25209943E+06   1.23611625E+07   1.22350973E+07   0.22974903      
  100              8.51138038E+02   1.87647163E+01   2450.33323684    2.17263595E-04   5.54680235E+19   1.14282389E+06   1.24704380E+07   6.22940812E+06   0.22717565      
  101              1.00000000E+03   2.01559794E+01   2490.01024471    2.29581741E-04   5.86311770E+19   1.08278224E+06   1.25304796E+07   0.00000000E+00   0.22457977      
