# ATMO pressure-temperature profile
# Effective temperature = 3000.0K
# log(g) = 4.5cm/s^2
# M/H = 0.0
# Optical depth grid in band 17 (1.20-1.33microns)
# All parameters in cgs units
#
# Model Level      Optical Depth    Pressure         Temperature      Density          Number Density   Rad Flux         Conv Flux        Radial Extension Adiabatic Gradient
#                                   [Ba]             [K]              [g/cm^3]         [/cm^3]          [ergs/s/cm^2/sr] [ergs/s/cm^2/sr] [cm]             [K/Ba]          
  1                5.00000000E-06   1.00000000E-05   1678.94518120    1.66432587E-10   4.31409121E+13   4.59256381E+09   0.00000000E+00   5.24549681E+07   0.27085433      
  2                6.05313423E-06   2.15319771E-05   1752.41983624    3.41350416E-10   8.89962258E+13   4.59256379E+09   0.00000000E+00   5.09247021E+07   0.26999582      
  3                7.32808679E-06   3.42881205E-05   1794.21246818    5.29268670E-10   1.38418981E+14   4.59256378E+09   0.00000000E+00   4.99756270E+07   0.26983625      
  4                8.87157859E-06   4.89315171E-05   1821.79475622    7.42856443E-10   1.94542760E+14   4.59256377E+09   0.00000000E+00   4.92371198E+07   0.26915896      
  5                1.07401712E-05   6.59498281E-05   1847.96536955    9.85333785E-10   2.58491150E+14   4.59256375E+09   0.00000000E+00   4.86080807E+07   0.2691654       
  6                1.30023396E-05   8.58493077E-05   1867.39201963    1.26851617E-09   3.32986893E+14   4.59256373E+09   0.00000000E+00   4.80452177E+07   0.26852883      
  7                1.57409813E-05   1.09208240E-04   1888.37684604    1.59375266E-09   4.18882852E+14   4.59256371E+09   0.00000000E+00   4.75257039E+07   0.087778435     
  8                1.90564546E-05   1.36689925E-04   1904.53270885    1.97727793E-09   5.19845047E+14   4.59256368E+09   0.00000000E+00   4.70361515E+07   0.091183464     
  9                2.30702555E-05   1.69074830E-04   1923.17758175    2.41958088E-09   6.36774132E+14   4.59256365E+09   0.00000000E+00   4.65679419E+07   0.088314813     
  10               2.79294706E-05   2.07271416E-04   1937.82841378    2.94327987E-09   7.74729215E+14   4.59256362E+09   0.00000000E+00   4.61153167E+07   0.091587866     
  11               3.38121669E-05   2.52352813E-04   1955.35012336    3.54815916E-09   9.34780098E+14   4.59256358E+09   0.00000000E+00   4.56741718E+07   0.088906018     
  12               4.09339169E-05   3.05571493E-04   1969.33928283    4.26543791E-09   1.12387531E+15   4.59256354E+09   0.00000000E+00   4.52415775E+07   0.091997275     
  13               4.95556987E-05   3.68406306E-04   1986.35617035    5.09422719E-09   1.34337039E+15   4.59256350E+09   0.00000000E+00   4.48153118E+07   0.0894849       
  14               5.99934592E-05   4.42583030E-04   2000.12867126    6.07719933E-09   1.60273847E+15   4.59256346E+09   0.00000000E+00   4.43937349E+07   0.092434813     
  15               7.26296922E-05   5.30135706E-04   2016.99104256    7.21268609E-09   1.90374566E+15   4.59256343E+09   0.00000000E+00   4.39755483E+07   0.090228157     
  16               8.79274551E-05   6.33434018E-04   2030.82832507    8.55843143E-09   2.25919652E+15   4.59256340E+09   0.00000000E+00   4.35597836E+07   0.093036932     
  17               1.06447338E-04   7.55279589E-04   2047.75011754    1.01121925E-08   2.67150892E+15   4.59256340E+09   0.00000000E+00   4.31456018E+07   0.090986304     
  18               1.28868005E-04   8.98938040E-04   2061.82973502    1.19517050E-08   3.15793219E+15   4.59256342E+09   0.00000000E+00   4.27323701E+07   0.093615938     
  19               1.56011066E-04   1.06824915E-03   2078.95864160    1.40741755E-08   3.72179583E+15   4.59256350E+09   0.00000000E+00   4.23195508E+07   0.091622387     
  20               1.88871184E-04   1.26767075E-03   2093.41516589    1.65830940E-08   4.38608397E+15   4.59256362E+09   0.00000000E+00   4.19067620E+07   0.094060911     
  21               2.28652526E-04   1.50242769E-03   2110.88272260    1.94748592E-08   5.15531627E+15   4.59256384E+09   0.00000000E+00   4.14936674E+07   0.092187204     
  22               2.76812886E-04   1.77856275E-03   2125.85778893    2.28859202E-08   6.05983534E+15   4.59256413E+09   0.00000000E+00   4.10800486E+07   0.094473005     
  23               3.35117111E-04   2.10313234E-03   2143.80098123    2.68115878E-08   7.10571813E+15   4.59256459E+09   0.00000000E+00   4.06657023E+07   0.092804434     
  24               4.05701771E-04   2.48426825E-03   2159.42763373    3.14303197E-08   8.33269862E+15   4.59256517E+09   0.00000000E+00   4.02505147E+07   0.094911531     
  25               4.91153455E-04   2.93142514E-03   2177.99534539    3.67350983E-08   9.74872233E+15   4.59256600E+09   0.00000000E+00   3.98343682E+07   0.093320861     
  26               5.94603558E-04   3.45543636E-03   2194.46548964    4.29560671E-08   1.14051232E+16   4.59256702E+09   0.00000000E+00   3.94172223E+07   0.095193549     
  27               7.19843029E-04   4.06882841E-03   2213.85818221    5.00822293E-08   1.33120647E+16   4.59256842E+09   0.00000000E+00   3.89990207E+07   0.09361398      
  28               8.71461295E-04   4.78586972E-03   2231.37785920    5.84069638E-08   1.55350835E+16   4.59257012E+09   0.00000000E+00   3.85797731E+07   0.09523642      
  29               1.05501444E-03   5.62295619E-03   2251.82542657    6.79107753E-08   1.80865536E+16   4.59257235E+09   0.00000000E+00   3.81594622E+07   0.093743654     
  30               1.27722880E-03   6.59861118E-03   2270.67925989    7.89603356E-08   2.10485695E+16   4.59257501E+09   0.00000000E+00   3.77381312E+07   0.095141427     
  31               1.54624747E-03   7.73394103E-03   2292.51434472    9.15191332E-08   2.44351289E+16   4.59257840E+09   0.00000000E+00   3.73157889E+07   0.09372219      
  32               1.87192870E-03   9.05254706E-03   2313.06045315    1.06036943E-07   2.83471660E+16   4.59258234E+09   0.00000000E+00   3.68925045E+07   0.094823415     
  33               2.26620714E-03   1.05732492E-02   2336.21831608    1.22402603E-07   3.27809009E+16   4.59258722E+09   0.00000000E+00   3.64703845E+07   0.093252571     
  34               2.74353120E-03   1.23230979E-02   2359.51954323    1.40977733E-07   3.78287645E+16   4.59259217E+09   0.00000000E+00   3.60491404E+07   0.094205438     
  35               3.32139252E-03   1.43340101E-02   2393.25353898    1.60927184E-07   4.33815272E+16   4.59205897E+09   4.71856857E+05   3.56269344E+07   0.092625901     
  36               4.02096694E-03   1.66294762E-02   2425.95260173    1.83348380E-07   4.96503253E+16   4.59020705E+09   2.26521526E+06   3.52043272E+07   0.091193529     
  37               4.86789053E-03   1.92477727E-02   2458.49417315    2.08435013E-07   5.67070609E+16   4.58688559E+09   5.53199807E+06   3.47807682E+07   0.08987499      
  38               5.89319895E-03   2.22278468E-02   2490.10987571    2.36575532E-07   6.46553883E+16   4.58189799E+09   1.04753811E+07   3.43563697E+07   0.08882011      
  39               7.13446485E-03   2.56115921E-02   2521.74704194    2.67917008E-07   7.35632481E+16   4.57500554E+09   1.73338750E+07   3.39313298E+07   0.087911145     
  40               8.63717467E-03   2.94526946E-02   2552.58600029    3.03002858E-07   8.35738658E+16   4.56595370E+09   2.63467324E+07   3.35049980E+07   0.087240865     
  41               1.04563955E-02   3.38102855E-02   2583.70675848    3.42034903E-07   9.47832196E+16   4.55444305E+09   3.78070788E+07   3.30769390E+07   0.086676202     
  42               1.26587931E-02   3.87493496E-02   2614.13880332    3.85685058E-07   1.07364724E+17   4.54016057E+09   5.20317167E+07   3.26469007E+07   0.086318962     
  43               1.53250748E-02   4.43409264E-02   2645.03584060    4.34122650E-07   1.21422464E+17   4.52274250E+09   6.93915315E+07   3.22147586E+07   0.085991758     
  44               1.85529469E-02   5.06626712E-02   2675.25801276    4.88187954E-07   1.37166561E+17   4.50182539E+09   9.02629224E+07   3.17804980E+07   0.085783713     
  45               2.24606956E-02   5.77992638E-02   2706.03802741    5.47999576E-07   1.54708527E+17   4.47700762E+09   1.15056528E+08   3.13441617E+07   0.085596526     
  46               2.71915211E-02   6.58428859E-02   2736.13008972    6.14594180E-07   1.74300228E+17   4.44788362E+09   1.44167947E+08   3.09058533E+07   0.0854952       
  47               3.29187854E-02   7.48938530E-02   2766.83724750    6.88017684E-07   1.96059730E+17   4.41397558E+09   1.78070901E+08   3.04656895E+07   0.085366947     
  48               3.98523653E-02   8.50614057E-02   2796.80288997    7.69563344E-07   2.20290889E+17   4.37480857E+09   2.17238418E+08   3.00238078E+07   0.085329894     
  49               4.82463432E-02   9.64644803E-02   2827.44496411    8.59156675E-07   2.47115000E+17   4.32981390E+09   2.62246548E+08   2.95803256E+07   0.085305756     
  50               5.84083183E-02   1.09232554E-01   2857.32235132    9.58397880E-07   2.76897281E+17   4.27842373E+09   3.13673821E+08   2.91353593E+07   0.085429688     
  51               7.07106781E-02   1.23506517E-01   2887.98285598    1.06702629E-06   3.09756982E+17   4.21993677E+09   3.72195664E+08   2.86889881E+07   0.085615982     
  52               8.56042452E-02   1.39439474E-01   2917.89469563    1.18701443E-06   3.46132166E+17   4.15358185E+09   4.38590571E+08   2.82412839E+07   0.085913081     
  53               1.03634797E-01   1.57198514E-01   2948.67680199    1.31789525E-06   3.86142053E+17   4.07837134E+09   5.13850004E+08   2.77922670E+07   0.086184875     
  54               1.25463068E-01   1.76966446E-01   2978.67258452    1.46215716E-06   4.30322446E+17   3.99326376E+09   5.99010149E+08   2.73419341E+07   0.086454262     
  55               1.51888958E-01   1.98944765E-01   3009.55834395    1.61912704E-06   4.78801594E+17   3.89704509E+09   6.95292223E+08   2.68902153E+07   0.086638582     
  56               1.83880850E-01   2.23352265E-01   3039.58727416    1.79191852E-06   5.32232736E+17   3.78856045E+09   8.03825016E+08   2.64370746E+07   0.086833506     
  57               2.22611093E-01   2.50424443E-01   3070.53459991    1.97949107E-06   5.90729365E+17   3.66654561E+09   9.25868062E+08   2.59825075E+07   0.08699395      
  58               2.69498965E-01   2.80422286E-01   3100.58876753    2.18567879E-06   6.55079781E+17   3.52996514E+09   1.06245811E+09   2.55264403E+07   0.087232936     
  59               3.26262682E-01   3.13635579E-01   3131.65153128    2.40903198E-06   7.25400303E+17   3.37790624E+09   1.21451981E+09   2.50687121E+07   0.087531312     
  60               3.94982361E-01   3.50383966E-01   3161.86738374    2.65425021E-06   8.02650376E+17   3.21001728E+09   1.38241577E+09   2.46091392E+07   0.087967022     
  61               4.78176250E-01   3.91020777E-01   3193.23437963    2.91935461E-06   8.86941300E+17   3.02641667E+09   1.56601482E+09   2.41474867E+07   0.08850567      
  62               5.78893005E-01   4.35934236E-01   3223.83669711    3.21005627E-06   9.79430858E+17   2.82819370E+09   1.76422347E+09   2.36835219E+07   0.089155436     
  63               7.00823412E-01   4.85553909E-01   3255.71857019    3.52380287E-06   1.08023051E+18   2.61729577E+09   1.97509459E+09   2.32169681E+07   0.089846985     
  64               8.48435636E-01   5.40353115E-01   3286.87874382    3.86759509E-06   1.19074788E+18   2.39686889E+09   2.19547643E+09   2.27475539E+07   0.090541975     
  65               1.02713896E+00   6.00858998E-01   3319.37727345    4.23833637E-06   1.31111804E+18   2.17096700E+09   2.42131966E+09   2.22749585E+07   0.091162133     
  66               1.24348200E+00   6.67657245E-01   3351.12171467    4.64470731E-06   1.44307600E+18   1.94474044E+09   2.64746057E+09   2.17988603E+07   0.091679743     
  67               1.50539269E+00   7.41405550E-01   3384.19751270    5.08308668E-06   1.58681381E+18   1.72376397E+09   2.86827716E+09   2.13188848E+07   0.092083095     
  68               1.82246880E+00   8.22837721E-01   3416.46619145    5.56413557E-06   1.74446759E+18   1.51379214E+09   3.07812480E+09   2.08346661E+07   0.092463354     
  69               2.20632965E+00   9.12775675E-01   3450.12095968    6.08333065E-06   1.91626504E+18   1.31962637E+09   3.27222772E+09   2.03458075E+07   0.092854191     
  70               2.67104190E+00   1.01213115E+00   3483.00512800    6.65346716E-06   2.10478876E+18   1.14458714E+09   3.44726963E+09   1.98519461E+07   0.093326724     
  71               3.23363503E+00   1.12191992E+00   3517.40458323    7.26883328E-06   2.31028403E+18   9.89953238E+08   3.60197484E+09   1.93527039E+07   0.093906548     
  72               3.91472538E+00   1.24326315E+00   3551.13651181    7.94461219E-06   2.53583817E+18   8.55041535E+08   3.73700724E+09   1.88477463E+07   0.094638228     
  73               4.73927163E+00   1.37740678E+00   3586.56239335    8.67359512E-06   2.78169601E+18   7.38071798E+08   3.85405138E+09   1.83367190E+07   0.09550988      
  74               5.73748947E+00   1.52572486E+00   3621.44631336    9.47381854E-06   3.05154664E+18   6.36105103E+08   3.95608632E+09   1.78193023E+07   0.096438677     
  75               6.94595877E+00   1.68975421E+00   3658.13618087    1.03368843E-05   3.34571934E+18   5.47215274E+08   4.04503705E+09   1.72951293E+07   0.097378618     
  76               8.40896415E+00   1.87120377E+00   3694.31972251    1.12846051E-05   3.66870207E+18   4.69008375E+08   4.12328881E+09   1.67638452E+07   0.098290292     
  77               1.01801177E+01   2.07199671E+00   3732.36590426    1.23072861E-05   4.02096866E+18   4.00993398E+08   4.19135238E+09   1.62250359E+07   0.099172882     
  78               1.23243238E+01   2.29427702E+00   3769.91772545    1.34311763E-05   4.40798211E+18   3.41307030E+08   4.25103992E+09   1.56783070E+07   0.099972675     
  79               1.49201573E+01   2.54046495E+00   3809.35388452    1.46453718E-05   4.83045151E+18   2.90230207E+08   4.30207483E+09   1.51232077E+07   0.10070148      
  80               1.80627429E+01   2.81326604E+00   3848.27938644    1.59814959E-05   5.29504980E+18   2.46210659E+08   4.34609711E+09   1.45593151E+07   0.10144294      
  81               2.18672415E+01   3.11572514E+00   3889.18826003    1.74262684E-05   5.80264514E+18   2.09675748E+08   4.38269384E+09   1.39861670E+07   0.10230072      
  82               2.64730696E+01   3.45122396E+00   3929.71700210    1.90165093E-05   6.36118032E+18   1.78734707E+08   4.41373660E+09   1.34033493E+07   0.1032627       
  83               3.20490087E+01   3.82355930E+00   3972.40304002    2.07364467E-05   6.97172687E+18   1.53450744E+08   4.43917064E+09   1.28104063E+07   0.10434277      
  84               3.87993903E+01   4.23695227E+00   4014.84491379    2.26295880E-05   7.64382328E+18   1.31890636E+08   4.46078441E+09   1.22069204E+07   0.10545297      
  85               4.69715834E+01   4.69615015E+00   4059.56403784    2.46781786E-05   8.37892719E+18   1.14082800E+08   4.47861159E+09   1.15924280E+07   0.10661623      
  86               5.68650599E+01   5.20643821E+00   4104.12636055    2.69337250E-05   9.18852571E+18   9.85085473E+07   4.49420206E+09   1.09665055E+07   0.10774775      
  87               6.88423680E+01   5.77376108E+00   4151.03779817    2.93765369E-05   1.00746034E+19   8.54313050E+07   4.50732810E+09   1.03286921E+07   0.10889621      
  88               8.33424188E+01   6.40473367E+00   4197.85018920    3.20673365E-05   1.10509593E+19   7.38307007E+07   4.51901317E+09   9.67857894E+06   0.11002918      
  89               1.00896570E+02   7.10676611E+00   4247.09573909    3.49835447E-05   1.21200891E+19   6.41037393E+07   4.52879031E+09   9.01574307E+06   0.111265        
  90               1.22148096E+02   7.88806412E+00   4296.37055119    3.81950044E-05   1.32982515E+19   5.54944481E+07   4.53743721E+09   8.33982798E+06   0.11257244      
  91               1.47875764E+02   8.75775215E+00   4348.23388990    4.16750222E-05   1.45883305E+19   4.83009756E+07   4.54470664E+09   7.65048564E+06   0.11405712      
  92               1.79022369E+02   9.72586793E+00   4400.31580738    4.55030430E-05   1.60092269E+19   4.19134730E+07   4.55118313E+09   6.94744502E+06   0.11561421      
  93               2.16729286E+02   1.08034781E+01   4455.13442089    4.96483033E-05   1.75642102E+19   3.65307763E+07   4.55666388E+09   6.23047226E+06   0.1172783       
  94               2.62378292E+02   1.20026800E+01   4510.28548242    5.42021422E-05   1.92752507E+19   3.17114921E+07   4.56150793E+09   5.49942762E+06   0.11888543      
  95               3.17642204E+02   1.33366837E+01   4568.18180366    5.91307355E-05   2.11461015E+19   2.76140427E+07   4.56563951E+09   4.75425615E+06   0.12048968      
  96               3.84546179E+02   1.48198052E+01   4626.39394355    6.45384257E-05   2.32020161E+19   2.39612776E+07   4.56937307E+09   3.99502597E+06   0.12206503      
  97               4.65541927E+02   1.64674268E+01   4687.35117139    7.03834495E-05   2.54462675E+19   2.08838814E+07   4.57261621E+09   3.22194056E+06   0.12380693      
  98               5.63597555E+02   1.82959341E+01   4748.73288990    7.67777143E-05   2.79063275E+19   1.81730354E+07   4.57554778E+09   2.43533508E+06   0.12573361      
  99               6.82306330E+02   2.03225164E+01   4813.02863368    8.36648496E-05   3.05833374E+19   1.58846242E+07   4.57801883E+09   1.63570289E+06   0.12788428      
  100              8.26018359E+02   2.25651250E+01   4877.87321795    9.11664130E-05   3.35068093E+19   1.38478437E+07   4.58021118E+09   8.23660914E+05   0.13009257      
  101              1.00000000E+03   2.50421929E+01   4945.62914976    9.92146742E-05   3.66755511E+19   1.30337191E+07   4.58117108E+09   0.00000000E+00   0.13239827      
