# ATMO pressure-temperature profile
# Effective temperature = 2700.0K
# log(g) = 4.5cm/s^2
# M/H = 0.0
# Optical depth grid in band 17 (1.20-1.33microns)
# All parameters in cgs units
#
# Model Level      Optical Depth    Pressure         Temperature      Density          Number Density   Rad Flux         Conv Flux        Radial Extension Adiabatic Gradient
#                                   [Ba]             [K]              [g/cm^3]         [/cm^3]          [ergs/s/cm^2/sr] [ergs/s/cm^2/sr] [cm]             [K/Ba]          
  1                5.00000000E-06   1.00000000E-05   1163.79573550    2.43395842E-10   6.22370613E+13   3.01321718E+09   0.00000000E+00   4.12115147E+07   0.28328923      
  2                6.05313423E-06   5.87020027E-05   1232.48268563    1.34930327E-09   3.44983188E+14   3.01321718E+09   0.00000000E+00   3.85240451E+07   0.28132711      
  3                7.32808679E-06   1.06381696E-04   1335.55348758    2.25847339E-09   5.76941081E+14   3.01321717E+09   0.00000000E+00   3.76601913E+07   0.27730471      
  4                8.87157859E-06   1.55774638E-04   1322.77225492    3.33889355E-09   8.52977378E+14   3.01321717E+09   0.00000000E+00   3.70913950E+07   0.27661372      
  5                1.07401712E-05   2.03759399E-04   1401.42374927    4.13261014E-09   1.05311068E+15   3.01321717E+09   0.00000000E+00   3.66827460E+07   0.26829167      
  6                1.30023396E-05   2.48479843E-04   1382.14028770    5.11018463E-09   1.30216158E+15   3.01321717E+09   0.00000000E+00   3.63750112E+07   0.2723274       
  7                1.57409813E-05   3.00639378E-04   1444.04445291    5.91711830E-09   1.50796458E+15   3.01321717E+09   0.00000000E+00   3.60750501E+07   0.26414413      
  8                1.90564546E-05   3.61464198E-04   1423.89446326    7.21543610E-09   1.83871037E+15   3.01321717E+09   0.00000000E+00   3.57806786E+07   0.26885441      
  9                2.30702555E-05   4.32568088E-04   1484.28311302    8.28217002E-09   2.11088012E+15   3.01321717E+09   0.00000000E+00   3.54898109E+07   0.25983189      
  10               2.79294706E-05   5.15582979E-04   1464.26002881    1.00075211E-08   2.55038769E+15   3.01321717E+09   0.00000000E+00   3.52014593E+07   0.26532773      
  11               3.38121669E-05   6.12620996E-04   1524.20176076    1.14210685E-08   2.91122155E+15   3.01321717E+09   0.00000000E+00   3.49144263E+07   0.25501722      
  12               4.09339169E-05   7.25799937E-04   1505.06571899    1.37046818E-08   3.49290925E+15   3.01321717E+09   0.00000000E+00   3.46283514E+07   0.26102961      
  13               4.95556987E-05   8.57791107E-04   1565.54745334    1.55670692E-08   3.96863486E+15   3.01321716E+09   0.00000000E+00   3.43425824E+07   0.24951675      
  14               5.99934592E-05   1.01110894E-03   1548.43652372    1.85548217E-08   4.72966502E+15   3.01321716E+09   0.00000000E+00   3.40573080E+07   0.25582247      
  15               7.26296922E-05   1.18851124E-03   1611.43277982    2.09499975E-08   5.34216061E+15   3.01321714E+09   0.00000000E+00   3.37727637E+07   0.24197994      
  16               8.79274551E-05   1.39151726E-03   1599.70285110    2.47119303E-08   6.30050146E+15   3.01321708E+09   0.00000000E+00   3.34906234E+07   0.24746232      
  17               1.06447338E-04   1.61739474E-03   1673.06387524    2.74466402E-08   7.00211670E+15   3.01321702E+09   0.00000000E+00   3.32163423E+07   0.23189862      
  18               1.28868005E-04   1.85298896E-03   1679.69946777    3.13205347E-08   7.99037364E+15   3.01321704E+09   0.00000000E+00   3.29622419E+07   0.23337986      
  19               1.56011066E-04   2.12728881E-03   1712.10029205    3.52643634E-08   8.99959764E+15   3.01321705E+09   0.00000000E+00   3.27012380E+07   0.22534525      
  20               1.88871184E-04   2.44703937E-03   1716.86211530    4.04541007E-08   1.03236050E+16   3.01321705E+09   0.00000000E+00   3.24335296E+07   0.22754497      
  21               2.28652526E-04   2.82012030E-03   1748.35561740    4.57646901E-08   1.16832509E+16   3.01321706E+09   0.00000000E+00   3.21593340E+07   0.21979431      
  22               2.76812886E-04   3.25514000E-03   1753.23642247    5.26800088E-08   1.34479172E+16   3.01321707E+09   0.00000000E+00   3.18791646E+07   0.22218263      
  23               3.35117111E-04   3.76243805E-03   1784.56625993    5.97957279E-08   1.52708257E+16   3.01321708E+09   0.00000000E+00   3.15933336E+07   0.21459641      
  24               4.05701771E-04   4.35337074E-03   1789.94888728    6.89835643E-08   1.76161445E+16   3.01321708E+09   0.00000000E+00   3.13023757E+07   0.2170017       
  25               4.91153455E-04   5.04157900E-03   1821.32502864    7.84758038E-08   2.00495653E+16   3.01321708E+09   0.00000000E+00   3.10065857E+07   0.20926013      
  26               5.94603558E-04   5.84197554E-03   1827.41872288    9.06371802E-08   2.31551449E+16   3.01321709E+09   0.00000000E+00   3.07064731E+07   0.21161757      
  27               7.19843029E-04   6.77242512E-03   1859.00154159    1.03233777E-07   2.63870173E+16   3.01321709E+09   0.00000000E+00   3.04022913E+07   0.20411988      
  28               8.71461295E-04   7.85233202E-03   1866.00640341    1.19252923E-07   3.04797475E+16   3.01321709E+09   0.00000000E+00   3.00945109E+07   0.20637159      
  29               1.05501444E-03   9.10490818E-03   1897.91567105    1.35871405E-07   3.47475748E+16   3.01321710E+09   0.00000000E+00   2.97833319E+07   0.19912898      
  30               1.27722880E-03   1.05551690E-02   1906.01707252    1.56851449E-07   4.01110697E+16   3.01321710E+09   0.00000000E+00   2.94691813E+07   0.20122383      
  31               1.54624747E-03   1.22330154E-02   1938.36223133    1.78633764E-07   4.57113893E+16   3.01321710E+09   0.00000000E+00   2.91522017E+07   0.1940578       
  32               1.87192870E-03   1.41703597E-02   1947.78629352    2.05927725E-07   5.26945148E+16   3.01321710E+09   0.00000000E+00   2.88327776E+07   0.1958092       
  33               2.26620714E-03   1.64052798E-02   1980.75155566    2.34264138E-07   5.99900848E+16   3.01321710E+09   0.00000000E+00   2.85109989E+07   0.18867144      
  34               2.74353120E-03   1.89780236E-02   1991.74715614    2.69502017E-07   6.90148608E+16   3.01321710E+09   0.00000000E+00   2.81872095E+07   0.18998114      
  35               3.32139252E-03   2.19365843E-02   2025.52431065    3.06059973E-07   7.84435764E+16   3.01321711E+09   0.00000000E+00   2.78614459E+07   0.18279925      
  36               4.02096694E-03   2.53311365E-02   2038.42413015    3.51156525E-07   9.00090056E+16   3.01321710E+09   0.00000000E+00   2.75340081E+07   0.18359737      
  37               4.86789053E-03   2.92218869E-02   2073.40601444    3.97860537E-07   1.02082134E+17   3.01321712E+09   0.00000000E+00   2.72048345E+07   0.17628438      
  38               5.89319895E-03   3.36709868E-02   2088.74109075    4.54986941E-07   1.16760803E+17   3.01321712E+09   0.00000000E+00   2.68741549E+07   0.17656794      
  39               7.13446485E-03   3.87522882E-02   2125.36638486    5.14008650E-07   1.32065501E+17   3.01321715E+09   0.00000000E+00   2.65418788E+07   0.16977373      
  40               8.63717467E-03   4.45401959E-02   2143.81926344    5.85489227E-07   1.50483815E+17   3.01321716E+09   0.00000000E+00   2.62082391E+07   0.16944705      
  41               1.04563955E-02   5.11219666E-02   2182.96788475    6.58964405E-07   1.69623510E+17   3.01321720E+09   0.00000000E+00   2.58731474E+07   0.16247204      
  42               1.26587931E-02   5.85801345E-02   2206.23329081    7.46635195E-07   1.92320142E+17   3.01321717E+09   0.00000000E+00   2.55369076E+07   0.16113501      
  43               1.53250748E-02   6.69922024E-02   2253.34181968    8.34084928E-07   2.15339162E+17   3.01265731E+09   3.04172777E+06   2.51998031E+07   0.1536869       
  44               1.85529469E-02   7.63596659E-02   2297.99002851    9.29973452E-07   2.40680951E+17   3.00788871E+09   5.26301912E+06   2.48634453E+07   0.14666147      
  45               2.24606956E-02   8.67816894E-02   2340.55477576    1.03513621E-06   2.68556167E+17   2.99905166E+09   1.40728507E+07   2.45275152E+07   0.14046064      
  46               2.71915211E-02   9.84034763E-02   2381.38689568    1.15057212E-06   2.99299727E+17   2.98606635E+09   2.70468892E+07   2.41907439E+07   0.13539424      
  47               3.29187854E-02   1.11422791E-01   2421.19339143    1.27780982E-06   3.33326923E+17   2.96879817E+09   4.43152062E+07   2.38511848E+07   0.13106078      
  48               3.98523653E-02   1.26010364E-01   2459.92889256    1.41824547E-06   3.71030449E+17   2.94693352E+09   6.61805944E+07   2.35085032E+07   0.12725228      
  49               4.82463432E-02   1.42337070E-01   2497.93843909    1.57290143E-06   4.12726286E+17   2.92010692E+09   9.30137561E+07   2.31628120E+07   0.12389996      
  50               5.84083183E-02   1.60593915E-01   2535.09275695    1.74327787E-06   4.58839788E+17   2.88793345E+09   1.25197599E+08   2.28141480E+07   0.12101724      
  51               7.07106781E-02   1.81010070E-01   2571.80232394    1.93071263E-06   5.09789625E+17   2.85002058E+09   1.63118010E+08   2.24622256E+07   0.11841929      
  52               8.56042452E-02   2.03833886E-01   2607.83858386    2.13720959E-06   5.66136971E+17   2.80599542E+09   2.07149092E+08   2.21069051E+07   0.11611355      
  53               1.03634797E-01   2.29333886E-01   2643.60137173    2.36419079E-06   6.28344910E+17   2.75549290E+09   2.57657550E+08   2.17481571E+07   0.11406641      
  54               1.25463068E-01   2.57799569E-01   2678.81589319    2.61393229E-06   6.97051970E+17   2.69814867E+09   3.15010132E+08   2.13860420E+07   0.11233716      
  55               1.51888958E-01   2.89541616E-01   2713.91731851    2.88785166E-06   7.72752147E+17   2.63351149E+09   3.79658543E+08   2.10206882E+07   0.11081206      
  56               1.83880850E-01   3.24894282E-01   2748.54421317    3.18859244E-06   8.56180201E+17   2.56110882E+09   4.52072736E+08   2.06522643E+07   0.10949143      
  57               2.22611093E-01   3.64217469E-01   2783.14164127    3.51761252E-06   9.47875509E+17   2.48039998E+09   5.32793367E+08   2.02809534E+07   0.10831393      
  58               2.69498965E-01   4.07899790E-01   2817.30157252    3.87799702E-06   1.04868724E+18   2.39086707E+09   6.22338533E+08   1.99069377E+07   0.10732055      
  59               3.26262682E-01   4.56361648E-01   2851.51130781    4.27121100E-06   1.15920403E+18   2.29198897E+09   7.21233020E+08   1.95303791E+07   0.10646729      
  60               3.94982361E-01   5.10058643E-01   2885.33020949    4.70087703E-06   1.28041404E+18   2.18335326E+09   8.29885034E+08   1.91514166E+07   0.10575418      
  61               4.78176250E-01   5.69485277E-01   2919.26385792    5.16852251E-06   1.41297667E+18   2.06464555E+09   9.48607343E+08   1.87701581E+07   0.1051078       
  62               5.78893005E-01   6.35181116E-01   2952.82086699    5.67852994E-06   1.55806767E+18   1.93591494E+09   1.07734939E+09   1.83866741E+07   0.10455229      
  63               7.00823412E-01   7.07736499E-01   2986.54256574    6.23251848E-06   1.71644038E+18   1.79767915E+09   1.21559245E+09   1.80009912E+07   0.10404988      
  64               8.48435636E-01   7.87798950E-01   3019.90925302    6.83579662E-06   1.88950195E+18   1.65120722E+09   1.36206692E+09   1.76130977E+07   0.10364656      
  65               1.02713896E+00   8.76057396E-01   3053.50339124    7.48988431E-06   2.07806914E+18   1.49851061E+09   1.51475932E+09   1.72230353E+07   0.10331853      
  66               1.24348200E+00   9.73257635E-01   3086.77416365    8.20092738E-06   2.28375127E+18   1.34262973E+09   1.67063104E+09   1.68308352E+07   0.10309772      
  67               1.50539269E+00   1.08022369E+00   3120.34527968    8.97043998E-06   2.50747657E+18   1.18732754E+09   1.82592044E+09   1.64364532E+07   0.10293808      
  68               1.82246880E+00   1.19786622E+00   3153.63437285    9.80597864E-06   2.75120415E+18   1.03692452E+09   1.97630828E+09   1.60397909E+07   0.10286094      
  69               2.20632965E+00   1.32719224E+00   3187.30105570    1.07091874E-05   3.01603646E+18   8.95673570E+08   2.11754169E+09   1.56407004E+07   0.10284857      
  70               2.67104190E+00   1.46931335E+00   3220.74451591    1.16892100E-05   3.30433437E+18   7.67207356E+08   2.24598970E+09   1.52390055E+07   0.10292981      
  71               3.23363503E+00   1.62545640E+00   3254.66134115    1.27477345E-05   3.61739020E+18   6.53852794E+08   2.35932753E+09   1.48345019E+07   0.10304394      
  72               3.91472538E+00   1.79697791E+00   3288.40114274    1.38959849E-05   3.95807289E+18   5.56413355E+08   2.45675332E+09   1.44269661E+07   0.10319266      
  73               4.73927163E+00   1.98538327E+00   3322.68003682    1.51359061E-05   4.32794443E+18   4.74181794E+08   2.53897486E+09   1.40161447E+07   0.10334057      
  74               5.73748947E+00   2.19233886E+00   3356.81317884    1.64812254E-05   4.73049241E+18   4.05248446E+08   2.60789997E+09   1.36017765E+07   0.10350467      
  75               6.94595877E+00   2.41969215E+00   3391.54451130    1.79341325E-05   5.16759458E+18   3.47394772E+08   2.66574524E+09   1.31835854E+07   0.1036726       
  76               8.40896415E+00   2.66948762E+00   3426.16721144    1.95112122E-05   5.64345668E+18   2.98375711E+08   2.71476026E+09   1.27612960E+07   0.10388643      
  77               1.01801177E+01   2.94398804E+00   3461.46889932    2.12146882E-05   6.16029410E+18   2.56619479E+08   2.75651593E+09   1.23346271E+07   0.10413843      
  78               1.23243238E+01   3.24569209E+00   3496.72207532    2.30643859E-05   6.72313824E+18   2.20698763E+08   2.79243905E+09   1.19033069E+07   0.10445512      
  79               1.49201573E+01   3.57736335E+00   3532.74784606    2.50625217E-05   7.33459694E+18   1.89938835E+08   2.82320396E+09   1.14670595E+07   0.10481635      
  80               1.80627429E+01   3.94205853E+00   3568.78951369    2.72328446E-05   8.00069978E+18   1.63442254E+08   2.84970326E+09   1.10256120E+07   0.10523472      
  81               2.18672415E+01   4.34316194E+00   3605.69378702    2.95776746E-05   8.72454970E+18   1.40853462E+08   2.87229289E+09   1.05786853E+07   0.10569074      
  82               2.64730696E+01   4.78441405E+00   3642.67422581    3.21254218E-05   9.51336729E+18   1.21396759E+08   2.89175068E+09   1.01260083E+07   0.10619123      
  83               3.20490087E+01   5.26996370E+00   3680.59997489    3.48785926E-05   1.03708617E+19   1.04828857E+08   2.90832015E+09   9.66729820E+06   0.10671689      
  84               3.87993903E+01   5.80440671E+00   3718.65515198    3.78712549E-05   1.13057081E+19   9.05040446E+07   2.92264689E+09   9.20227426E+06   0.10727282      
  85               4.69715834E+01   6.39285379E+00   3757.73178293    4.11062976E-05   1.23223867E+19   7.82636928E+07   2.93488947E+09   8.73063799E+06   0.10783949      
  86               5.68650599E+01   7.04098027E+00   3796.98416614    4.46247206E-05   1.34313659E+19   6.76211749E+07   2.94552811E+09   8.25208918E+06   0.10843857      
  87               6.88423680E+01   7.75511074E+00   3837.34063385    4.84297471E-05   1.46380589E+19   5.85342398E+07   2.95461248E+09   7.76630572E+06   0.10908249      
  88               8.33424188E+01   8.54226837E+00   3877.94836939    5.25700269E-05   1.59550081E+19   5.06139330E+07   2.96253110E+09   7.27296710E+06   0.10977351      
  89               1.00896570E+02   9.41028170E+00   3919.75875914    5.70493876E-05   1.73887805E+19   4.38252808E+07   2.96931880E+09   6.77173257E+06   0.1104894       
  90               1.22148096E+02   1.03678638E+01   3961.88583907    6.19263418E-05   1.89545364E+19   3.78711875E+07   2.97527197E+09   6.26225916E+06   0.11121171      
  91               1.47875764E+02   1.14247666E+01   4005.28995169    6.72063991E-05   2.06604232E+19   3.27605234E+07   2.98037554E+09   5.74417394E+06   0.11193259      
  92               1.79022369E+02   1.25918764E+01   4049.06239604    7.29600481E-05   2.25248456E+19   2.82792338E+07   2.98484827E+09   5.21709882E+06   0.1126567       
  93               2.16729286E+02   1.38813982E+01   4094.19068921    7.91946755E-05   2.45578865E+19   2.44470450E+07   2.98867451E+09   4.68062654E+06   0.11340717      
  94               2.62378292E+02   1.53069548E+01   4139.76641785    8.59941039E-05   2.67817408E+19   2.11071742E+07   2.99201127E+09   4.13435232E+06   0.11420788      
  95               3.17642204E+02   1.68837947E+01   4186.81992317    9.33669454E-05   2.92086592E+19   1.82677826E+07   2.99484995E+09   3.57785154E+06   0.11507764      
  96               3.84546179E+02   1.86289211E+01   4234.43921219    1.01412263E-04   3.18652728E+19   1.58023112E+07   2.99731335E+09   3.01070708E+06   0.11605681      
  97               4.65541927E+02   2.05613407E+01   4283.71337986    1.10138560E-04   3.47661712E+19   1.37077203E+07   2.99940176E+09   2.43248360E+06   0.11714914      
  98               5.63597555E+02   2.27022204E+01   4333.71489810    1.19662494E-04   3.79431898E+19   1.18818920E+07   3.00122112E+09   1.84275469E+06   0.1183102       
  99               6.82306330E+02   2.50752605E+01   4385.52321542    1.29996049E-04   4.14142575E+19   1.03210242E+07   3.00277555E+09   1.24106780E+06   0.11949705      
  100              8.26018359E+02   2.77069327E+01   4438.15442397    1.41280220E-04   4.52180552E+19   8.95476172E+06   3.00413470E+09   6.26973256E+05   0.12067502      
  101              1.00000000E+03   3.06269137E+01   4492.68492043    1.53532565E-04   4.93768196E+19   8.36782312E+06   3.00471038E+09   0.00000000E+00   0.12184718      
