# ATMO pressure-temperature profile
# Effective temperature = 2200.0K
# log(g) = 2.5cm/s^2
# M/H = 0.0
# Optical depth grid in band 17 (1.20-1.33microns)
# All parameters in cgs units
#
# Model Level      Optical Depth    Pressure         Temperature      Density          Number Density   Rad Flux         Conv Flux        Radial Extension Adiabatic Gradient
#                                   [Ba]             [K]              [g/cm^3]         [/cm^3]          [ergs/s/cm^2/sr] [ergs/s/cm^2/sr] [cm]             [K/Ba]          
  1                1.00000000E-04   1.00000000E-05   878.56219792     3.22381344E-10   8.24429127E+13   1.32820442E+09   0.00000000E+00   3.15239083E+09   0.29253736      
  2                1.17489755E-04   2.22521727E-05   1038.13537330    6.07100471E-10   1.55254527E+14   1.32820442E+09   0.00000000E+00   3.06481193E+09   0.28843068      
  3                1.38038426E-04   3.43724586E-05   1095.22044126    8.88898037E-10   2.27318560E+14   1.32820447E+09   0.00000000E+00   3.01263752E+09   0.2864973       
  4                1.62181010E-04   4.74780500E-05   1136.68714796    1.18303199E-09   3.02536490E+14   1.32820449E+09   0.00000000E+00   2.97222341E+09   0.284654        
  5                1.90546072E-04   6.19548243E-05   1167.01972825    1.50365669E-09   3.84523398E+14   1.32820451E+09   0.00000000E+00   2.93789919E+09   0.28378098      
  6                2.23872114E-04   7.80656326E-05   1195.89167069    1.84903413E-09   4.72817870E+14   1.32820453E+09   0.00000000E+00   2.90734474E+09   0.28248947      
  7                2.63026799E-04   9.60236709E-05   1219.39619671    2.23072612E-09   5.70373459E+14   1.32820455E+09   0.00000000E+00   2.87938264E+09   0.28187814      
  8                3.09029543E-04   1.15907770E-04   1244.01361124    2.63988728E-09   6.74859333E+14   1.32820458E+09   0.00000000E+00   2.85347057E+09   0.28110057      
  9                3.63078055E-04   1.37799910E-04   1264.89309671    3.08717436E-09   7.89079848E+14   1.32820461E+09   0.00000000E+00   2.82921987E+09   0.28037985      
  10               4.26579519E-04   1.61908784E-04   1287.81359156    3.56361781E-09   9.10632713E+14   1.32820466E+09   0.00000000E+00   2.80623380E+09   0.27881227      
  11               5.01187234E-04   1.88496357E-04   1307.63748784    4.08662594E-09   1.04409842E+15   1.32820470E+09   0.00000000E+00   2.78420153E+09   0.2781126       
  12               5.88843655E-04   2.17662562E-04   1329.92014568    4.64101676E-09   1.18545210E+15   1.32820476E+09   0.00000000E+00   2.76302275E+09   0.27627046      
  13               6.91830971E-04   2.48800746E-04   1349.45938306    5.23128867E-09   1.33541946E+15   1.32820488E+09   0.00000000E+00   2.74303759E+09   0.27541957      
  14               8.12830516E-04   2.80685262E-04   1371.55938286    5.81128818E-09   1.48228200E+15   1.32820492E+09   0.00000000E+00   2.72474950E+09   0.27343146      
  15               9.54992586E-04   3.12717721E-04   1390.71576893    6.38992645E-09   1.62869571E+15   1.32820472E+09   0.00000000E+00   2.70812557E+09   0.27250484      
  16               1.12201845E-03   3.46176926E-04   1411.24687122    6.97236007E-09   1.77672807E+15   1.32820427E+09   0.00000000E+00   2.69227362E+09   0.26989415      
  17               1.31825674E-03   3.82883307E-04   1429.37271139    7.61362450E-09   1.94020127E+15   1.32820439E+09   0.00000000E+00   2.67634213E+09   0.26874925      
  18               1.54881662E-03   4.24625244E-04   1449.46260490    8.32631913E-09   2.12189864E+15   1.32820450E+09   0.00000000E+00   2.65976342E+09   0.26613585      
  19               1.81970086E-03   4.72066214E-04   1468.47210851    9.13631536E-09   2.32842930E+15   1.32820461E+09   0.00000000E+00   2.64256289E+09   0.26483397      
  20               2.13796209E-03   5.25935237E-04   1489.69042381    1.00333530E-08   2.55718461E+15   1.32820475E+09   0.00000000E+00   2.62477063E+09   0.26151839      
  21               2.51188643E-03   5.87021498E-04   1510.02020736    1.10471607E-08   2.81576941E+15   1.32820494E+09   0.00000000E+00   2.60642233E+09   0.25971088      
  22               2.95120923E-03   6.56156775E-04   1532.77996790    1.21638441E-08   3.10065639E+15   1.32820523E+09   0.00000000E+00   2.58756241E+09   0.25565938      
  23               3.46736850E-03   7.34156213E-04   1554.91480189    1.34146133E-08   3.41985522E+15   1.32820573E+09   0.00000000E+00   2.56825304E+09   0.25343207      
  24               4.07380278E-03   8.21679033E-04   1579.81262543    1.47752749E-08   3.76723285E+15   1.32820665E+09   0.00000000E+00   2.54859384E+09   0.24825641      
  25               4.78630092E-03   9.18886506E-04   1604.50273792    1.62661876E-08   4.14808122E+15   1.32820827E+09   0.00000000E+00   2.52876529E+09   0.24496564      
  26               5.62341325E-03   1.02512169E-03   1631.83678256    1.78391104E-08   4.55013774E+15   1.32821029E+09   0.00000000E+00   2.50904374E+09   0.23820148      
  27               6.60693448E-03   1.14026936E-03   1657.50107143    1.95307039E-08   4.98286906E+15   1.32820966E+09   0.00000000E+00   2.48953576E+09   0.23371789      
  28               7.76247117E-03   1.26610139E-03   1684.02303950    2.13382849E-08   5.44560699E+15   1.32820781E+09   0.00000000E+00   2.47004381E+09   0.22682058      
  29               9.12010839E-03   1.40592015E-03   1708.79207874    2.33431447E-08   5.95932778E+15   1.32820799E+09   0.00000000E+00   2.45023268E+09   0.22235744      
  30               1.07151931E-02   1.56278029E-03   1736.02058353    2.55299244E-08   6.52031975E+15   1.32820811E+09   0.00000000E+00   2.42991323E+09   0.21429867      
  31               1.25892541E-02   1.73844823E-03   1764.10175390    2.79304144E-08   7.13779333E+15   1.32820817E+09   0.00000000E+00   2.40910975E+09   0.20870257      
  32               1.47910839E-02   1.93369656E-03   1802.71425159    3.03765191E-08   7.76939625E+15   1.32743373E+09   7.75797417E+05   2.38791200E+09   0.19778098      
  33               1.73780083E-02   2.14951104E-03   1839.84457488    3.30495940E-08   8.46222138E+15   1.32493581E+09   3.27476196E+06   2.36637222E+09   0.1866306       
  34               2.04173794E-02   2.38878946E-03   1875.49881670    3.59854308E-08   9.22543640E+15   1.32075675E+09   7.45476826E+06   2.34443049E+09   0.17631415      
  35               2.39883292E-02   2.65475613E-03   1910.01171770    3.92138442E-08   1.00673331E+16   1.31479555E+09   1.34169080E+07   2.32204028E+09   0.16687849      
  36               2.81838293E-02   2.95099742E-03   1943.35158229    4.27741257E-08   1.09987490E+16   1.30690774E+09   2.13056421E+07   2.29916588E+09   0.15785725      
  37               3.31131121E-02   3.28155538E-03   1975.64071520    4.67066475E-08   1.20308860E+16   1.29696100E+09   3.12533540E+07   2.27577846E+09   0.1496747       
  38               3.89045145E-02   3.65095628E-03   2007.00195944    5.10551589E-08   1.31760330E+16   1.28482203E+09   4.33932565E+07   2.25185612E+09   0.14264852      
  39               4.57088190E-02   4.06423396E-03   2037.68962927    5.58636535E-08   1.44466285E+16   1.27032405E+09   5.78923159E+07   2.22738396E+09   0.13618451      
  40               5.37031796E-02   4.52717471E-03   2067.58184186    6.11921858E-08   1.58595327E+16   1.25333138E+09   7.48858357E+07   2.20234434E+09   0.13028371      
  41               6.30957344E-02   5.04637662E-03   2096.95431304    6.70973793E-08   1.74307683E+16   1.23374001E+09   9.44782120E+07   2.17672015E+09   0.12501479      
  42               7.41310241E-02   5.62922561E-03   2125.71583079    7.36512716E-08   1.91809135E+16   1.21147443E+09   1.16744242E+08   2.15050043E+09   0.12051595      
  43               8.70963590E-02   6.28394874E-03   2154.21517866    8.09183933E-08   2.11285353E+16   1.18645366E+09   1.41765860E+08   2.12368045E+09   0.11645477      
  44               1.02329299E-01   7.01974311E-03   2182.20482552    8.89894722E-08   2.32997653E+16   1.15864119E+09   1.69577926E+08   2.09625978E+09   0.11279299      
  45               1.20226443E-01   7.84687237E-03   2210.02906211    9.79429732E-08   2.57172451E+16   1.12803202E+09   2.00187142E+08   2.06824213E+09   0.10946696      
  46               1.41253754E-01   8.77677395E-03   2237.40671567    1.07888251E-07   2.84129165E+16   1.09467525E+09   2.33541583E+08   2.03963479E+09   0.10656448      
  47               1.65958691E-01   9.82213433E-03   2264.74061230    1.18915755E-07   3.14132768E+16   1.05863474E+09   2.69580440E+08   2.01044888E+09   0.10402691      
  48               1.94984460E-01   1.09970049E-02   2291.71732844    1.31155607E-07   3.47567538E+16   1.01998978E+09   3.08221269E+08   1.98069862E+09   0.10166447      
  49               2.29086765E-01   1.23147165E-02   2318.61241844    1.44700194E-07   3.84699924E+16   9.78893382E+08   3.49248733E+08   1.95044971E+09   0.099844513     
  50               2.69153480E-01   1.37893617E-02   2345.26904751    1.59655934E-07   4.25870278E+16   9.35484408E+08   3.92738463E+08   1.91976812E+09   0.098114499     
  51               3.16227766E-01   1.54389329E-02   2371.79272897    1.76159307E-07   4.71483379E+16   8.90055414E+08   4.38164406E+08   1.88866223E+09   0.096454755     
  52               3.71535229E-01   1.72863632E-02   2398.10853520    1.94395689E-07   5.22108350E+16   8.42977577E+08   4.85226085E+08   1.85709149E+09   0.094937282     
  53               4.36515832E-01   1.93569987E-02   2424.39254448    2.14560319E-07   5.78310293E+16   7.94576430E+08   5.33614298E+08   1.82502894E+09   0.093619616     
  54               5.12861384E-01   2.16754646E-02   2450.54212873    2.36840672E-07   6.40666599E+16   7.45096749E+08   5.83078917E+08   1.79250448E+09   0.092481545     
  55               6.02559586E-01   2.42680709E-02   2476.68012968    2.61416055E-07   7.09726752E+16   6.94782922E+08   6.33380174E+08   1.75955457E+09   0.091496858     
  56               7.07945784E-01   2.71580969E-02   2502.64428337    2.88445330E-07   7.86006338E+16   6.43804617E+08   6.84341834E+08   1.72627211E+09   0.090650956     
  57               8.31763771E-01   3.03780879E-02   2528.58738222    3.18148861E-07   8.70178419E+16   5.92653404E+08   7.35477868E+08   1.69265820E+09   0.089873499     
  58               9.77237221E-01   3.39635998E-02   2554.37715173    3.50788179E-07   9.63062635E+16   5.41840674E+08   7.86272369E+08   1.65871720E+09   0.089221761     
  59               1.14815362E+00   3.79532626E-02   2580.19854328    3.86609032E-07   1.06542241E+17   4.91843454E+08   8.36255262E+08   1.62445711E+09   0.088680142     
  60               1.34896288E+00   4.23889121E-02   2605.90506851    4.25906272E-07   1.17820136E+17   4.43118949E+08   8.84962482E+08   1.58988907E+09   0.088250827     
  61               1.58489319E+00   4.73157276E-02   2631.68487338    4.68953622E-07   1.30225933E+17   3.96095874E+08   9.31972757E+08   1.55502688E+09   0.087885097     
  62               1.86208714E+00   5.27824422E-02   2657.35844609    5.16086450E-07   1.43868323E+17   3.51218984E+08   9.76833623E+08   1.51988619E+09   0.087574906     
  63               2.18776162E+00   5.88415411E-02   2683.11231605    5.67611433E-07   1.58844077E+17   3.08935331E+08   1.01910508E+09   1.48448393E+09   0.0873016       
  64               2.57039578E+00   6.55494600E-02   2708.75163787    6.23905922E-07   1.75277339E+17   2.69688768E+08   1.05833620E+09   1.44883780E+09   0.087092445     
  65               3.01995172E+00   7.29668095E-02   2734.48273397    6.85306968E-07   1.93275146E+17   2.33861171E+08   1.09415708E+09   1.41296577E+09   0.086903691     
  66               3.54813389E+00   8.11586833E-02   2760.08247370    7.52241802E-07   2.12979976E+17   2.01779020E+08   1.12622989E+09   1.37688539E+09   0.086759122     
  67               4.16869383E+00   9.01949737E-02   2785.77743861    8.25081815E-07   2.34510212E+17   1.73634965E+08   1.15437463E+09   1.34061336E+09   0.086643394     
  68               4.89778819E+00   1.00150733E-01   2811.33354413    9.04305918E-07   2.58028452E+17   1.49457155E+08   1.17854817E+09   1.30416509E+09   0.086585345     
  69               5.75439937E+00   1.11106585E-01   2837.00164257    9.90319951E-07   2.83665194E+17   1.29068463E+08   1.19893900E+09   1.26755430E+09   0.086572247     
  70               6.76082975E+00   1.23149081E-01   2862.53817225    1.08365692E-06   3.11605940E+17   1.12101182E+08   1.21590097E+09   1.23079297E+09   0.086653979     
  71               7.94328235E+00   1.36371100E-01   2888.23047349    1.18475070E-06   3.41992309E+17   9.80360981E+07   1.22997122E+09   1.19389126E+09   0.086797041     
  72               9.33254301E+00   1.50872411E-01   2913.81327531    1.29419982E-06   3.75036858E+17   8.62937924E+07   1.24170891E+09   1.15685722E+09   0.086993967     
  73               1.09647820E+01   1.66760427E-01   2939.57777715    1.41249326E-06   4.10897864E+17   7.63644714E+07   1.25164390E+09   1.11969655E+09   0.087187855     
  74               1.28824955E+01   1.84151151E-01   2965.22355835    1.54033122E-06   4.49824220E+17   6.78231665E+07   1.26018039E+09   1.08241232E+09   0.087378026     
  75               1.51356125E+01   2.03170231E-01   2991.05056588    1.67828350E-06   4.91996664E+17   6.04034794E+07   1.26760553E+09   1.04500494E+09   0.087527599     
  76               1.77827941E+01   2.23954127E-01   3016.73517319    1.82717831E-06   5.37709517E+17   5.38746410E+07   1.27412510E+09   1.00747212E+09   0.087658839     
  77               2.08929613E+01   2.46646924E-01   3042.59468035    1.98764798E-06   5.87161325E+17   4.81159462E+07   1.27988958E+09   9.69816055E+08   0.087765923     
  78               2.45470892E+01   2.71403231E-01   3068.29389294    2.16060791E-06   6.40684028E+17   4.29919872E+07   1.28500952E+09   9.32038385E+08   0.087893423     
  79               2.88403150E+01   2.98391837E-01   3094.18573793    2.34676134E-06   6.98499979E+17   3.84666082E+07   1.28954644E+09   8.94136153E+08   0.088052413     
  80               3.38844156E+01   3.27796756E-01   3119.94114393    2.54715750E-06   7.60999006E+17   3.44362473E+07   1.29357594E+09   8.56102823E+08   0.088282925     
  81               3.98107171E+01   3.59818248E-01   3145.94628817    2.76258216E-06   8.28433630E+17   3.08758612E+07   1.29714989E+09   8.17929271E+08   0.08857577      
  82               4.67735141E+01   3.94674027E-01   3171.86332374    2.99423277E-06   9.01259637E+17   2.76950080E+07   1.30032783E+09   7.79604380E+08   0.088949823     
  83               5.49540874E+01   4.32600548E-01   3198.09742607    3.24298680E-06   9.79763407E+17   2.48869640E+07   1.30314524E+09   7.41115611E+08   0.089403782     
  84               6.45654229E+01   4.73854611E-01   3224.30500575    3.51020137E-06   1.06447345E+18   2.23720845E+07   1.30565421E+09   7.02449137E+08   0.089932701     
  85               7.58577575E+01   5.18715055E-01   3250.89572197    3.79687914E-06   1.15571741E+18   2.01342791E+07   1.30790079E+09   6.63590234E+08   0.090492071     
  86               8.91250938E+01   5.67485426E-01   3277.49482460    4.10462208E-06   1.25411839E+18   1.81053979E+07   1.30992215E+09   6.24523010E+08   0.091051538     
  87               1.04712855E+02   6.20497055E-01   3304.50225875    4.43465098E-06   1.36006452E+18   1.62815087E+07   1.31175361E+09   5.85230368E+08   0.091565923     
  88               1.23026877E+02   6.78112795E-01   3331.51218524    4.78891262E-06   1.47430172E+18   1.46150787E+07   1.31341268E+09   5.45693757E+08   0.092020496     
  89               1.44543977E+02   7.40730649E-01   3358.92449521    5.16891210E-06   1.59729787E+18   1.31134800E+07   1.31492226E+09   5.05893443E+08   0.092408749     
  90               1.69824365E+02   8.08787804E-01   3386.32458589    5.57698481E-06   1.72994322E+18   1.17427946E+07   1.31628386E+09   4.65808535E+08   0.092739731     
  91               1.99526231E+02   8.82764260E-01   3414.12559516    6.01493322E-06   1.87279865E+18   1.05151599E+07   1.31752096E+09   4.25417532E+08   0.093042337     
  92               2.34422882E+02   9.63186606E-01   3441.92398903    6.48546378E-06   2.02691249E+18   9.40462029E+06   1.31862583E+09   3.84698532E+08   0.093361561     
  93               2.75422870E+02   1.05063082E+00   3470.16657599    6.99061505E-06   2.19293446E+18   8.41588516E+06   1.31962740E+09   3.43630017E+08   0.093717155     
  94               3.23593657E+02   1.14572592E+00   3498.45415194    7.53344517E-06   2.37208579E+18   7.52501344E+06   1.32051511E+09   3.02190957E+08   0.094156068     
  95               3.80189396E+02   1.24915757E+00   3527.26816525    8.11618596E-06   2.56510168E+18   6.73481236E+06   1.32131903E+09   2.60361059E+08   0.094688336     
  96               4.46683592E+02   1.36167287E+00   3556.20784222    8.74226384E-06   2.77339347E+18   6.02238161E+06   1.32202623E+09   2.18120472E+08   0.095317176     
  97               5.24807460E+02   1.48408570E+00   3585.76378768    9.41418225E-06   2.99780337E+18   5.38917819E+06   1.32266801E+09   1.75449748E+08   0.096028784     
  98               6.16595002E+02   1.61728478E+00   3615.51988820    1.01358970E-05   3.23997444E+18   4.81500161E+06   1.32323257E+09   1.32329091E+08   0.09677535      
  99               7.24435960E+02   1.76224217E+00   3645.94577044    1.09104143E-05   3.50091224E+18   4.30265368E+06   1.32375344E+09   8.87382521E+07   0.09753962      
  100              8.51138038E+02   1.92002225E+00   3676.60823464    1.17423927E-05   3.78255059E+18   3.83952962E+06   1.32417931E+09   4.46563767E+07   0.098302449     
  101              1.00000000E+03   2.09204083E+00   3708.01700283    1.26364651E-05   4.08652613E+18   3.63584219E+06   1.32438640E+09   0.00000000E+00   0.09904503      
