# ATMO pressure-temperature profile
# Effective temperature = 1200.0K
# log(g) = 4.5cm/s^2
# M/H = 0.0
# Optical depth grid in band 17 (1.20-1.33microns)
# All parameters in cgs units
#
# Model Level      Optical Depth    Pressure         Temperature      Density          Number Density   Rad Flux         Conv Flux        Radial Extension Adiabatic Gradient
#                                   [Ba]             [K]              [g/cm^3]         [/cm^3]          [ergs/s/cm^2/sr] [ergs/s/cm^2/sr] [cm]             [K/Ba]          
  1                5.00000000E-06   1.00000000E-05   378.33277256     7.49378149E-10   1.91448460E+14   1.17570810E+08   0.00000000E+00   1.94383616E+07   0.2980163       
  2                6.05313423E-06   4.59790181E-05   432.75876799     3.01229457E-09   7.69554987E+14   1.17570810E+08   0.00000000E+00   1.86810901E+07   0.29751483      
  3                7.32808679E-06   8.66909354E-05   451.37454094     5.44528067E-09   1.39111319E+15   1.17570810E+08   0.00000000E+00   1.83632105E+07   0.2974262       
  4                8.87157859E-06   1.34411908E-04   469.41198696     8.11833924E-09   2.07400314E+15   1.17570810E+08   0.00000000E+00   1.81362420E+07   0.2994162       
  5                1.07401712E-05   1.90757123E-04   479.62210839     1.12762634E-08   2.88076219E+15   1.17570810E+08   0.00000000E+00   1.79500157E+07   0.29930271      
  6                1.30023396E-05   2.57541488E-04   493.17390897     1.48057612E-08   3.78244784E+15   1.17570810E+08   0.00000000E+00   1.77865688E+07   0.29928761      
  7                1.57409813E-05   3.36841865E-04   501.02765248     1.90611027E-08   4.86956545E+15   1.17570810E+08   0.00000000E+00   1.76372942E+07   0.29919643      
  8                1.90564546E-05   4.31144002E-04   512.73129459     2.38405445E-08   6.09057594E+15   1.17570810E+08   0.00000000E+00   1.74974033E+07   0.29918815      
  9                2.30702555E-05   5.43414565E-04   519.33180818     2.96667534E-08   7.57900495E+15   1.17570810E+08   0.00000000E+00   1.73639059E+07   0.2991054       
  10               2.79294706E-05   6.77246086E-04   529.88970342     3.62363703E-08   9.25735381E+15   1.17570810E+08   0.00000000E+00   1.72348283E+07   0.29910187      
  11               3.38121669E-05   8.36903212E-04   535.66697831     4.42959541E-08   1.13163455E+16   1.17570810E+08   0.00000000E+00   1.71088099E+07   0.29901989      
  12               4.09339169E-05   1.02750727E-03   545.49948596     5.34040581E-08   1.36432048E+16   1.17570810E+08   0.00000000E+00   1.69848837E+07   0.29901992      
  13               4.95556987E-05   1.25516304E-03   550.67825079     6.46228265E-08   1.65092772E+16   1.17570810E+08   0.00000000E+00   1.68623379E+07   0.29893768      
  14               5.99934592E-05   1.52718157E-03   560.05400888     7.73115712E-08   1.97508870E+16   1.17570810E+08   0.00000000E+00   1.67406399E+07   0.29894064      
  15               7.26296922E-05   1.85226530E-03   564.92275289     9.29603806E-08   2.37487066E+16   1.17570810E+08   0.00000000E+00   1.66193781E+07   0.29885263      
  16               8.79274551E-05   2.24080455E-03   574.15385496     1.10652050E-07   2.82684198E+16   1.17570810E+08   0.00000000E+00   1.64982329E+07   0.29885686      
  17               1.06447338E-04   2.70517471E-03   578.90044033     1.32487606E-07   3.38467738E+16   1.17570810E+08   0.00000000E+00   1.63769507E+07   0.29876368      
  18               1.28868005E-04   3.26009892E-03   588.23667094     1.57131233E-07   4.01425098E+16   1.17570810E+08   0.00000000E+00   1.62553280E+07   0.29876783      
  19               1.56011066E-04   3.92307340E-03   593.11799957     1.87529333E-07   4.79083451E+16   1.17570810E+08   0.00000000E+00   1.61331956E+07   0.29866392      
  20               1.88871184E-04   4.71491962E-03   602.69331791     2.21800131E-07   5.66635469E+16   1.17570810E+08   0.00000000E+00   1.60104162E+07   0.29866751      
  21               2.28652526E-04   5.66039114E-03   607.73439718     2.64068472E-07   6.74618839E+16   1.17570809E+08   0.00000000E+00   1.58868758E+07   0.29855196      
  22               2.76812886E-04   6.78886546E-03   617.64853629     3.11630383E-07   7.96125666E+16   1.17570811E+08   0.00000000E+00   1.57624777E+07   0.29855344      
  23               3.35117111E-04   8.13517311E-03   623.05782481     3.70188142E-07   9.45723725E+16   1.17570809E+08   0.00000000E+00   1.56371309E+07   0.29842419      
  24               4.05701771E-04   9.74105434E-03   633.42641951     4.36007391E-07   1.11387289E+17   1.17570812E+08   0.00000000E+00   1.55107286E+07   0.29842351      
  25               4.91153455E-04   1.16559515E-02   639.34062169     5.16891676E-07   1.32050872E+17   1.17570808E+08   0.00000000E+00   1.53831732E+07   0.29828844      
  26               5.94603558E-04   1.39383664E-02   650.45132627     6.07549187E-07   1.55211149E+17   1.17570813E+08   0.00000000E+00   1.52543767E+07   0.29830193      
  27               7.19843029E-04   1.66570682E-02   657.28679553     7.18502156E-07   1.83556385E+17   1.17570806E+08   0.00000000E+00   1.51242528E+07   0.29812179      
  28               8.71461295E-04   1.98931763E-02   669.41885471     8.42540061E-07   2.15244484E+17   1.17570816E+08   0.00000000E+00   1.49927262E+07   0.2980822       
  29               1.05501444E-03   2.37415043E-02   677.40083482     9.93682824E-07   2.53856534E+17   1.17570802E+08   0.00000000E+00   1.48597258E+07   0.2978816       
  30               1.27722880E-03   2.83131769E-02   690.89711642     1.16187779E-06   2.96825400E+17   1.17570819E+08   0.00000000E+00   1.47251797E+07   0.29783985      
  31               1.54624747E-03   3.37370954E-02   700.44825066     1.36557889E-06   3.48865058E+17   1.17570798E+08   0.00000000E+00   1.45890119E+07   0.29759433      
  32               1.87192870E-03   4.01634570E-02   715.59314687     1.59130128E-06   4.06528271E+17   1.17570827E+08   0.00000000E+00   1.44511542E+07   0.29752931      
  33               2.26620714E-03   4.77642713E-02   727.00374187     1.86274696E-06   4.75874409E+17   1.17570791E+08   0.00000000E+00   1.43115473E+07   0.2972424       
  34               2.74353120E-03   5.67374495E-02   744.27832107     2.16134559E-06   5.52154072E+17   1.17570834E+08   0.00000000E+00   1.41701283E+07   0.29710864      
  35               3.32139252E-03   6.73067126E-02   758.10238568     2.51721386E-06   6.43067195E+17   1.17570783E+08   0.00000000E+00   1.40268360E+07   0.29668055      
  36               4.02096694E-03   7.97372471E-02   777.83877396     2.90643578E-06   7.42501762E+17   1.17570842E+08   0.00000000E+00   1.38815079E+07   0.29645967      
  37               4.86789053E-03   9.43394321E-02   794.31445509     3.36735859E-06   8.60253863E+17   1.17570777E+08   0.00000000E+00   1.37339057E+07   0.29598132      
  38               5.89319895E-03   1.11477531E-01   816.84000590     3.86934627E-06   9.88498877E+17   1.17570849E+08   0.00000000E+00   1.35837645E+07   0.29572143      
  39               7.13446485E-03   1.31567749E-01   836.38597449     4.45993448E-06   1.13937987E+18   1.17570769E+08   0.00000000E+00   1.34308312E+07   0.29515368      
  40               8.63717467E-03   1.55117808E-01   861.93770527     5.10232575E-06   1.30350175E+18   1.17570854E+08   0.00000000E+00   1.32747158E+07   0.29477618      
  41               1.04563955E-02   1.82725771E-01   884.62032445     5.85627559E-06   1.49612793E+18   1.17570766E+08   0.00000000E+00   1.31150024E+07   0.29401458      
  42               1.26587931E-02   2.15200269E-01   913.34864032     6.68001822E-06   1.70660126E+18   1.17570860E+08   0.00000000E+00   1.29508118E+07   0.29345385      
  43               1.53250748E-02   2.53579567E-01   939.44739098     7.65262167E-06   1.95509395E+18   1.17570761E+08   0.00000000E+00   1.27810622E+07   0.29248684      
  44               1.85529469E-02   2.99539181E-01   971.81324940     8.73801027E-06   2.23252670E+18   1.17570854E+08   0.00000000E+00   1.26033257E+07   0.2917669       
  45               2.24606956E-02   3.55390014E-01   1002.10320812    1.00532072E-05   2.56873089E+18   1.17570769E+08   0.00000000E+00   1.24148822E+07   0.29061987      
  46               2.71915211E-02   4.24783623E-01   1039.36862469    1.15841306E-05   2.96022009E+18   1.17570856E+08   0.00000000E+00   1.22115278E+07   0.28970913      
  47               3.29187854E-02   5.12638757E-01   1075.42660047    1.35098965E-05   3.45268138E+18   1.17570760E+08   0.00000000E+00   1.19894409E+07   0.28832729      
  48               3.98523653E-02   6.25881060E-01   1118.83970160    1.58522768E-05   4.05181661E+18   1.17570867E+08   0.00000000E+00   1.17447291E+07   0.28715943      
  49               4.82463432E-02   7.72577340E-01   1160.61403168    1.88617096E-05   4.82147577E+18   1.17570750E+08   0.00000000E+00   1.14764462E+07   0.28545579      
  50               5.84083183E-02   9.61937108E-01   1208.84019563    2.25456952E-05   5.76372997E+18   1.17570897E+08   0.00000000E+00   1.11860598E+07   0.28398163      
  51               7.07106781E-02   1.20305441E+00   1253.83776701    2.71833666E-05   6.94975926E+18   1.17570685E+08   0.00000000E+00   1.08780603E+07   0.28207832      
  52               8.56042452E-02   1.50359171E+00   1303.77389721    3.26709831E-05   8.35321156E+18   1.17571019E+08   0.00000000E+00   1.05591486E+07   0.28055238      
  53               1.03634797E-01   1.86980578E+00   1349.70688014    3.92442819E-05   1.00342028E+19   1.17570519E+08   0.00000000E+00   1.02357278E+07   0.27867588      
  54               1.25463068E-01   2.30722273E+00   1400.54269655    4.66657701E-05   1.19321583E+19   1.17571232E+08   0.00000000E+00   9.91249850E+06   0.2771825       
  55               1.51888958E-01   2.82211614E+00   1447.65690996    5.52216139E-05   1.41200123E+19   1.17570067E+08   0.00000000E+00   9.59174949E+06   0.27522689      
  56               1.83880850E-01   3.41790062E+00   1499.92668317    6.45489527E-05   1.65049890E+19   1.17571814E+08   0.00000000E+00   9.27618151E+06   0.27358009      
  57               2.22611093E-01   4.09383596E+00   1548.48181934    7.48951169E-05   1.91491793E+19   1.17569313E+08   0.00000000E+00   8.96875599E+06   0.27153024      
  58               2.69498965E-01   4.83248303E+00   1601.21862175    8.55311117E-05   2.18597678E+19   1.17572170E+08   0.00000000E+00   8.67689585E+06   0.26982241      
  59               3.26262682E-01   5.61807261E+00   1649.59969430    9.65244296E-05   2.46680386E+19   1.17570757E+08   0.00000000E+00   8.40348322E+06   0.26784534      
  60               3.94982361E-01   6.41713445E+00   1701.60108549    1.06904682E-04   2.73155044E+19   1.17570798E+08   0.00000000E+00   8.15472867E+06   0.2661087       
  61               4.78176250E-01   7.14625922E+00   1750.12532963    1.15824622E-04   2.95757288E+19   1.14321666E+08   3.25705196E+06   7.94751045E+06   0.26408112      
  62               5.78893005E-01   7.73537606E+00   1787.66306457    1.22865321E-04   3.13416318E+19   1.08548759E+08   9.02823557E+06   7.79133496E+06   0.26256947      
  63               7.00823412E-01   8.36291634E+00   1823.88555698    1.30190594E-04   3.32113101E+19   1.02124081E+08   1.54493968E+07   7.63442973E+06   0.26108157      
  64               8.48435636E-01   8.87973131E+00   1853.23201315    1.36089980E-04   3.47053054E+19   9.56339251E+07   2.19312273E+07   7.51164182E+06   0.25991582      
  65               1.02713896E+00   9.26512849E+00   1873.10740056    1.40487986E-04   3.58273434E+19   9.01961887E+07   2.73638545E+07   7.42350123E+06   0.25860783      
  66               1.24348200E+00   9.70795669E+00   1896.46847334    1.45386841E-04   3.70772950E+19   8.51558072E+07   3.24052479E+07   7.32551765E+06   0.25764609      
  67               1.50539269E+00   1.02140973E+01   1920.76471362    1.51028908E-04   3.85169298E+19   7.97594031E+07   3.78336189E+07   7.21750397E+06   0.25651261      
  68               1.82246880E+00   1.07893989E+01   1948.55356379    1.57250495E-04   4.01061286E+19   7.31597597E+07   4.45014197E+07   7.09945294E+06   0.25594267      
  69               2.20632965E+00   1.12229971E+01   1967.63752334    1.62121024E-04   4.13132722E+19   6.66372502E+07   5.09651868E+07   7.01356716E+06   0.25528355      
  70               2.67104190E+00   1.15409445E+01   1982.34091626    1.65474721E-04   4.21685675E+19   6.15635689E+07   5.59792201E+07   6.95218108E+06   0.25480936      
  71               3.23363503E+00   1.19116849E+01   1997.72633455    1.69471928E-04   4.31879948E+19   5.74253860E+07   6.01195251E+07   6.88217186E+06   0.25397044      
  72               3.91472538E+00   1.23423730E+01   2016.43360375    1.73966208E-04   4.43343739E+19   5.36865970E+07   6.38606128E+07   6.80285205E+06   0.25331825      
  73               4.73927163E+00   1.28389076E+01   2036.02585000    1.79218788E-04   4.56741660E+19   5.00655398E+07   6.74833672E+07   6.71392671E+06   0.25226885      
  74               5.73748947E+00   1.34095787E+01   2059.06648056    1.85083484E-04   4.71705136E+19   4.67860924E+07   7.07644633E+07   6.61484112E+06   0.2514066       
  75               6.94595877E+00   1.40650312E+01   2083.25690782    1.91867996E-04   4.89016721E+19   4.36930145E+07   7.38596290E+07   6.50485031E+06   0.25008294      
  76               8.40896415E+00   1.48146458E+01   2111.02664050    1.99424578E-04   5.08303849E+19   4.08020930E+07   7.67525078E+07   6.38366560E+06   0.2489244       
  77               1.01801177E+01   1.56684272E+01   2140.00281842    2.08048620E-04   5.30318647E+19   3.79529178E+07   7.96035077E+07   6.25111694E+06   0.24731113      
  78               1.23243238E+01   1.66371616E+01   2172.48118979    2.17591611E-04   5.54688355E+19   3.52680887E+07   8.22899513E+07   6.10713705E+06   0.24588504      
  79               1.49201573E+01   1.77324174E+01   2206.12273225    2.28358189E-04   5.82189159E+19   3.25902396E+07   8.49692299E+07   5.95175998E+06   0.24393503      
  80               1.80627429E+01   1.89668227E+01   2243.05814751    2.40204602E-04   6.12463050E+19   3.00617398E+07   8.74989412E+07   5.78508907E+06   0.24209777      
  81               2.18672415E+01   2.03540791E+01   2281.01533833    2.53449311E-04   6.46322228E+19   2.75324740E+07   9.00293375E+07   5.60729322E+06   0.23973159      
  82               2.64730696E+01   2.19093225E+01   2321.97127086    2.67957199E-04   6.83436149E+19   2.51305108E+07   9.24322098E+07   5.41857166E+06   0.2374706       
  83               3.20490087E+01   2.36484787E+01   2363.74541619    2.84089079E-04   7.24650085E+19   2.27296440E+07   9.48336550E+07   5.21923223E+06   0.23480721      
  84               3.87993903E+01   2.55900051E+01   2408.20488124    3.01665311E-04   7.69666846E+19   2.05484681E+07   9.70152796E+07   5.00950473E+06   0.23222092      
  85               4.69715834E+01   2.77547207E+01   2453.28897490    3.21083386E-04   8.19434027E+19   1.84491567E+07   9.91149432E+07   4.78955092E+06   0.22919155      
  86               5.68650599E+01   3.01652270E+01   2500.73012498    3.42237196E-04   8.73706589E+19   1.65526645E+07   1.01011564E+08   4.55959826E+06   0.22633551      
  87               6.88423680E+01   3.28468555E+01   2548.63419353    3.65521010E-04   9.33495296E+19   1.47695117E+07   1.02794749E+08   4.31983548E+06   0.22305664      
  88               8.33424188E+01   3.58284433E+01   2598.57149497    3.90867320E-04   9.98663341E+19   1.32023080E+07   1.04361926E+08   4.07038738E+06   0.21994826      
  89               1.00896570E+02   3.91422655E+01   2648.85239436    4.18707909E-04   1.07032098E+20   1.17423024E+07   1.05821920E+08   3.81134988E+06   0.21649779      
  90               1.22148096E+02   4.28248173E+01   2700.89009614    4.49019220E-04   1.14845622E+20   1.04440757E+07   1.07120214E+08   3.54277521E+06   0.21320866      
  91               1.47875764E+02   4.69167276E+01   2753.17637648    4.82276989E-04   1.23429656E+20   9.23500190E+06   1.08329511E+08   3.26470794E+06   0.20964256      
  92               1.79022369E+02   5.14635067E+01   2806.97021283    5.18505313E-04   1.32796739E+20   8.15752529E+06   1.09407406E+08   2.97717738E+06   0.2062576       
  93               2.16729286E+02   5.65153040E+01   2860.93591074    5.58224208E-04   1.43081597E+20   7.16907245E+06   1.10396534E+08   2.68023633E+06   0.20280577      
  94               2.62378292E+02   6.21273706E+01   2916.24846367    6.01487715E-04   1.54306525E+20   6.30319096E+06   1.11263327E+08   2.37396179E+06   0.19952443      
  95               3.17642204E+02   6.83587137E+01   2971.63109465    6.48864025E-04   1.66619117E+20   5.53571710E+06   1.12032060E+08   2.05853585E+06   0.19634318      
  96               3.84546179E+02   7.52729424E+01   3028.24739418    7.00396826E-04   1.80041814E+20   4.86216919E+06   1.12707565E+08   1.73419527E+06   0.19316943      
  97               4.65541927E+02   8.29331875E+01   3084.67134307    7.56708432E-04   1.94735575E+20   4.25308252E+06   1.13319223E+08   1.40144928E+06   0.19005233      
  98               5.63597555E+02   9.14012139E+01   3142.06847236    8.17737083E-04   2.10698847E+20   3.71355677E+06   1.13861592E+08   1.06102696E+06   0.18704505      
  99               6.82306330E+02   1.00742939E+02   3198.98350924    8.84144459E-04   2.28101665E+20   3.22872225E+06   1.14349532E+08   7.13598411E+05   0.18425058      
  100              8.26018359E+02   1.11029099E+02   3256.73457673    9.55817400E-04   2.46933659E+20   2.80130680E+06   1.14780314E+08   3.59754724E+05   0.18152922      
  101              1.00000000E+03   1.22336272E+02   3313.77180295    1.03355628E-03   2.67398202E+20   2.58094003E+06   1.15003013E+08   0.00000000E+00   0.1790212       
