# ATMO pressure-temperature profile
# Effective temperature = 1400.0K
# log(g) = 2.5cm/s^2
# M/H = 0.0
# Optical depth grid in band 17 (1.20-1.33microns)
# All parameters in cgs units
#
# Model Level      Optical Depth    Pressure         Temperature      Density          Number Density   Rad Flux         Conv Flux        Radial Extension Adiabatic Gradient
#                                   [Ba]             [K]              [g/cm^3]         [/cm^3]          [ergs/s/cm^2/sr] [ergs/s/cm^2/sr] [cm]             [K/Ba]          
  1                1.00000000E-04   1.00000000E-05   585.39612227     4.84022115E-10   1.23730281E+14   2.17814181E+08   0.00000000E+00   1.92813386E+09   0.29797351      
  2                1.17489755E-04   2.16960226E-05   650.27392617     9.45012268E-10   2.41662700E+14   2.17814180E+08   0.00000000E+00   1.87341766E+09   0.2978256       
  3                1.38038426E-04   4.00824861E-05   675.15452458     1.68150952E-09   4.30008764E+14   2.17814179E+08   0.00000000E+00   1.82729326E+09   0.29757779      
  4                1.62181010E-04   6.18122671E-05   695.73089279     2.51638182E-09   6.43515814E+14   2.17814179E+08   0.00000000E+00   1.79388774E+09   0.29728358      
  5                1.90546072E-04   8.71845492E-05   708.49679436     3.48533670E-09   8.91307326E+14   2.17814178E+08   0.00000000E+00   1.76679525E+09   0.29707358      
  6                2.23872114E-04   1.16687215E-04   723.24073637     4.56963821E-09   1.16860095E+15   2.17814178E+08   0.00000000E+00   1.74341773E+09   0.29711085      
  7                2.63026799E-04   1.50983747E-04   732.66294848     5.83670719E-09   1.49262877E+15   2.17814178E+08   0.00000000E+00   1.72241744E+09   0.29697782      
  8                3.09029543E-04   1.90820512E-04   745.34163400     7.25121223E-09   1.85436625E+15   2.17814178E+08   0.00000000E+00   1.70305344E+09   0.29677175      
  9                3.63078055E-04   2.37101244E-04   753.37206996     8.91391631E-09   2.27955543E+15   2.17814177E+08   0.00000000E+00   1.68484969E+09   0.29664808      
  10               4.26579519E-04   2.90850027E-04   765.06183258     1.07675041E-08   2.75358452E+15   2.17814177E+08   0.00000000E+00   1.66750059E+09   0.29644141      
  11               5.01187234E-04   3.53303482E-04   772.32866780     1.29566698E-08   3.31338271E+15   2.17814177E+08   0.00000000E+00   1.65077997E+09   0.29632252      
  12               5.88843655E-04   4.25869249E-04   783.55881084     1.53939698E-08   3.93668371E+15   2.17814176E+08   0.00000000E+00   1.63453160E+09   0.29610971      
  13               6.91830971E-04   5.10207092E-04   790.48604982     1.82813113E-08   4.67496239E+15   2.17814176E+08   0.00000000E+00   1.61863354E+09   0.29598878      
  14               8.12830516E-04   6.08214167E-04   801.57950005     2.14913501E-08   5.49586138E+15   2.17814175E+08   0.00000000E+00   1.60299767E+09   0.29576371      
  15               9.54992586E-04   7.22145477E-04   808.42786863     2.53010070E-08   6.47007416E+15   2.17814175E+08   0.00000000E+00   1.58754718E+09   0.29563685      
  16               1.12201845E-03   8.54560442E-04   819.61537290     2.95315239E-08   7.55193997E+15   2.17814174E+08   0.00000000E+00   1.57222836E+09   0.29539713      
  17               1.31825674E-03   1.00846393E-03   826.53426540     3.45583686E-08   8.83741694E+15   2.17814173E+08   0.00000000E+00   1.55699383E+09   0.29526162      
  18               1.54881662E-03   1.18728087E-03   837.92251660     4.01330521E-08   1.02630265E+16   2.17814172E+08   0.00000000E+00   1.54181002E+09   0.29500348      
  19               1.81970086E-03   1.39502613E-03   845.02053880     4.67593156E-08   1.19575145E+16   2.17814171E+08   0.00000000E+00   1.52664489E+09   0.29485608      
  20               2.13796209E-03   1.63628294E-03   856.78053546     5.40929631E-08   1.38329450E+16   2.17814169E+08   0.00000000E+00   1.51147525E+09   0.29457538      
  21               2.51188643E-03   1.91641525E-03   864.22747056     6.28078465E-08   1.60615476E+16   2.17814168E+08   0.00000000E+00   1.49627727E+09   0.29441264      
  22               2.95120923E-03   2.24151004E-03   876.44460464     7.24381756E-08   1.85243107E+16   2.17814166E+08   0.00000000E+00   1.48103607E+09   0.29410688      
  23               3.46736850E-03   2.61866576E-03   884.28737516     8.38761016E-08   2.14492684E+16   2.17814164E+08   0.00000000E+00   1.46573514E+09   0.29392624      
  24               4.07380278E-03   3.05592705E-03   897.09358336     9.64841098E-08   2.46735178E+16   2.17814161E+08   0.00000000E+00   1.45036442E+09   0.29358974      
  25               4.78630092E-03   3.56267371E-03   905.59524607     1.11427568E-07   2.84949405E+16   2.17814158E+08   0.00000000E+00   1.43490950E+09   0.29338336      
  26               5.62341325E-03   4.14945714E-03   919.20685630     1.27857955E-07   3.26966959E+16   2.17814154E+08   0.00000000E+00   1.41936354E+09   0.29300994      
  27               6.60693448E-03   4.82862312E-03   928.48092018     1.47299104E-07   3.76683125E+16   2.17814150E+08   0.00000000E+00   1.40371362E+09   0.29277346      
  28               7.76247117E-03   5.61443508E-03   943.04104752     1.68625900E-07   4.31222395E+16   2.17814145E+08   0.00000000E+00   1.38794635E+09   0.29235639      
  29               9.12010839E-03   6.52350847E-03   953.27409258     1.93826072E-07   4.95666171E+16   2.17814139E+08   0.00000000E+00   1.37204512E+09   0.29208216      
  30               1.07151931E-02   7.57447723E-03   969.01784522     2.21395469E-07   5.66169838E+16   2.17814133E+08   0.00000000E+00   1.35600161E+09   0.29161248      
  31               1.25892541E-02   8.78882415E-03   980.42319755     2.53901277E-07   6.49296462E+16   2.17814126E+08   0.00000000E+00   1.33980493E+09   0.29129243      
  32               1.47910839E-02   1.01903486E-02   997.60546424     2.89319075E-07   7.39871094E+16   2.17814116E+08   0.00000000E+00   1.32345260E+09   0.29092255      
  33               1.73780083E-02   1.18061034E-02   1010.58216853    3.30888416E-07   8.46176170E+16   2.17814103E+08   0.00000000E+00   1.30693883E+09   0.29077621      
  34               2.04173794E-02   1.36655696E-02   1029.68135921    3.75898628E-07   9.61281819E+16   2.17814090E+08   0.00000000E+00   1.29026589E+09   0.29004683      
  35               2.39883292E-02   1.58016646E-02   1044.61253464    4.28443120E-07   1.09565404E+17   2.17814079E+08   0.00000000E+00   1.27343377E+09   0.28945352      
  36               2.81838293E-02   1.82494292E-02   1065.96209462    4.84900288E-07   1.24003334E+17   2.17814065E+08   0.00000000E+00   1.25645146E+09   0.28853314      
  37               3.31131121E-02   2.10466163E-02   1083.39647598    5.50223940E-07   1.40708620E+17   2.17814043E+08   0.00000000E+00   1.23932666E+09   0.28782643      
  38               3.89045145E-02   2.42318875E-02   1107.68416716    6.19605669E-07   1.58451785E+17   2.17814024E+08   0.00000000E+00   1.22207547E+09   0.28682344      
  39               4.57088190E-02   2.78452708E-02   1128.26894791    6.99008749E-07   1.78757656E+17   2.17814003E+08   0.00000000E+00   1.20471285E+09   0.28609862      
  40               5.37031796E-02   3.19322726E-02   1156.12514360    7.82291064E-07   2.00055650E+17   2.17813973E+08   0.00000000E+00   1.18723535E+09   0.28507474      
  41               6.30957344E-02   3.65443703E-02   1180.42575896    8.76849266E-07   2.24237191E+17   2.17813949E+08   0.00000000E+00   1.16962565E+09   0.28433577      
  42               7.41310241E-02   4.17337008E-02   1212.35372441    9.74990556E-07   2.49335081E+17   2.17813907E+08   0.00000000E+00   1.15187768E+09   0.2833827       
  43               8.70963590E-02   4.75508308E-02   1241.05092533    1.08520355E-06   2.77520038E+17   2.17813842E+08   0.00000000E+00   1.13399416E+09   0.28256159      
  44               1.02329299E-01   5.40423270E-02   1277.87577322    1.19781166E-06   3.06317102E+17   2.17813737E+08   0.00000000E+00   1.11598907E+09   0.2813431       
  45               1.20226443E-01   6.12433715E-02   1312.10102955    1.32201499E-06   3.38078579E+17   2.17813587E+08   0.00000000E+00   1.09789304E+09   0.28011768      
  46               1.41253754E-01   6.91485751E-02   1357.34379791    1.44294121E-06   3.68993921E+17   2.17418007E+08   4.10440918E+05   1.07979330E+09   0.27841702      
  47               1.65958691E-01   7.76765546E-02   1401.88033176    1.56949900E-06   4.01332981E+17   2.15328887E+08   2.50776081E+06   1.06187297E+09   0.27685465      
  48               1.94984460E-01   8.65588480E-02   1444.43473289    1.69823964E-06   4.34049624E+17   2.11981554E+08   5.86116473E+06   1.04466700E+09   0.27506257      
  49               2.29086765E-01   9.58028468E-02   1485.17077914    1.82811554E-06   4.67226921E+17   2.07650895E+08   1.02086942E+07   1.02807647E+09   0.27315242      
  50               2.69153480E-01   1.05453454E-01   1524.52188704    1.96082393E-06   5.01017605E+17   2.02301162E+08   1.55914674E+07   1.01195721E+09   0.27123255      
  51               3.16227766E-01   1.14940366E-01   1560.42965607    2.08891074E-06   5.33524317E+17   1.95869699E+08   2.20478450E+07   9.97133458E+08   0.26939308      
  52               3.71535229E-01   1.23386808E-01   1590.46276273    2.20334554E-06   5.61915569E+17   1.89156105E+08   2.87492486E+07   9.84681678E+08   0.26782905      
  53               4.36515832E-01   1.30732060E-01   1615.22255430    2.29868718E-06   5.86240170E+17   1.83449722E+08   3.44443056E+07   9.74360587E+08   0.26652525      
  54               5.12861384E-01   1.38952748E-01   1641.68431416    2.40370639E-06   6.13060496E+17   1.77942646E+08   3.99485081E+07   9.63301282E+08   0.26521468      
  55               6.02559586E-01   1.46577496E-01   1665.03595215    2.50227326E-06   6.37631146E+17   1.73052742E+08   4.47947023E+07   9.53468540E+08   0.26398497      
  56               7.07945784E-01   1.53068382E-01   1684.20155682    2.58328777E-06   6.58290014E+17   1.68993859E+08   4.88175724E+07   9.45395253E+08   0.26285889      
  57               8.31763771E-01   1.60338871E-01   1704.82250875    2.67318491E-06   6.81217019E+17   1.64630651E+08   5.31935485E+07   9.36646162E+08   0.26158398      
  58               9.77237221E-01   1.68453421E-01   1726.97880666    2.77234465E-06   7.06510576E+17   1.59844048E+08   5.79922513E+07   9.27220178E+08   0.26016704      
  59               1.14815362E+00   1.77474097E-01   1750.51166740    2.88141531E-06   7.34337667E+17   1.54538737E+08   6.33098889E+07   9.17127349E+08   0.25854427      
  60               1.34896288E+00   1.87454379E-01   1775.42319843    3.00059039E-06   7.64750095E+17   1.48631512E+08   6.92310074E+07   9.06393956E+08   0.25670619      
  61               1.58489319E+00   1.98426601E-01   1801.44662246    3.13013858E-06   7.97818926E+17   1.42085525E+08   7.58065412E+07   8.95072297E+08   0.25467226      
  62               1.86208714E+00   2.10378813E-01   1828.43025774    3.26945095E-06   8.33392219E+17   1.35007801E+08   8.29100415E+07   8.83257401E+08   0.2525015       
  63               2.18776162E+00   2.23262477E-01   1855.96475996    3.41788034E-06   8.71308304E+17   1.27782838E+08   9.01051698E+07   8.71069625E+08   0.25011657      
  64               2.57039578E+00   2.37267849E-01   1884.34449582    3.57717175E-06   9.12020142E+17   1.20837344E+08   9.70144970E+07   8.58403395E+08   0.24745132      
  65               3.01995172E+00   2.52726053E-01   1913.85079430    3.75096338E-06   9.56462125E+17   1.14062860E+08   1.03800279E+08   8.45058382E+08   0.24449445      
  66               3.54813389E+00   2.69760988E-01   1944.49059238    3.94004315E-06   1.00484514E+18   1.07241457E+08   1.10635532E+08   8.31045737E+08   0.24131068      
  67               4.16869383E+00   2.88508250E-01   1976.07315725    4.14567140E-06   1.05750166E+18   1.00328958E+08   1.17562020E+08   8.16377032E+08   0.23781066      
  68               4.89778819E+00   3.09117126E-01   2008.57750268    4.36886529E-06   1.11470593E+18   9.33365534E+07   1.24568090E+08   8.01063522E+08   0.23395489      
  69               5.75439937E+00   3.31752695E-01   2041.79199279    4.61118067E-06   1.17687084E+18   8.63154503E+07   1.31599614E+08   7.85115620E+08   0.22974195      
  70               6.76082975E+00   3.56599792E-01   2075.69448518    4.87393094E-06   1.24435270E+18   7.93626015E+07   1.38555024E+08   7.68541410E+08   0.22533957      
  71               7.94328235E+00   3.83863413E-01   2110.11813369    5.15892835E-06   1.31763703E+18   7.25587038E+07   1.45354713E+08   7.51347784E+08   0.22076276      
  72               9.33254301E+00   4.13769665E-01   2145.04614264    5.46778699E-06   1.39716548E+18   6.59821020E+07   1.51925075E+08   7.33541216E+08   0.21607409      
  73               1.09647820E+01   4.46568157E-01   2180.32711594    5.80264233E-06   1.48351498E+18   5.96920530E+07   1.58204279E+08   7.15127586E+08   0.21124476      
  74               1.28824955E+01   4.82533669E-01   2215.93566457    6.16548937E-06   1.57723467E+18   5.37395812E+07   1.64141324E+08   6.96112677E+08   0.20635524      
  75               1.51356125E+01   5.21967484E-01   2251.74247147    6.55880523E-06   1.67899951E+18   4.81430800E+07   1.69719338E+08   6.76502669E+08   0.20135803      
  76               1.77827941E+01   5.65199925E-01   2287.70473549    6.98503328E-06   1.78948460E+18   4.29103622E+07   1.74950641E+08   6.56304190E+08   0.19618289      
  77               2.08929613E+01   6.12593312E-01   2323.66251835    7.44721859E-06   1.90952363E+18   3.80113406E+07   1.79848303E+08   6.35524343E+08   0.19100675      
  78               2.45470892E+01   6.64442671E-01   2359.56787855    7.94794864E-06   2.03962760E+18   3.34974184E+07   1.84324277E+08   6.14211708E+08   0.18606508      
  79               2.88403150E+01   7.21172966E-01   2395.36368711    8.48890310E-06   2.18068942E+18   2.95052133E+07   1.88276042E+08   5.92370924E+08   0.18137055      
  80               3.38844156E+01   7.83349351E-01   2431.15064560    9.07486941E-06   2.33383128E+18   2.59807301E+07   1.91781931E+08   5.69968949E+08   0.17676438      
  81               3.98107171E+01   8.51470999E-01   2466.79241057    9.70976362E-06   2.50013291E+18   2.27988467E+07   1.94951524E+08   5.47019744E+08   0.17237909      
  82               4.67735141E+01   9.26062849E-01   2502.37039134    1.03966767E-05   2.68049319E+18   1.99457333E+07   1.97795553E+08   5.23542504E+08   0.16824493      
  83               5.49540874E+01   1.00771278E+00   2537.76987533    1.11400405E-05   2.87614229E+18   1.74448384E+07   2.00281649E+08   4.99550166E+08   0.16441648      
  84               6.45654229E+01   1.09706270E+00   2573.12084491    1.19434485E-05   3.08814090E+18   1.52560815E+07   2.02453914E+08   4.75054258E+08   0.16067544      
  85               7.58577575E+01   1.19480027E+00   2608.21839011    1.28124394E-05   3.31800625E+18   1.33452027E+07   2.04348348E+08   4.50068739E+08   0.15717729      
  86               8.91250938E+01   1.30165581E+00   2643.26500996    1.37505220E-05   3.56682084E+18   1.16827488E+07   2.05995411E+08   4.24610444E+08   0.15391255      
  87               1.04712855E+02   1.41840231E+00   2678.04767825    1.47637599E-05   3.83625056E+18   1.02300580E+07   2.07432202E+08   3.98698887E+08   0.15092891      
  88               1.23026877E+02   1.54585475E+00   2712.79922005    1.58555713E-05   4.12740297E+18   8.95806111E+06   2.08691010E+08   3.72355807E+08   0.14805927      
  89               1.44543977E+02   1.68487689E+00   2747.22804149    1.70331001E-05   4.44221222E+18   7.84350297E+06   2.09798058E+08   3.45603954E+08   0.14537192      
  90               1.69824365E+02   1.83638711E+00   2781.61203973    1.82996849E-05   4.78182325E+18   6.87687707E+06   2.10763114E+08   3.18465754E+08   0.14287503      
  91               1.99526231E+02   2.00136183E+00   2815.66497203    1.96632513E-05   5.14837858E+18   6.03649513E+06   2.11607528E+08   2.90963044E+08   0.14065238      
  92               2.34422882E+02   2.18083183E+00   2849.72051048    2.11267701E-05   5.54301112E+18   5.30849815E+06   2.12340544E+08   2.63117528E+08   0.138634        
  93               2.75422870E+02   2.37588869E+00   2883.45911627    2.26992199E-05   5.96812803E+18   4.67109877E+06   2.12987747E+08   2.34950139E+08   0.13678214      
  94               3.23593657E+02   2.58769303E+00   2917.21252473    2.43836765E-05   6.42496145E+18   4.11625288E+06   2.13556995E+08   2.06480155E+08   0.13505453      
  95               3.80189396E+02   2.81748328E+00   2950.64154921    2.61904592E-05   6.91625080E+18   3.62943871E+06   2.14062402E+08   1.77724873E+08   0.1334849       
  96               4.46683592E+02   3.06658189E+00   2984.11154919    2.81225029E-05   7.44329709E+18   3.20528895E+06   2.14508771E+08   1.48699356E+08   0.1320447       
  97               5.24807460E+02   3.33640457E+00   3017.26964159    3.01916724E-05   8.00922371E+18   2.83182952E+06   2.14907276E+08   1.19416407E+08   0.13073868      
  98               6.16595002E+02   3.62841500E+00   3050.49404261    3.24005146E-05   8.61534377E+18   2.50478488E+06   2.15266039E+08   8.98916897E+07   0.12951227      
  99               7.24435960E+02   3.94414994E+00   3083.39531070    3.47623173E-05   9.26509867E+18   2.21600918E+06   2.15588760E+08   6.01408656E+07   0.12840202      
  100              8.51138038E+02   4.28527361E+00   3116.38657221    3.72792589E-05   9.95985628E+18   1.96304695E+06   2.15876626E+08   3.01747446E+07   0.12738397      
  101              1.00000000E+03   4.65359067E+00   3149.06930568    3.99670391E-05   1.07036476E+19   1.83804179E+06   2.16029229E+08   0.00000000E+00   0.12649595      
