# ATMO pressure-temperature profile
# Effective temperature = 200.0K
# log(g) = 5.5cm/s^2
# M/H = 0.0
# Optical depth grid in band 17 (1.20-1.33microns)
# All parameters in cgs units
#
# Model Level      Optical Depth    Pressure         Temperature      Density          Number Density   Rad Flux         Conv Flux        Radial Extension Adiabatic Gradient
#                                   [Ba]             [K]              [g/cm^3]         [/cm^3]          [ergs/s/cm^2/sr] [ergs/s/cm^2/sr] [cm]             [K/Ba]          
  1                8.00000000E-07   1.00000000E-05   23.24631256      1.21242044E-08   3.11581574E+15   9.06654432E+04   0.00000000E+00   4.89302977E+05   0.34612403      
  2                9.86413681E-07   3.07005328E-04   17.56937963      4.92489308E-07   1.26565496E+17   9.06654432E+04   0.00000000E+00   4.77148418E+05   0.31481548      
  3                1.21626494E-06   6.71481903E-04   20.83193998      9.08472777E-07   2.33469652E+17   9.06654454E+04   0.00000000E+00   4.75425299E+05   0.31484385      
  4                1.49967547E-06   1.11873869E-03   21.04212582      1.49846418E-06   3.85092345E+17   9.06654494E+04   0.00000000E+00   4.74213089E+05   0.31486363      
  5                1.84912550E-06   1.66708914E-03   23.34686097      2.01250815E-06   5.17197201E+17   9.06654559E+04   0.00000000E+00   4.73214547E+05   0.31487984      
  6                2.28000336E-06   2.33894285E-03   23.34665465      2.82359414E-06   7.25639291E+17   9.06654663E+04   0.00000000E+00   4.72323287E+05   0.31489416      
  7                2.81128314E-06   3.16080734E-03   25.39741090      3.50764717E-06   9.01435007E+17   9.06654822E+04   0.00000000E+00   4.71497456E+05   0.31490739      
  8                3.46636019E-06   4.16512327E-03   25.37026579      4.62711361E-06   1.18912821E+18   9.06655063E+04   0.00000000E+00   4.70709127E+05   0.31491995      
  9                4.27408139E-06   5.39035131E-03   27.34523325      5.55575083E-06   1.42777995E+18   9.06655413E+04   0.00000000E+00   4.69944956E+05   0.31493213      
  10               5.27001545E-06   6.88157829E-03   27.35010420      7.09147197E-06   1.82244701E+18   9.06655931E+04   0.00000000E+00   4.69193672E+05   0.31494412      
  11               6.49801917E-06   8.69414704E-03   29.33872287      8.35205022E-06   2.14640472E+18   9.06656668E+04   0.00000000E+00   4.68448889E+05   0.31495605      
  12               8.01216876E-06   1.08918052E-02   29.45876192      1.04205993E-05   2.67800397E+18   9.06657722E+04   0.00000000E+00   4.67703956E+05   0.31496805      
  13               9.87914110E-06   1.35475008E-02   31.48303654      1.21280197E-05   3.11679624E+18   9.06659204E+04   0.00000000E+00   4.66956928E+05   0.3149802       
  14               1.21811499E-05   1.67488415E-02   31.72486499      1.48796361E-05   3.82393788E+18   9.06661277E+04   0.00000000E+00   4.66203328E+05   0.3149926       
  15               1.50195662E-05   2.06002899E-02   33.84728264      1.71536619E-05   4.40834285E+18   9.06664118E+04   0.00000000E+00   4.65440987E+05   0.31500533      
  16               1.85193820E-05   2.52258385E-02   34.23631073      2.07666275E-05   5.33684379E+18   9.06668041E+04   0.00000000E+00   4.64665987E+05   0.31501846      
  17               2.28347147E-05   3.07681855E-02   36.46113541      2.37836781E-05   6.11219972E+18   9.06673356E+04   0.00000000E+00   4.63877360E+05   0.31503207      
  18               2.81555937E-05   3.74008062E-02   37.07305143      2.84334757E-05   7.30715751E+18   9.06680543E+04   0.00000000E+00   4.63070811E+05   0.31504624      
  19               3.47163285E-05   4.53414441E-02   39.54815573      3.23129370E-05   8.30414554E+18   9.06690114E+04   0.00000000E+00   4.62242388E+05   0.31506108      
  20               4.28058268E-05   5.48577846E-02   40.54886635      3.81300056E-05   9.79908191E+18   9.06702881E+04   0.00000000E+00   4.61385058E+05   0.31507671      
  21               5.27803164E-05   6.62515686E-02   43.51497778      4.29106132E-05   1.10276567E+19   9.06719353E+04   0.00000000E+00   4.60494315E+05   0.31509331      
  22               6.50790328E-05   7.99118072E-02   45.12706885      4.99092620E-05   1.28262490E+19   9.06740285E+04   0.00000000E+00   4.59560877E+05   0.31511111      
  23               8.02435604E-05   9.63535425E-02   48.48782511      5.60069990E-05   1.43933147E+19   9.06766239E+04   0.00000000E+00   4.58577465E+05   0.31513038      
  24               9.89416822E-05   1.16233352E-01   50.35086413      6.50625611E-05   1.67205159E+19   9.06798817E+04   0.00000000E+00   4.57536046E+05   0.31515143      
  25               1.21996786E-04   1.40325822E-01   54.10344958      7.31004349E-05   1.87861800E+19   9.06838274E+04   0.00000000E+00   4.56431316E+05   0.31517461      
  26               1.50424124E-04   1.69643944E-01   56.20443422      8.50697393E-05   2.18621878E+19   9.06886728E+04   0.00000000E+00   4.55255638E+05   0.3152004       
  27               1.85475517E-04   2.05542277E-01   60.44224980      9.58446473E-05   2.46312460E+19   9.06943974E+04   0.00000000E+00   4.53998442E+05   0.31781339      
  28               2.28694484E-04   2.49913428E-01   62.94837377      1.11895442E-04   2.87561616E+19   9.07012439E+04   0.00000000E+00   4.52643532E+05   0.31988058      
  29               2.81984210E-04   3.05196300E-01   67.89728554      1.26687619E-04   3.25576232E+19   9.07088665E+04   0.00000000E+00   4.51175224E+05   0.32365296      
  30               3.47691354E-04   3.74201283E-01   70.99320207      1.48557926E-04   3.81781032E+19   9.07171276E+04   0.00000000E+00   4.49584607E+05   0.3244044       
  31               4.28709385E-04   4.60057515E-01   76.71087394      1.69029505E-04   4.34391220E+19   9.07249371E+04   0.00000000E+00   4.47871271E+05   0.32604911      
  32               5.28606003E-04   5.66961359E-01   80.42145195      1.98695885E-04   5.10631251E+19   9.07317256E+04   0.00000000E+00   4.46026605E+05   0.32608775      
  33               6.51780242E-04   6.99827795E-01   87.02344325      2.26653404E-04   5.82479659E+19   9.07345521E+04   0.00000000E+00   4.44046721E+05   0.32580666      
  34               8.03656185E-04   8.63765200E-01   91.33373690      2.66545771E-04   6.84999596E+19   9.07302527E+04   0.00000000E+00   4.41937554E+05   0.32595659      
  35               9.90921819E-04   1.06403944E+00   97.11001494      3.08816875E-04   7.93632681E+19   9.07234721E+04   0.00000000E+00   4.39730115E+05   0.32540331      
  36               1.22182355E-03   1.30813410E+00   103.40985969     3.56531278E-04   9.16254575E+19   9.07035857E+04   0.00000000E+00   4.37403851E+05   0.32544606      
  37               1.50652933E-03   1.60641490E+00   110.45342818     4.09907477E-04   1.05342680E+20   9.06612636E+04   4.35129731E+00   4.34936486E+05   0.32516985      
  38               1.85757643E-03   1.97158223E+00   118.16668864     4.70248251E-04   1.20849726E+20   9.05789789E+04   8.66296835E+01   4.32306306E+05   0.32517054      
  39               2.29042351E-03   2.41501968E+00   126.11154877     5.39726364E-04   1.38704852E+20   9.04268584E+04   2.40080915E+02   4.29522863E+05   0.3249416       
  40               2.82413135E-03   2.92952359E+00   134.39379349     6.14370452E-04   1.57886001E+20   9.01259474E+04   5.43575305E+02   4.26697408E+05   0.32492243      
  41               3.48220225E-03   3.44151556E+00   141.49379046     6.85546270E-04   1.76172532E+20   8.96130134E+04   1.07732623E+03   4.24202620E+05   0.3244275       
  42               4.29361493E-03   3.81656308E+00   146.43603960     7.34770344E-04   1.88777535E+20   8.89412069E+04   1.80400424E+03   4.22531496E+05   0.32422568      
  43               5.29410063E-03   4.11748457E+00   149.96461990     7.73992513E-04   1.98869879E+20   8.82999551E+04   2.46159889E+03   4.21269642E+05   0.32286578      
  44               6.52771662E-03   4.36918625E+00   152.97106116     8.05619677E-04   2.06879338E+20   8.77312754E+04   2.94897719E+03   4.20261590E+05   0.32230872      
  45               8.04878622E-03   4.57143668E+00   155.10589842     8.31310338E-04   2.13476579E+20   8.72926122E+04   3.32351584E+03   4.19480065E+05   0.32005318      
  46               9.92429106E-03   4.82081180E+00   157.86353900     8.61344985E-04   2.21189335E+20   8.70032787E+04   3.61509312E+03   4.18548136E+05   0.31908572      
  47               1.22368206E-02   5.12830825E+00   160.90055044     8.98991071E-04   2.30856672E+20   8.68114044E+04   3.81047004E+03   4.17443106E+05   0.31665763      
  48               1.50882091E-02   5.50749937E+00   164.66280426     9.43404053E-04   2.42261716E+20   8.66878057E+04   3.93788737E+03   4.16141044E+05   0.31549281      
  49               1.86040198E-02   5.97513941E+00   168.84882118     9.98133876E-04   2.56316078E+20   8.65927476E+04   4.03696117E+03   4.14617102E+05   0.3130799       
  50               2.29390746E-02   6.55190155E+00   173.86244451     1.06291953E-03   2.72952717E+20   8.64719156E+04   4.16148898E+03   4.12846373E+05   0.31180865      
  51               2.82842712E-02   7.26327136E+00   179.44629584     1.14165944E-03   2.93172757E+20   8.62232578E+04   4.41347628E+03   4.10804273E+05   0.30970816      
  52               3.48749902E-02   8.14072582E+00   185.95589884     1.23478685E-03   3.17087417E+20   8.56715150E+04   4.97126375E+03   4.08467265E+05   0.30859606      
  53               4.30014593E-02   9.21831441E+00   193.14351951     1.34620216E-03   3.45698277E+20   8.40355779E+04   6.61108337E+03   4.05824236E+05   0.30699719      
  54               5.30215347E-02   1.04940212E+01   201.03202944     1.47236624E-03   3.78096382E+20   7.58823868E+04   1.47615793E+04   4.02958819E+05   0.30598757      
  55               6.53764590E-02   1.19649588E+01   209.18773576     1.61329916E-03   4.14286545E+20   6.02386809E+04   3.04072236E+04   3.99940751E+05   0.3046987       
  56               8.06102920E-02   1.36312728E+01   217.70949655     1.76603216E-03   4.53507918E+20   4.42243369E+04   4.64241919E+04   3.96818984E+05   0.30380721      
  57               9.93938685E-02   1.55083633E+01   226.34014039     1.93272752E-03   4.96283943E+20   3.37478089E+04   5.68933588E+04   3.93606016E+05   0.30291861      
  58               1.22554340E-01   1.76483952E+01   235.42654532     2.11444707E-03   5.42969743E+20   2.88615624E+04   6.17661857E+04   3.90258393E+05   0.30227553      
  59               1.51111597E-01   2.01225549E+01   244.88047785     2.31859263E-03   5.95188864E+20   2.65082010E+04   6.41135580E+04   3.86724549E+05   0.30164771      
  60               1.86323183E-01   2.29970572E+01   254.99696277     2.54415187E-03   6.53225450E+20   2.50071420E+04   6.56160291E+04   3.82981901E+05   0.30119967      
  61               2.29739671E-01   2.63256211E+01   265.52342529     2.80138582E-03   7.18127610E+20   2.38745520E+04   6.67606073E+04   3.79037979E+05   0.30079368      
  62               2.83272943E-01   3.01186809E+01   276.55220818     3.07560331E-03   7.88832247E+20   2.32051247E+04   6.74423032E+04   3.74951606E+05   0.30056106      
  63               3.49280383E-01   3.43827429E+01   287.71101904     3.38830798E-03   8.65585283E+20   2.29992542E+04   6.76424899E+04   3.70772372E+05   0.30030121      
  64               4.30668686E-01   3.90958180E+01   299.08841005     3.70620617E-03   9.46796316E+20   2.34506853E+04   6.71831421E+04   3.66566577E+05   0.30010887      
  65               5.31021855E-01   4.44837884E+01   310.83296217     4.05764038E-03   1.03657454E+21   2.45440718E+04   6.60935039E+04   3.62172945E+05   0.29990652      
  66               6.54759028E-01   5.06023903E+01   323.14790626     4.43985248E-03   1.13421536E+21   2.59106233E+04   6.47293610E+04   3.57614349E+05   0.29978196      
  67               8.07329079E-01   5.75053943E+01   335.70268521     4.85682690E-03   1.24073665E+21   2.74548150E+04   6.31859056E+04   3.52913486E+05   0.29963714      
  68               9.95450561E-01   6.52654539E+01   348.75059660     5.30600016E-03   1.35548352E+21   2.90955348E+04   6.15444684E+04   3.48079503E+05   0.29950885      
  69               1.22740757E+00   7.40423336E+01   362.10320284     5.79757782E-03   1.48106313E+21   3.07434609E+04   5.98961747E+04   3.43075320E+05   0.29932707      
  70               1.51341452E+00   8.39904139E+01   376.10158237     6.33174503E-03   1.61752276E+21   3.22252235E+04   5.84326124E+04   3.37883085E+05   0.29916305      
  71               1.86606598E+00   9.52348487E+01   390.42320632     6.91606590E-03   1.76679480E+21   3.33698173E+04   5.72735202E+04   3.32509720E+05   0.29899205      
  72               2.30089127E+00   1.07865536E+02   405.31394602     7.54553659E-03   1.92760035E+21   3.39633499E+04   5.66834541E+04   3.26980646E+05   0.29879515      
  73               2.83703828E+00   1.21934598E+02   420.34475227     8.22470431E-03   2.10110212E+21   3.39699343E+04   5.66805512E+04   3.21333098E+05   0.29854775      
  74               3.49811672E+00   1.37542392E+02   435.81725754     8.94810601E-03   2.28590400E+21   3.34919642E+04   5.71610222E+04   3.15579814E+05   0.29823788      
  75               4.31323774E+00   1.54912793E+02   451.45092288     9.72916817E-03   2.48543596E+21   3.27165193E+04   5.79371259E+04   3.09692646E+05   0.29785827      
  76               5.31829590E+00   1.74239845E+02   467.62499979     1.05644947E-02   2.69883041E+21   3.16595198E+04   5.89925671E+04   3.03664227E+05   0.29747091      
  77               6.55754979E+00   1.95702923E+02   483.95706066     1.14654050E-02   2.92897942E+21   3.03526666E+04   6.02950384E+04   2.97497242E+05   0.2970065       
  78               8.08557104E+00   2.19487344E+02   500.81369223     1.24260634E-02   3.17438157E+21   2.87823682E+04   6.18583427E+04   2.91195921E+05   0.29652055      
  79               9.96964736E+00   2.45806940E+02   517.79926346     1.34596722E-02   3.43841705E+21   2.68058700E+04   6.38296612E+04   2.84760228E+05   0.29593754      
  80               1.22927457E+01   2.75004316E+02   535.37411398     1.45643389E-02   3.72055715E+21   2.46924575E+04   6.59405628E+04   2.78165732E+05   0.29532095      
  81               1.51571657E+01   3.07680414E+02   553.29521059     1.57670910E-02   4.02780818E+21   2.30061354E+04   6.76236124E+04   2.71346915E+05   0.29460938      
  82               1.86890445E+01   3.44363981E+02   572.05039426     1.70683596E-02   4.36022871E+21   2.16449557E+04   6.89813626E+04   2.64275605E+05   0.29381371      
  83               2.30439114E+01   3.85503429E+02   591.19345698     1.84889344E-02   4.72307091E+21   2.01846767E+04   7.04395389E+04   2.56952287E+05   0.29295699      
  84               2.84135369E+01   4.31472336E+02   611.11804036     2.00189414E-02   5.11391719E+21   1.86677873E+04   7.19556446E+04   2.49396362E+05   0.29192796      
  85               3.50343769E+01   4.82581618E+02   631.25526574     2.16759938E-02   5.53721774E+21   1.71431840E+04   7.34807101E+04   2.41637648E+05   0.29091945      
  86               4.31979859E+01   5.38487116E+02   651.80556337     2.34244428E-02   5.98388300E+21   1.57261211E+04   7.48967198E+04   2.33791972E+05   0.28978915      
  87               5.32638553E+01   5.99379670E+02   672.17634650     2.52843922E-02   6.45869271E+21   1.45024128E+04   7.61172811E+04   2.25879564E+05   0.2886691       
  88               6.56752445E+01   6.67244811E+02   693.41943963     2.72849353E-02   6.96971520E+21   1.34880089E+04   7.71291593E+04   2.17708868E+05   0.28743703      
  89               8.09786996E+01   7.44472395E+02   715.39260120     2.95078720E-02   7.53754632E+21   1.25524572E+04   7.80630297E+04   2.09102061E+05   0.28625481      
  90               9.98481215E+01   8.34239784E+02   739.20408885     3.20007586E-02   8.17433395E+21   1.16894878E+04   7.89267280E+04   1.99864241E+05   0.28493401      
  91               1.23114441E+02   9.41137769E+02   764.80732653     3.48927268E-02   8.91306353E+21   1.09043449E+04   7.97191435E+04   1.89747936E+05   0.28358985      
  92               1.51802212E+02   1.07260586E+03   793.81259664     3.83138616E-02   9.78696460E+21   1.03359397E+04   8.03019504E+04   1.78377557E+05   0.28220081      
  93               1.87174723E+02   1.23779976E+03   826.29123364     4.24767229E-02   1.08503336E+22   1.00767833E+04   8.05776142E+04   1.65428428E+05   0.280764        
  94               2.30789634E+02   1.44615181E+03   863.28416987     4.75000293E-02   1.21334959E+22   1.03433466E+04   8.03173095E+04   1.50760279E+05   0.27929425      
  95               2.84567566E+02   1.70890674E+03   904.17672731     5.35918649E-02   1.36896038E+22   1.13349267E+04   7.93023480E+04   1.34291761E+05   0.27778679      
  96               3.50876675E+02   2.03823723E+03   949.63203728     6.08602014E-02   1.55462344E+22   1.30569930E+04   7.75298686E+04   1.16056337E+05   0.27633381      
  97               4.32636941E+02   2.44771535E+03   998.55768521     6.95060874E-02   1.77547104E+22   1.47555676E+04   7.57842006E+04   9.61471827E+04   0.27477121      
  98               5.33448747E+02   2.95422082E+03   1051.58708201    7.96590392E-02   2.03480854E+22   1.59961332E+04   7.45581031E+04   7.46215675E+04   0.27327756      
  99               6.57751428E+02   3.57953772E+03   1107.85265416    9.16188730E-02   2.34029594E+22   1.77637361E+04   7.28431738E+04   5.14747867E+04   0.27158196      
  100              8.11018759E+02   4.35272660E+03   1168.30838582    1.05643968E-01   2.69854544E+22   1.92603718E+04   7.15108616E+04   2.66222408E+04   0.26994773      
  101              1.00000000E+03   5.30909750E+03   1232.24019190    1.22157282E-01   3.12069389E+22   1.96370636E+04   7.13041631E+04   0.00000000E+00   0.26823627      
