# ATMO pressure-temperature profile
# Effective temperature = 500.0K
# log(g) = 5.5cm/s^2
# M/H = 0.0
# Optical depth grid in band 17 (1.20-1.33microns)
# All parameters in cgs units
#
# Model Level      Optical Depth    Pressure         Temperature      Density          Number Density   Rad Flux         Conv Flux        Radial Extension Adiabatic Gradient
#                                   [Ba]             [K]              [g/cm^3]         [/cm^3]          [ergs/s/cm^2/sr] [ergs/s/cm^2/sr] [cm]             [K/Ba]          
  1                8.00000000E-07   1.00000000E-05   47.16763314      6.01068728E-09   1.53561291E+15   3.54356550E+06   0.00000000E+00   1.12149568E+06   0.34574515      
  2                9.86413681E-07   7.47570903E-05   58.85044611      3.60139575E-08   9.20086099E+15   3.54356550E+06   0.00000000E+00   1.10757726E+06   0.34574515      
  3                1.21626494E-06   1.54470215E-04   65.00571327      6.73692078E-08   1.72115135E+16   3.54356550E+06   0.00000000E+00   1.10245969E+06   0.3147938       
  4                1.49967547E-06   2.52590334E-04   70.53353450      1.01528810E-07   2.59386231E+16   3.54356550E+06   0.00000000E+00   1.09870795E+06   0.3148103       
  5                1.84912550E-06   3.72995389E-04   74.73842415      1.41490651E-07   3.61480910E+16   3.54356550E+06   0.00000000E+00   1.09553118E+06   0.31482411      
  6                2.28000336E-06   5.19183791E-04   78.75700968      1.86896051E-07   4.77482816E+16   3.54356550E+06   0.00000000E+00   1.09268836E+06   0.31483638      
  7                2.81128314E-06   6.95962339E-04   82.17117283      2.40123393E-07   6.13468253E+16   3.54356550E+06   0.00000000E+00   1.09004953E+06   0.31484769      
  8                3.46636019E-06   9.09446109E-04   86.06700209      2.99577031E-07   7.65360656E+16   3.54356550E+06   0.00000000E+00   1.08753247E+06   0.31485838      
  9                4.27408139E-06   1.16742777E-03   89.80547714      3.68549150E-07   9.41570916E+16   3.54356550E+06   0.00000000E+00   1.08507727E+06   0.31486868      
  10               5.27001545E-06   1.47944461E-03   94.22337210      4.45151955E-07   1.13727608E+17   3.54356550E+06   0.00000000E+00   1.08264127E+06   0.31487875      
  11               6.49801917E-06   1.85719510E-03   98.19834769      5.36193529E-07   1.36986948E+17   3.54356550E+06   0.00000000E+00   1.08019621E+06   0.31488872      
  12               8.01216876E-06   2.31498267E-03   102.77153585     6.38620325E-07   1.63155131E+17   3.54356550E+06   0.00000000E+00   1.07772231E+06   0.31489866      
  13               9.87914110E-06   2.87009392E-03   106.89339978     7.61214426E-07   1.94478259E+17   3.54356550E+06   0.00000000E+00   1.07520461E+06   0.31490865      
  14               1.21811499E-05   3.54368434E-03   111.75107838     8.99024427E-07   2.29683155E+17   3.54356550E+06   0.00000000E+00   1.07262973E+06   0.31603052      
  15               1.50195662E-05   4.36138553E-03   116.21349129     1.06387565E-06   2.71827737E+17   3.54356550E+06   0.00000000E+00   1.06998572E+06   0.31751348      
  16               1.85193820E-05   5.35410111E-03   121.51445020     1.24918559E-06   3.19142382E+17   3.54356550E+06   0.00000000E+00   1.06726260E+06   0.32125784      
  17               2.28347147E-05   6.55903669E-03   126.42298478     1.47089854E-06   3.75785363E+17   3.54356550E+06   0.00000000E+00   1.06445161E+06   0.32220699      
  18               2.81555937E-05   8.02146415E-03   132.13324011     1.72111646E-06   4.39711072E+17   3.54356550E+06   0.00000000E+00   1.06154506E+06   0.32450621      
  19               3.47163285E-05   9.79655733E-03   137.39637179     2.02146821E-06   5.16444979E+17   3.54356550E+06   0.00000000E+00   1.05853564E+06   0.32500877      
  20               4.28058268E-05   1.19507517E-02   143.57131367     2.35991438E-06   6.02911253E+17   3.54356550E+06   0.00000000E+00   1.05541673E+06   0.32592967      
  21               5.27803164E-05   1.45645109E-02   149.26628024     2.76632301E-06   7.06740589E+17   3.54356550E+06   0.00000000E+00   1.05218179E+06   0.32582587      
  22               6.50790328E-05   1.77354627E-02   155.89943695     3.22527437E-06   8.23993559E+17   3.54356550E+06   0.00000000E+00   1.04882477E+06   0.3249873       
  23               8.02435604E-05   2.15816667E-02   162.03791774     3.77604336E-06   9.64704195E+17   3.54356550E+06   0.00000000E+00   1.04533954E+06   0.32487143      
  24               9.89416822E-05   2.62464056E-02   169.13185858     4.39959798E-06   1.12401020E+18   3.54356550E+06   0.00000000E+00   1.04172043E+06   0.32418013      
  25               1.21996786E-04   3.19023651E-02   175.69178709     5.14799884E-06   1.31521653E+18   3.54356550E+06   0.00000000E+00   1.03796222E+06   0.32375508      
  26               1.50424124E-04   3.87578195E-02   183.19192584     5.99821059E-06   1.53242365E+18   3.54356550E+06   0.00000000E+00   1.03406095E+06   0.32209886      
  27               1.85475517E-04   4.70629234E-02   190.15029597     7.01677581E-06   1.79270048E+18   3.54356550E+06   0.00000000E+00   1.03001272E+06   0.32138582      
  28               2.28694484E-04   5.71168164E-02   198.13751647     8.17270836E-06   2.08796453E+18   3.54356550E+06   0.00000000E+00   1.02581433E+06   0.31903522      
  29               2.81984210E-04   6.92780976E-02   205.56410187     9.55295545E-06   2.44103787E+18   3.54356550E+06   0.00000000E+00   1.02146195E+06   0.31814441      
  30               3.47691354E-04   8.39816439E-02   213.93174915     1.11295613E-05   2.84338042E+18   3.54356550E+06   0.00000000E+00   1.01695259E+06   0.31579289      
  31               4.28709385E-04   1.01746667E-01   221.67846738     1.30054231E-05   3.32447080E+18   3.54356550E+06   0.00000000E+00   1.01228316E+06   0.31487048      
  32               5.28606003E-04   1.23206859E-01   230.22955788     1.51720161E-05   3.87614170E+18   3.54356550E+06   0.00000000E+00   1.00745202E+06   0.31273717      
  33               6.51780242E-04   1.49129788E-01   238.08980062     1.77580547E-05   4.53679807E+18   3.54356550E+06   0.00000000E+00   1.00245783E+06   0.31190827      
  34               8.03656185E-04   1.80445957E-01   246.73938725     2.07338739E-05   5.29705538E+18   3.54356550E+06   0.00000000E+00   9.97296867E+05   0.31012538      
  35               9.90921819E-04   2.18305805E-01   254.87550151     2.42833708E-05   6.20387489E+18   3.54356550E+06   0.00000000E+00   9.91961256E+05   0.30936741      
  36               1.22182355E-03   2.64091183E-01   263.95813978     2.83655118E-05   7.24677342E+18   3.54356550E+06   0.00000000E+00   9.86444586E+05   0.30779192      
  37               1.50652933E-03   3.19467666E-01   272.65900627     3.32184102E-05   8.48658375E+18   3.54356550E+06   0.00000000E+00   9.80739783E+05   0.30710479      
  38               1.85757643E-03   3.86432607E-01   282.36204117     3.88006710E-05   9.91273034E+18   3.54356550E+06   0.00000000E+00   9.74841325E+05   0.30583661      
  39               2.29042351E-03   4.67368536E-01   291.83464481     4.54040307E-05   1.15997456E+19   3.54356550E+06   0.00000000E+00   9.68743506E+05   0.30527971      
  40               2.82413135E-03   5.65156607E-01   302.42835280     5.29807487E-05   1.35354327E+19   3.54356550E+06   0.00000000E+00   9.62438586E+05   0.30423387      
  41               3.48220225E-03   6.83212666E-01   313.00658825     6.18834073E-05   1.58098690E+19   3.54356550E+06   0.00000000E+00   9.55918668E+05   0.30368848      
  42               4.29361493E-03   8.25575257E-01   324.96736216     7.20259032E-05   1.84010567E+19   3.54356551E+06   0.00000000E+00   9.49175493E+05   0.30285276      
  43               5.29410063E-03   9.97059580E-01   337.22647457     8.38245517E-05   2.14153555E+19   3.54356549E+06   0.00000000E+00   9.42196473E+05   0.30244636      
  44               6.52771662E-03   1.20344550E+00   351.10862461     9.71754871E-05   2.48262296E+19   3.54356551E+06   0.00000000E+00   9.34965178E+05   0.30182668      
  45               8.04878622E-03   1.45146792E+00   365.54910168     1.12572813E-04   2.87599126E+19   3.54356549E+06   0.00000000E+00   9.27466308E+05   0.30144776      
  46               9.92429106E-03   1.74878655E+00   382.07626046     1.29765301E-04   3.31522181E+19   3.54356552E+06   0.00000000E+00   9.19687266E+05   0.30096799      
  47               1.22368206E-02   2.10440288E+00   399.79491357     1.49232476E-04   3.81256680E+19   3.54356549E+06   0.00000000E+00   9.11606162E+05   0.30072273      
  48               1.50882091E-02   2.52871396E+00   420.02696188     1.70685613E-04   4.36062135E+19   3.54356549E+06   0.00000000E+00   9.03198886E+05   0.30044657      
  49               1.86040198E-02   3.03264250E+00   441.65328056     1.94676773E-04   4.97353977E+19   3.54356762E+06   0.00000000E+00   8.94456833E+05   0.30022612      
  50               2.29390746E-02   3.62764786E+00   466.04875257     2.20682626E-04   5.63792914E+19   3.54032301E+06   3.24166863E+03   8.85379051E+05   0.29996235      
  51               2.82842712E-02   4.32774579E+00   491.36907270     2.49705712E-04   6.37939897E+19   3.52908179E+06   1.44845855E+04   8.75947989E+05   0.29980245      
  52               3.48749902E-02   5.15015867E+00   517.67830339     2.82056752E-04   7.20587104E+19   3.52294290E+06   2.06216684E+04   8.66148395E+05   0.29960989      
  53               4.30014593E-02   6.11370179E+00   544.95679929     3.18093102E-04   8.12583530E+19   3.53091710E+06   1.26499983E+04   8.55975695E+05   0.299446        
  54               5.30215347E-02   7.23822381E+00   573.22024275     3.58032588E-04   9.14610806E+19   3.54356207E+06   0.00000000E+00   8.45438389E+05   0.29927066      
  55               6.53764590E-02   8.54801354E+00   602.09925561     4.02540115E-04   1.02830738E+20   3.54356569E+06   0.00000000E+00   8.34528114E+05   0.29911809      
  56               8.06102920E-02   1.00734542E+01   629.77301899     4.53530392E-04   1.15856447E+20   3.54356528E+06   0.00000000E+00   8.23238280E+05   0.29885628      
  57               9.93938685E-02   1.18446492E+01   658.88487422     5.09711756E-04   1.30208250E+20   3.54356554E+06   0.00000000E+00   8.11588953E+05   0.29856653      
  58               1.22554340E-01   1.38915590E+01   687.70841684     5.72741403E-04   1.46309487E+20   3.54356552E+06   0.00000000E+00   7.99608945E+05   0.29820357      
  59               1.51111597E-01   1.62472295E+01   719.14711606     6.40580035E-04   1.63639224E+20   3.54357629E+06   0.00000000E+00   7.87310547E+05   0.29783276      
  60               1.86323183E-01   1.89623428E+01   751.94636199     7.15017731E-04   1.82654750E+20   3.52413657E+06   1.94260541E+04   7.74624017E+05   0.29730977      
  61               2.29739671E-01   2.20894863E+01   787.91750938     7.94907055E-04   2.03062956E+20   3.44264091E+06   1.00927609E+05   7.61507116E+05   0.2967187       
  62               2.83272943E-01   2.56884583E+01   822.82614281     8.85199924E-04   2.26128759E+20   3.33400606E+06   2.09557425E+05   7.47939621E+05   0.29596359      
  63               3.49280383E-01   2.98144777E+01   861.04840070     9.81773848E-04   2.50798815E+20   3.21814118E+06   3.25426584E+05   7.33943587E+05   0.29511261      
  64               4.30668686E-01   3.45382863E+01   897.94269268     1.09060171E-03   2.78598006E+20   3.12636653E+06   4.17198604E+05   7.19507355E+05   0.29410883      
  65               5.31021855E-01   3.99454072E+01   938.40670229     1.20695668E-03   3.08319925E+20   3.07425496E+06   4.69312054E+05   7.04603880E+05   0.29297663      
  66               6.54759028E-01   4.61047070E+01   977.23941300     1.33770389E-03   3.41719791E+20   3.06732061E+06   4.76245123E+05   6.89275173E+05   0.29168919      
  67               8.07329079E-01   5.30784453E+01   1019.53131277    1.47616060E-03   3.77088653E+20   3.09931120E+06   4.44256775E+05   6.73581704E+05   0.29033344      
  68               9.95450561E-01   6.09207591E+01   1059.58835553    1.63021851E-03   4.16441468E+20   3.16842100E+06   3.75144864E+05   6.57595155E+05   0.28889029      
  69               1.22740757E+00   6.97321336E+01   1103.15963426    1.79233138E-03   4.57847062E+20   3.26828096E+06   2.75290201E+05   6.41294231E+05   0.28740761      
  70               1.51341452E+00   7.96607681E+01   1144.49579837    1.97361165E-03   5.04145769E+20   3.39299960E+06   1.50568016E+05   6.24600634E+05   0.28580245      
  71               1.86606598E+00   9.08512414E+01   1189.80689260    2.16513740E-03   5.53070157E+20   3.51604115E+06   2.75639510E+04   6.07481770E+05   0.28422474      
  72               2.30089127E+00   1.03431477E+02   1232.67228684    2.37922840E-03   6.07758347E+20   3.54222562E+06   0.00000000E+00   5.89953944E+05   0.28258763      
  73               2.83703828E+00   1.17504879E+02   1275.90017069    2.61138211E-03   6.67060221E+20   3.54356423E+06   0.00000000E+00   5.72099517E+05   0.28107015      
  74               3.49811672E+00   1.33187386E+02   1317.51150019    2.86642182E-03   7.32208085E+20   3.54356613E+06   0.00000000E+00   5.53973167E+05   0.27943847      
  75               4.31323774E+00   1.50726586E+02   1361.15200557    3.13989138E-03   8.02064092E+20   3.54356488E+06   0.00000000E+00   5.35485481E+05   0.27789086      
  76               5.31829590E+00   1.70344810E+02   1404.53346490    3.43896478E-03   8.78461344E+20   3.54356585E+06   0.00000000E+00   5.16606058E+05   0.27621696      
  77               6.55754979E+00   1.92291263E+02   1450.70320503    3.75846980E-03   9.60078668E+20   3.54356999E+06   0.00000000E+00   4.97302152E+05   0.27457512      
  78               8.08557104E+00   2.16755376E+02   1497.09650600    4.10534017E-03   1.04868709E+21   3.54045659E+06   0.00000000E+00   4.77607438E+05   0.27280022      
  79               9.96964736E+00   2.43860845E+02   1546.38724279    4.47148297E-03   1.14221973E+21   3.49681662E+06   4.67961259E+04   4.57601588E+05   0.27110045      
  80               1.22927457E+01   2.73766069E+02   1594.93146277    4.86702940E-03   1.24326422E+21   3.38970306E+06   1.53901946E+05   4.37329905E+05   0.26930837      
  81               1.51571657E+01   3.06805777E+02   1645.03099721    5.28829148E-03   1.35087538E+21   3.26064321E+06   2.82960936E+05   4.16735592E+05   0.26760292      
  82               1.86890445E+01   3.43153800E+02   1694.32351360    5.74264904E-03   1.46696014E+21   3.10054497E+06   4.43059845E+05   3.95877815E+05   0.26580847      
  83               2.30439114E+01   3.82826612E+02   1744.73126255    6.22463022E-03   1.58927633E+21   2.91788566E+06   6.25719945E+05   3.74891425E+05   0.26413758      
  84               2.84135369E+01   4.25926545E+02   1793.84359386    6.73579003E-03   1.71979219E+21   2.71604216E+06   8.27563494E+05   3.53842672E+05   0.2623736       
  85               3.50343769E+01   4.72624354E+02   1843.90865840    7.27140886E-03   1.85653240E+21   2.49873868E+06   1.04486368E+06   3.32742085E+05   0.26077086      
  86               4.31979859E+01   5.22804266E+02   1892.31896162    7.83783640E-03   2.00110843E+21   2.25006865E+06   1.29353298E+06   3.11722486E+05   0.25903657      
  87               5.32638553E+01   5.75935120E+02   1940.79487056    8.41915994E-03   2.14941248E+21   2.03694416E+06   1.50667162E+06   2.91039348E+05   0.25752251      
  88               6.56752445E+01   6.34094998E+02   1988.74294655    9.04722178E-03   2.30941251E+21   1.85057839E+06   1.69302726E+06   2.69965898E+05   0.25576688      
  89               8.09786996E+01   6.97435888E+02   2038.17622892    9.71337982E-03   2.47849701E+21   1.66769267E+06   1.87588996E+06   2.48598456E+05   0.25421829      
  90               9.98481215E+01   7.66281137E+02   2086.81523683    1.04303918E-02   2.65968360E+21   1.54985357E+06   1.99378154E+06   2.26968614E+05   0.25234484      
  91               1.23114441E+02   8.45487154E+02   2139.62890769    1.12305172E-02   2.86216322E+21   1.44222518E+06   2.10140004E+06   2.03825855E+05   0.2506831       
  92               1.51802212E+02   9.31970017E+02   2191.77279380    1.20856644E-02   3.07986903E+21   1.26800395E+06   2.27570508E+06   1.80351060E+05   0.24859802      
  93               1.87174723E+02   1.02293562E+03   2243.40552876    1.29596013E-02   3.30267893E+21   1.15596774E+06   2.38792144E+06   1.57365939E+05   0.24699373      
  94               2.30789634E+02   1.13009471E+03   2298.64604263    1.39724289E-02   3.56097218E+21   1.02991476E+06   2.51403739E+06   1.32183487E+05   0.24472404      
  95               2.84567566E+02   1.23421519E+03   2348.89294645    1.49388868E-02   3.80586608E+21   8.37968561E+05   2.70626796E+06   1.09391876E+05   0.24316047      
  96               3.50876675E+02   1.32698111E+03   2390.19055399    1.57837067E-02   4.02122205E+21   7.21754867E+05   2.82267451E+06   9.02878305E+04   0.24119305      
  97               4.32636941E+02   1.43516408E+03   2435.92519695    1.67492962E-02   4.26740094E+21   6.80246387E+05   2.86337361E+06   6.92473002E+04   0.23971291      
  98               5.33448747E+02   1.56092272E+03   2485.05660637    1.78553009E-02   4.54957634E+21   5.81632376E+05   2.96195505E+06   4.62510699E+04   0.23705332      
  99               6.57751428E+02   1.66404308E+03   2522.88649453    1.87649095E-02   4.77741196E+21   4.53881161E+05   3.09677862E+06   2.84339827E+04   0.23566202      
  100              8.11018759E+02   1.74447665E+03   2551.02630888    1.94542863E-02   4.95308821E+21   3.90028927E+05   3.15360708E+06   1.51215714E+04   0.23362985      
  101              1.00000000E+03   1.83941372E+03   2582.64125714    2.02611036E-02   5.15871073E+21   3.80733703E+05   3.16290268E+06   0.00000000E+00   0.23242743      
