# ATMO pressure-temperature profile
# Effective temperature = 1400.0K
# log(g) = 4.0cm/s^2
# M/H = 0.0
# Optical depth grid in band 17 (1.20-1.33microns)
# All parameters in cgs units
#
# Model Level      Optical Depth    Pressure         Temperature      Density          Number Density   Rad Flux         Conv Flux        Radial Extension Adiabatic Gradient
#                                   [Ba]             [K]              [g/cm^3]         [/cm^3]          [ergs/s/cm^2/sr] [ergs/s/cm^2/sr] [cm]             [K/Ba]          
  1                1.00000000E-06   1.00000000E-05   382.14827977     7.41433787E-10   1.89536969E+14   2.17814655E+08   0.00000000E+00   6.23019058E+07   0.29748483      
  2                1.23026877E-06   1.97421151E-05   432.46744963     1.29344415E-09   3.30648148E+14   2.17814655E+08   0.00000000E+00   6.13070853E+07   0.29767798      
  3                1.51356125E-06   3.10181491E-05   454.24948417     1.93476779E-09   4.94592214E+14   2.17814655E+08   0.00000000E+00   6.05942846E+07   0.297754        
  4                1.86208714E-06   4.45013416E-05   469.45575534     2.68587526E-09   6.86600753E+14   2.17814655E+08   0.00000000E+00   6.00028110E+07   0.29782688      
  5                2.29086765E-06   6.07382337E-05   482.63425707     3.56575422E-09   9.11527663E+14   2.17814655E+08   0.00000000E+00   5.94781433E+07   0.29786066      
  6                2.81838293E-06   8.03511148E-05   493.92929674     4.60929492E-09   1.17829208E+15   2.17814655E+08   0.00000000E+00   5.89943627E+07   0.29790024      
  7                3.46736850E-06   1.04082053E-04   504.86948130     5.84122704E-09   1.49321577E+15   2.17814655E+08   0.00000000E+00   5.85370160E+07   0.29791484      
  8                4.26579519E-06   1.32826130E-04   514.72951963     7.31158927E-09   1.86909029E+15   2.17814655E+08   0.00000000E+00   5.80971803E+07   0.29792984      
  9                5.24807460E-06   1.67681728E-04   524.58228375     9.05689720E-09   2.31525036E+15   2.17814655E+08   0.00000000E+00   5.76688519E+07   0.29792758      
  10               6.45654229E-06   2.09985581E-04   533.61865700     1.11497661E-08   2.85025888E+15   2.17814655E+08   0.00000000E+00   5.72478759E+07   0.29791541      
  11               7.94328235E-06   2.61362753E-04   542.83370044     1.36421916E-08   3.48740779E+15   2.17814655E+08   0.00000000E+00   5.68312989E+07   0.29789411      
  12               9.77237221E-06   3.23785743E-04   551.42511452     1.66371295E-08   4.25301602E+15   2.17814655E+08   0.00000000E+00   5.64169528E+07   0.29785296      
  13               1.20226443E-05   3.99646693E-04   560.41028066     2.02058584E-08   5.16530498E+15   2.17814655E+08   0.00000000E+00   5.60032005E+07   0.29816794      
  14               1.47910839E-05   4.91842496E-04   568.96511977     2.44933140E-08   6.26132500E+15   2.17814655E+08   0.00000000E+00   5.55887728E+07   0.2980635       
  15               1.81970086E-05   6.03880750E-04   578.05867145     2.95996349E-08   7.56667542E+15   2.17814655E+08   0.00000000E+00   5.51726712E+07   0.29799732      
  16               2.23872114E-05   7.40010985E-04   586.75463401     3.57345848E-08   9.13497742E+15   2.17814655E+08   0.00000000E+00   5.47541022E+07   0.29788367      
  17               2.75422870E-05   9.05388382E-04   595.97386615     4.30442100E-08   1.10035682E+16   2.17814655E+08   0.00000000E+00   5.43324306E+07   0.29781167      
  18               3.38844156E-05   1.10627155E-03   604.69650280     5.18359767E-08   1.32510449E+16   2.17814655E+08   0.00000000E+00   5.39071549E+07   0.29768903      
  19               4.16869383E-05   1.35026146E-03   613.86837587     6.23232003E-08   1.59319323E+16   2.17814655E+08   0.00000000E+00   5.34778841E+07   0.29761194      
  20               5.12861384E-05   1.64658264E-03   622.51848545     7.49442534E-08   1.91583066E+16   2.17814655E+08   0.00000000E+00   5.30443047E+07   0.29747841      
  21               6.30957344E-05   2.00652231E-03   631.66256462     9.00048504E-08   2.30083086E+16   2.17814655E+08   0.00000000E+00   5.26060489E+07   0.29739351      
  22               7.76247117E-05   2.44384190E-03   640.28442872     1.08145315E-07   2.76455991E+16   2.17814655E+08   0.00000000E+00   5.21627852E+07   0.29724662      
  23               9.54992586E-05   2.97524790E-03   649.44052310     1.29804942E-07   3.31825390E+16   2.17814655E+08   0.00000000E+00   5.17142702E+07   0.29715368      
  24               1.17489755E-04   3.62098085E-03   658.19585309     1.55875788E-07   3.98471189E+16   2.17814655E+08   0.00000000E+00   5.12603097E+07   0.29699336      
  25               1.44543977E-04   4.40556064E-03   667.55239255     1.86993041E-07   4.78015155E+16   2.17814655E+08   0.00000000E+00   5.08007569E+07   0.29689053      
  26               1.77827941E-04   5.35866809E-03   676.51090644     2.24435498E-07   5.73730444E+16   2.17814655E+08   0.00000000E+00   5.03355102E+07   0.29671206      
  27               2.18776162E-04   6.51613075E-03   686.19894490     2.69060453E-07   6.87805404E+16   2.17814655E+08   0.00000000E+00   4.98644934E+07   0.29659651      
  28               2.69153480E-04   7.92107309E-03   695.71814060     3.22597277E-07   8.24663044E+16   2.17814655E+08   0.00000000E+00   4.93876199E+07   0.29639892      
  29               3.31131121E-04   9.62551889E-03   705.89032044     3.86364079E-07   9.87672049E+16   2.17814655E+08   0.00000000E+00   4.89048341E+07   0.29626743      
  30               4.07380278E-04   1.16919848E-02   715.93549385     4.62728475E-07   1.18287863E+17   2.17814655E+08   0.00000000E+00   4.84161063E+07   0.2960429       
  31               5.01187234E-04   1.41951978E-02   726.93908089     5.53292985E-07   1.41439030E+17   2.17814655E+08   0.00000000E+00   4.79213889E+07   0.29588801      
  32               6.16595002E-04   1.72241051E-02   738.09652326     6.61203329E-07   1.69024378E+17   2.17814655E+08   0.00000000E+00   4.74206160E+07   0.29563039      
  33               7.58577575E-04   2.08843415E-02   750.28544187     7.88688653E-07   2.01613730E+17   2.17814655E+08   0.00000000E+00   4.69137550E+07   0.29544445      
  34               9.33254301E-04   2.53007238E-02   762.86348209     9.39717081E-07   2.40221547E+17   2.17814655E+08   0.00000000E+00   4.64007575E+07   0.29514307      
  35               1.14815362E-03   3.06240668E-02   776.87723637     1.11691751E-06   2.85519850E+17   2.17814655E+08   0.00000000E+00   4.58811500E+07   0.29483628      
  36               1.41253754E-03   3.70336881E-02   791.39089043     1.32591614E-06   3.38946971E+17   2.17814655E+08   0.00000000E+00   4.53544494E+07   0.29454863      
  37               1.73780083E-03   4.47403734E-02   807.41923170     1.57003760E-06   4.01352853E+17   2.17814655E+08   0.00000000E+00   4.48203101E+07   0.29427224      
  38               2.13796209E-03   5.39885686E-02   824.35741008     1.85564543E-06   4.74364420E+17   2.17814655E+08   0.00000000E+00   4.42784908E+07   0.29386995      
  39               2.63026799E-03   6.50622672E-02   843.19809891     2.18628789E-06   5.58888809E+17   2.17814655E+08   0.00000000E+00   4.37287074E+07   0.29356624      
  40               3.23593657E-03   7.82846680E-02   863.18680153     2.56967760E-06   6.56897732E+17   2.17814655E+08   0.00000000E+00   4.31708575E+07   0.29309095      
  41               3.98107171E-03   9.40157283E-02   885.47807124     3.00835122E-06   7.69039318E+17   2.17814655E+08   0.00000000E+00   4.26050683E+07   0.29258949      
  42               4.89778819E-03   1.12646055E-01   909.45912547     3.50951183E-06   8.97136739E+17   2.17814655E+08   0.00000000E+00   4.20316994E+07   0.29186357      
  43               6.02559586E-03   1.34609953E-01   936.01416865     4.07475864E-06   1.04164706E+18   2.17814655E+08   0.00000000E+00   4.14508880E+07   0.29128624      
  44               7.41310241E-03   1.60438077E-01   964.25955169     4.71423960E-06   1.20514510E+18   2.17814655E+08   0.00000000E+00   4.08615883E+07   0.29054339      
  45               9.12010839E-03   1.90721544E-01   995.44090867     5.42839810E-06   1.38774640E+18   2.17814655E+08   0.00000000E+00   4.02629506E+07   0.28979138      
  46               1.12201845E-02   2.26080618E-01   1028.78559260    6.22606677E-06   1.59171129E+18   2.17814654E+08   0.00000000E+00   3.96547340E+07   0.28876972      
  47               1.38038426E-02   2.67169994E-01   1065.27022454    7.10544200E-06   1.81657667E+18   2.17814654E+08   0.00000000E+00   3.90369632E+07   0.28787139      
  48               1.69824365E-02   3.14639673E-01   1103.79676559    8.07562812E-06   2.06466790E+18   2.17814654E+08   0.00000000E+00   3.84103020E+07   0.28679005      
  49               2.08929613E-02   3.69130332E-01   1145.23314265    9.13121025E-06   2.33459561E+18   2.17814653E+08   0.00000000E+00   3.77757461E+07   0.28570938      
  50               2.57039578E-02   4.31520092E-01   1188.52701211    1.02855377E-05   2.62977023E+18   2.17814653E+08   0.00000000E+00   3.71319685E+07   0.28425984      
  51               3.16227766E-02   5.02869253E-01   1234.53783811    1.15393178E-05   2.95037023E+18   2.17814653E+08   0.00000000E+00   3.64770527E+07   0.28280643      
  52               3.89045145E-02   5.84263346E-01   1282.13796508    1.29091900E-05   3.30065187E+18   2.17814654E+08   0.00000000E+00   3.58101639E+07   0.28101723      
  53               4.78630092E-02   6.76832620E-01   1331.98197762    1.43947472E-05   3.68051653E+18   2.17814655E+08   0.00000000E+00   3.51310923E+07   0.27936486      
  54               5.88843655E-02   7.81847933E-01   1382.57166077    1.60196001E-05   4.09600503E+18   2.17814656E+08   0.00000000E+00   3.44395394E+07   0.27775258      
  55               7.24435960E-02   9.01064221E-01   1434.32225616    1.77960714E-05   4.55024570E+18   2.17814658E+08   0.00000000E+00   3.37334670E+07   0.27618752      
  56               8.91250938E-02   1.03619600E+00   1486.49571934    1.97475212E-05   5.04898510E+18   2.17814671E+08   0.00000000E+00   3.30126168E+07   0.27420701      
  57               1.09647820E-01   1.18657764E+00   1542.52775113    2.17997339E-05   5.57171655E+18   2.16836558E+08   9.78583208E+05   3.22877722E+07   0.27229922      
  58               1.34896288E-01   1.34648242E+00   1596.39642066    2.39055839E-05   6.10922024E+18   2.13665485E+08   4.14994053E+06   3.15872979E+07   0.27007458      
  59               1.65958691E-01   1.50748828E+00   1645.54876723    2.59718548E-05   6.63542930E+18   2.08504449E+08   9.31167689E+06   3.09411226E+07   0.26787324      
  60               2.04173794E-01   1.66142125E+00   1688.86102387    2.79094397E-05   7.12544001E+18   2.01785628E+08   1.60323079E+07   3.03693437E+07   0.26594658      
  61               2.51188643E-01   1.80134608E+00   1725.36947459    2.96425263E-05   7.56207338E+18   1.94555540E+08   2.32645597E+07   2.98828489E+07   0.26429173      
  62               3.09029543E-01   1.92048481E+00   1754.80241431    3.10846450E-05   7.92699332E+18   1.88040554E+08   2.97808139E+07   2.94903414E+07   0.2628039       
  63               3.80189396E-01   2.01744773E+00   1777.52320569    3.22363018E-05   8.22077670E+18   1.82768695E+08   3.50533275E+07   2.91840320E+07   0.26136843      
  64               4.67735141E-01   2.13012698E+00   1802.97715686    3.35555946E-05   8.55738572E+18   1.77136015E+08   4.06863371E+07   2.88414307E+07   0.2600586       
  65               5.75439937E-01   2.26033498E+00   1830.86627570    3.50621950E-05   8.94215144E+18   1.70545079E+08   4.72766241E+07   2.84618222E+07   0.25909671      
  66               7.07945784E-01   2.36736105E+00   1852.99485427    3.63133375E-05   9.25371509E+18   1.64297652E+08   5.35213287E+07   2.81618497E+07   0.2583471       
  67               8.70963590E-01   2.45199029E+00   1869.77700179    3.72731365E-05   9.49849444E+18   1.58991591E+08   5.88251907E+07   2.79318170E+07   0.25744557      
  68               1.07151931E+00   2.55139770E+00   1889.06237389    3.83873365E-05   9.78267669E+18   1.53446988E+08   6.43696510E+07   2.76690161E+07   0.25639751      
  69               1.31825674E+00   2.66741464E+00   1910.59466552    3.96793565E-05   1.01122502E+19   1.47340142E+08   7.04762718E+07   2.73717500E+07   0.25519662      
  70               1.62181010E+00   2.80183631E+00   1934.75444374    4.11568954E-05   1.04892092E+19   1.40492030E+08   7.73239704E+07   2.70391165E+07   0.25384636      
  71               1.99526231E+00   2.95602134E+00   1961.08658855    4.28366951E-05   1.09178377E+19   1.32965727E+08   8.48496060E+07   2.66719074E+07   0.25228291      
  72               2.45470892E+00   3.13234895E+00   1989.96680759    4.47303672E-05   1.14011890E+19   1.25280380E+08   9.25342676E+07   2.62690869E+07   0.25049434      
  73               3.01995172E+00   3.33493837E+00   2021.25236273    4.68826032E-05   1.19506936E+19   1.17554510E+08   1.00259457E+08   2.58266917E+07   0.24844965      
  74               3.71535229E+00   3.56669516E+00   2055.22983255    4.93068802E-05   1.25698888E+19   1.09554559E+08   1.08258564E+08   2.53446621E+07   0.24618973      
  75               4.57088190E+00   3.83081257E+00   2091.43870407    5.20349246E-05   1.32669656E+19   1.01279151E+08   1.16532980E+08   2.48232310E+07   0.24364016      
  76               5.62341325E+00   4.13081002E+00   2130.10252637    5.50830526E-05   1.40462552E+19   9.28221894E+07   1.24988869E+08   2.42628769E+07   0.24085109      
  77               6.91830971E+00   4.47058297E+00   2170.71738286    5.84875285E-05   1.49171795E+19   8.43058939E+07   1.33504041E+08   2.36642587E+07   0.23781429      
  78               8.51138038E+00   4.85446527E+00   2213.48357491    6.22684157E-05   1.58851359E+19   7.58858198E+07   1.41922974E+08   2.30281450E+07   0.23447533      
  79               1.04712855E+01   5.28729540E+00   2257.83882200    6.64695613E-05   1.69615868E+19   6.76911044E+07   1.50116610E+08   2.23553623E+07   0.23072918      
  80               1.28824955E+01   5.77449780E+00   2303.93683703    7.11179094E-05   1.81538813E+19   5.98328998E+07   1.57973899E+08   2.16467451E+07   0.22673229      
  81               1.58489319E+01   6.32173704E+00   2351.21047512    7.62694885E-05   1.94746992E+19   5.24340911E+07   1.65371977E+08   2.09036770E+07   0.2225316       
  82               1.94984460E+01   6.93578309E+00   2399.84574865    8.19431955E-05   2.09333153E+19   4.57703308E+07   1.72035300E+08   2.01269411E+07   0.21817898      
  83               2.39883292E+01   7.62460509E+00   2449.34749906    8.82122268E-05   2.25472089E+19   3.98602679E+07   1.77945229E+08   1.93167435E+07   0.21372499      
  84               2.95120923E+01   8.39676371E+00   2499.93755809    9.51188697E-05   2.43281234E+19   3.46031939E+07   1.83202543E+08   1.84737694E+07   0.20921954      
  85               3.63078055E+01   9.26198459E+00   2551.11279871    1.02740346E-04   2.62966383E+19   2.99572883E+07   1.87849091E+08   1.75985255E+07   0.20468509      
  86               4.46683592E+01   1.02309518E+01   2603.12366684    1.11128600E-04   2.84673523E+19   2.59209780E+07   1.91886570E+08   1.66916823E+07   0.20012758      
  87               5.49540874E+01   1.13155143E+01   2655.44584523    1.20375043E-04   3.08647447E+19   2.24007451E+07   1.95408587E+08   1.57539466E+07   0.19570097      
  88               6.76082975E+01   1.25287100E+01   2708.42650629    1.30537414E-04   3.35054257E+19   1.93243834E+07   1.98487603E+08   1.47861086E+07   0.19120183      
  89               8.31763771E+01   1.38848739E+01   2761.41316804    1.41729158E-04   3.64197021E+19   1.66408168E+07   2.01174925E+08   1.37890448E+07   0.18693162      
  90               1.02329299E+02   1.53996614E+01   2814.94000066    1.54007791E-04   3.96248718E+19   1.43439650E+07   2.03477192E+08   1.27637256E+07   0.18294337      
  91               1.25892541E+02   1.70901580E+01   2868.37275013    1.67502184E-04   4.31555177E+19   1.23616079E+07   2.05467349E+08   1.17111792E+07   0.17919234      
  92               1.54881662E+02   1.89748446E+01   2922.25273558    1.82275706E-04   4.70312254E+19   1.06556290E+07   2.07184691E+08   1.06325470E+07   0.17562513      
  93               1.90546072E+02   2.10736844E+01   2975.89860701    1.98476929E-04   5.12918285E+19   9.17409249E+06   2.08682645E+08   9.52905595E+06   0.17237286      
  94               2.34422882E+02   2.34081901E+01   3029.96693017    2.16165825E-04   5.59571757E+19   7.88698571E+06   2.09993206E+08   8.40197364E+06   0.16924971      
  95               2.88403150E+02   2.60001338E+01   3083.62115620    2.35509730E-04   6.10717558E+19   6.75489873E+06   2.11157810E+08   7.25319404E+06   0.16636609      
  96               3.54813389E+02   2.88718192E+01   3137.58961836    2.56545038E-04   6.66505672E+19   5.77760294E+06   2.12179850E+08   6.08487916E+06   0.16373623      
  97               4.36515832E+02   3.20474808E+01   3191.04113078    2.79455952E-04   7.27423511E+19   4.93492901E+06   2.13082946E+08   4.89882436E+06   0.16139428      
  98               5.37031796E+02   3.55534745E+01   3244.80416909    3.04276952E-04   7.93632415E+19   4.21804611E+06   2.13880223E+08   3.69647937E+06   0.15919493      
  99               6.60693448E+02   3.94189866E+01   3297.97080466    3.31238543E-04   8.65734027E+19   3.59954697E+06   2.14603403E+08   2.47886185E+06   0.15724835      
  100              8.12830516E+02   4.36763519E+01   3351.51939773    3.60373783E-04   9.43909721E+19   3.07268283E+06   2.15264906E+08   1.24660045E+06   0.15551226      
  101              1.00000000E+03   4.83614494E+01   3404.52180126    3.91964446E-04   1.02889020E+20   2.81422413E+06   2.15627568E+08   0.00000000E+00   0.15397901      
