# ATMO pressure-temperature profile
# Effective temperature = 1200.0K
# log(g) = 4.0cm/s^2
# M/H = 0.0
# Optical depth grid in band 17 (1.20-1.33microns)
# All parameters in cgs units
#
# Model Level      Optical Depth    Pressure         Temperature      Density          Number Density   Rad Flux         Conv Flux        Radial Extension Adiabatic Gradient
#                                   [Ba]             [K]              [g/cm^3]         [/cm^3]          [ergs/s/cm^2/sr] [ergs/s/cm^2/sr] [cm]             [K/Ba]          
  1                1.00000000E-06   1.00000000E-05   334.19383372     8.47835972E-10   2.16734180E+14   1.17570886E+08   0.00000000E+00   5.59633157E+07   0.29928945      
  2                1.23026877E-06   1.93977436E-05   376.85173071     1.45844666E-09   3.72826299E+14   1.17570886E+08   0.00000000E+00   5.51181879E+07   0.29821009      
  3                1.51356125E-06   3.03508218E-05   391.73133641     2.19529036E-09   5.61187488E+14   1.17570886E+08   0.00000000E+00   5.45060561E+07   0.29783549      
  4                1.86208714E-06   4.34822331E-05   406.16155044     3.03335230E-09   7.75423344E+14   1.17570886E+08   0.00000000E+00   5.39971894E+07   0.29772078      
  5                2.29086765E-06   5.93207264E-05   414.50625316     4.05494723E-09   1.03657615E+15   1.17570886E+08   0.00000000E+00   5.35455833E+07   0.29759891      
  6                2.81838293E-06   7.84771399E-05   426.12037359     5.21820930E-09   1.33394126E+15   1.17570886E+08   0.00000000E+00   5.31291350E+07   0.29755731      
  7                3.46736850E-06   1.01665552E-04   433.67376466     6.64237538E-09   1.69799541E+15   1.17570886E+08   0.00000000E+00   5.27352687E+07   0.29751761      
  8                4.26579519E-06   1.29775800E-04   444.07692067     8.28034118E-09   2.11670994E+15   1.17570886E+08   0.00000000E+00   5.23562341E+07   0.2995217       
  9                5.24807460E-06   1.63904062E-04   450.35345440     1.03121431E-08   2.63610107E+15   1.17570886E+08   0.00000000E+00   5.19869032E+07   0.29945719      
  10               6.45654229E-06   2.05365733E-04   460.19946856     1.26442932E-08   3.23227057E+15   1.17570886E+08   0.00000000E+00   5.16238042E+07   0.29942568      
  11               7.94328235E-06   2.55752081E-04   466.14711690     1.55456488E-08   3.97394647E+15   1.17570886E+08   0.00000000E+00   5.12644182E+07   0.29936949      
  12               9.77237221E-06   3.17005304E-04   475.68241335     1.88826128E-08   4.82697748E+15   1.17570886E+08   0.00000000E+00   5.09069039E+07   0.29934132      
  13               1.20226443E-05   3.91479990E-04   481.40788481     2.30414078E-08   5.89009377E+15   1.17570886E+08   0.00000000E+00   5.05498587E+07   0.29929017      
  14               1.47910839E-05   4.82043884E-04   490.80170162     2.78287137E-08   7.11387708E+15   1.17570886E+08   0.00000000E+00   5.01922122E+07   0.29926445      
  15               1.81970086E-05   5.92171947E-04   496.44462078     3.37978926E-08   8.63978350E+15   1.17570886E+08   0.00000000E+00   4.98331194E+07   0.29921394      
  16               2.23872114E-05   7.26086903E-04   505.86804882     4.06690405E-08   1.03962614E+16   1.17570886E+08   0.00000000E+00   4.94719156E+07   0.29918823      
  17               2.75422870E-05   8.88908798E-04   511.54924897     4.92359487E-08   1.25862279E+16   1.17570886E+08   0.00000000E+00   4.91080511E+07   0.29913773      
  18               3.38844156E-05   1.08690636E-03   521.04916554     5.91052359E-08   1.51091234E+16   1.17570886E+08   0.00000000E+00   4.87410176E+07   0.29911162      
  19               4.16869383E-05   1.32771165E-03   526.71643174     7.14232175E-08   1.82579804E+16   1.17570886E+08   0.00000000E+00   4.83703938E+07   0.29905805      
  20               5.12861384E-05   1.62061836E-03   536.26335280     8.56278653E-08   2.18891287E+16   1.17570886E+08   0.00000000E+00   4.79958505E+07   0.29903074      
  21               6.30957344E-05   1.97691851E-03   541.93181657     1.03360972E-07   2.64222599E+16   1.17570886E+08   0.00000000E+00   4.76171201E+07   0.29897476      
  22               7.76247117E-05   2.41035403E-03   551.52689181     1.23830203E-07   3.16548298E+16   1.17570886E+08   0.00000000E+00   4.72340018E+07   0.29894606      
  23               9.54992586E-05   2.93761074E-03   557.17314683     1.49388270E-07   3.81882634E+16   1.17570886E+08   0.00000000E+00   4.68463422E+07   0.29888489      
  24               1.17489755E-04   3.57895225E-03   566.90964505     1.78876980E-07   4.57264934E+16   1.17570886E+08   0.00000000E+00   4.64540100E+07   0.29885358      
  25               1.44543977E-04   4.35895968E-03   572.62963985     2.15685727E-07   5.51359507E+16   1.17570886E+08   0.00000000E+00   4.60569000E+07   0.29878715      
  26               1.77827941E-04   5.30743717E-03   582.55222293     2.58144186E-07   6.59896519E+16   1.17570886E+08   0.00000000E+00   4.56549379E+07   0.29875284      
  27               2.18776162E-04   6.46043003E-03   588.45153483     3.11073534E-07   7.95200358E+16   1.17570886E+08   0.00000000E+00   4.52480602E+07   0.29867717      
  28               2.69153480E-04   7.86144107E-03   598.87875897     3.71942285E-07   9.50799825E+16   1.17570887E+08   0.00000000E+00   4.48361787E+07   0.29863596      
  29               3.31131121E-04   9.56295424E-03   605.19101127     4.47725581E-07   1.14452543E+17   1.17570887E+08   0.00000000E+00   4.44192214E+07   0.2985486       
  30               4.07380278E-04   1.16280124E-02   616.28994116     5.34604583E-07   1.36661520E+17   1.17570887E+08   0.00000000E+00   4.39971266E+07   0.29850137      
  31               5.01187234E-04   1.41322934E-02   623.34709093     6.42384364E-07   1.64213383E+17   1.17570887E+08   0.00000000E+00   4.35697908E+07   0.29842577      
  32               6.16595002E-04   1.71673868E-02   635.55869963     7.65351300E-07   1.95647527E+17   1.17570888E+08   0.00000000E+00   4.31369341E+07   0.29834077      
  33               7.58577575E-04   2.08432738E-02   643.63809535     9.17564263E-07   2.34557882E+17   1.17570888E+08   0.00000000E+00   4.26982888E+07   0.29820458      
  34               9.33254301E-04   2.52910006E-02   657.19370379     1.09039754E-06   2.78739462E+17   1.17570889E+08   0.00000000E+00   4.22536294E+07   0.29812751      
  35               1.14815362E-03   3.06663409E-02   666.87002483     1.30296647E-06   3.33078501E+17   1.17570889E+08   0.00000000E+00   4.18026602E+07   0.29797244      
  36               1.41253754E-03   3.71545344E-02   682.15495980     1.54326740E-06   3.94506916E+17   1.17570890E+08   0.00000000E+00   4.13451123E+07   0.29785634      
  37               1.73780083E-03   4.49728001E-02   693.61373878     1.83715365E-06   4.69632432E+17   1.17570892E+08   0.00000000E+00   4.08807924E+07   0.29766016      
  38               2.13796209E-03   5.43744543E-02   711.11902203     2.16653504E-06   5.53832523E+17   1.17570893E+08   0.00000000E+00   4.04095454E+07   0.29750632      
  39               2.63026799E-03   6.56539647E-02   725.11213475     2.56549711E-06   6.55815420E+17   1.17570896E+08   0.00000000E+00   3.99311114E+07   0.29719909      
  40               3.23593657E-03   7.91507201E-02   745.32649261     3.00901180E-06   7.69190925E+17   1.17570898E+08   0.00000000E+00   3.94453403E+07   0.29692084      
  41               3.98107171E-03   9.52462870E-02   762.26540243     3.54045995E-06   9.05039816E+17   1.17570902E+08   0.00000000E+00   3.89522064E+07   0.29652052      
  42               4.89778819E-03   1.14395938E-01   785.92927572     4.12424837E-06   1.05427274E+18   1.17570907E+08   0.00000000E+00   3.84510669E+07   0.29619487      
  43               6.02559586E-03   1.37133930E-01   806.75406852     4.81638590E-06   1.23120281E+18   1.17570912E+08   0.00000000E+00   3.79408921E+07   0.29570733      
  44               7.41310241E-03   1.64058014E-01   834.55872208     5.57003318E-06   1.42385705E+18   1.17570919E+08   0.00000000E+00   3.74210739E+07   0.29526098      
  45               9.12010839E-03   1.95806444E-01   859.97944728     6.45142922E-06   1.64916743E+18   1.17570927E+08   0.00000000E+00   3.68914526E+07   0.29455913      
  46               1.12201845E-02   2.33061907E-01   892.80797381     7.39657137E-06   1.89077162E+18   1.17570935E+08   0.00000000E+00   3.63521320E+07   0.29384754      
  47               1.38038426E-02   2.76529834E-01   923.57863598     8.48373898E-06   2.16867241E+18   1.17570945E+08   0.00000000E+00   3.58033998E+07   0.29285646      
  48               1.69824365E-02   3.26991826E-01   961.56043790     9.63573068E-06   2.46312328E+18   1.17570950E+08   0.00000000E+00   3.52452776E+07   0.2919133       
  49               2.08929613E-02   3.85412195E-01   997.34950824     1.09495152E-05   2.79900654E+18   1.17570957E+08   0.00000000E+00   3.46765234E+07   0.29069773      
  50               2.57039578E-02   4.52818658E-01   1039.99220379    1.23366647E-05   3.15369775E+18   1.17570960E+08   0.00000000E+00   3.40965535E+07   0.28954754      
  51               3.16227766E-02   5.30297859E-01   1080.07672395    1.39109166E-05   3.55624036E+18   1.17570959E+08   0.00000000E+00   3.35051164E+07   0.28812535      
  52               3.89045145E-02   6.18983810E-01   1126.33962045    1.55698421E-05   3.98048295E+18   1.17570956E+08   0.00000000E+00   3.29025080E+07   0.28677142      
  53               4.78630092E-02   7.20174943E-01   1169.44128964    1.74470468E-05   4.46051930E+18   1.17570945E+08   0.00000000E+00   3.22885486E+07   0.28511634      
  54               5.88843655E-02   8.35700978E-01   1218.20489624    1.94348485E-05   4.96885598E+18   1.17570934E+08   0.00000000E+00   3.16611716E+07   0.28352822      
  55               7.24435960E-02   9.67657030E-01   1263.33625264    2.16992602E-05   5.54789632E+18   1.17570917E+08   0.00000000E+00   3.10186076E+07   0.28169029      
  56               8.91250938E-02   1.11873006E+00   1313.69659008    2.41247414E-05   6.16816629E+18   1.17570904E+08   0.00000000E+00   3.03583196E+07   0.2800528       
  57               1.09647820E-01   1.29252209E+00   1359.94445634    2.69237554E-05   6.88402823E+18   1.17570887E+08   0.00000000E+00   2.96764033E+07   0.27831827      
  58               1.34896288E-01   1.49412454E+00   1411.04318345    2.99948341E-05   7.66959326E+18   1.17570871E+08   0.00000000E+00   2.89669787E+07   0.27676202      
  59               1.65958691E-01   1.72897823E+00   1458.09217915    3.35887203E-05   8.58875838E+18   1.17570857E+08   0.00000000E+00   2.82270681E+07   0.27484782      
  60               2.04173794E-01   2.00045093E+00   1510.45271948    3.75170625E-05   9.59282691E+18   1.17570834E+08   0.00000000E+00   2.74623143E+07   0.27309046      
  61               2.51188643E-01   2.30383546E+00   1559.10564178    4.18753444E-05   1.07029071E+19   1.17570811E+08   0.00000000E+00   2.66968373E+07   0.27112822      
  62               3.09029543E-01   2.63297990E+00   1613.29383554    4.62538603E-05   1.18211549E+19   1.17571764E+08   0.00000000E+00   2.59489470E+07   0.26936483      
  63               3.80189396E-01   2.97024808E+00   1665.98257599    5.05389644E-05   1.29136232E+19   1.14955110E+08   2.61587876E+06   2.52513633E+07   0.26734221      
  64               4.67735141E-01   3.28370230E+00   1711.41954544    5.44233473E-05   1.38973863E+19   1.09602133E+08   7.96119075E+06   2.46536502E+07   0.26567432      
  65               5.75439937E-01   3.54284537E+00   1745.86715843    5.76197491E-05   1.46982910E+19   1.03542181E+08   1.40137172E+07   2.41908542E+07   0.26399096      
  66               7.07945784E-01   3.82073466E+00   1781.24491128    6.09036584E-05   1.55363530E+19   9.73024303E+07   2.02652353E+07   2.37217550E+07   0.26285006      
  67               8.70963590E-01   4.06476261E+00   1810.08916456    6.37811462E-05   1.62652618E+19   9.14938644E+07   2.61122330E+07   2.33301994E+07   0.26171573      
  68               1.07151931E+00   4.26036012E+00   1832.75165003    6.60226130E-05   1.68371481E+19   8.64966044E+07   3.11485518E+07   2.30287802E+07   0.26075829      
  69               1.31825674E+00   4.48752936E+00   1857.40352236    6.86186795E-05   1.74995499E+19   8.14576798E+07   3.62098674E+07   2.26912737E+07   0.25934163      
  70               1.62181010E+00   4.74974550E+00   1885.17596902    7.15538093E-05   1.82492191E+19   7.54858351E+07   4.22225943E+07   2.23170579E+07   0.25859388      
  71               1.99526231E+00   4.95657688E+00   1905.77672923    7.39237994E-05   1.88380379E+19   6.96443424E+07   4.80831281E+07   2.20326414E+07   0.25778288      
  72               2.45470892E+00   5.11476005E+00   1921.50594407    7.56571126E-05   1.92801040E+19   6.50358721E+07   5.26851842E+07   2.18211253E+07   0.25720297      
  73               3.01995172E+00   5.30134423E+00   1939.02859523    7.77066747E-05   1.98028470E+19   6.09394118E+07   5.67954912E+07   2.15777811E+07   0.25621459      
  74               3.71535229E+00   5.51986443E+00   1959.40478862    8.00660446E-05   2.04046940E+19   5.68677869E+07   6.08964918E+07   2.13007437E+07   0.25539368      
  75               4.57088190E+00   5.77329756E+00   1981.73014528    8.27959607E-05   2.11011083E+19   5.27140055E+07   6.50792089E+07   2.09894754E+07   0.25410008      
  76               5.62341325E+00   6.06570329E+00   2006.92631887    8.58934030E-05   2.18915027E+19   4.88470509E+07   6.89223484E+07   2.06427371E+07   0.25294808      
  77               6.91830971E+00   6.40417675E+00   2034.40969080    8.94563042E-05   2.28008340E+19   4.52660052E+07   7.24709376E+07   2.02566017E+07   0.25124588      
  78               8.51138038E+00   6.79413609E+00   2064.94003237    9.34937092E-05   2.38315691E+19   4.18486263E+07   7.58820092E+07   1.98301958E+07   0.24971644      
  79               1.04712855E+01   7.24136766E+00   2097.79998187    9.80786734E-05   2.50024381E+19   3.84993787E+07   7.92190948E+07   1.93631551E+07   0.24757637      
  80               1.28824955E+01   7.75222373E+00   2133.50243163    1.03229578E-04   2.63183704E+19   3.53097968E+07   8.23915001E+07   1.88554516E+07   0.24559674      
  81               1.58489319E+01   8.33362541E+00   2171.45259044    1.09017652E-04   2.77977384E+19   3.22061539E+07   8.54724377E+07   1.83073930E+07   0.24299905      
  82               1.94984460E+01   8.99324080E+00   2211.90133322    1.15476131E-04   2.94493905E+19   2.92802269E+07   8.83709652E+07   1.77195007E+07   0.24060853      
  83               2.39883292E+01   9.73950240E+00   2254.45644097    1.22673158E-04   3.12910949E+19   2.64372084E+07   9.11822789E+07   1.70924942E+07   0.23742655      
  84               2.95120923E+01   1.05818672E+01   2299.00875312    1.30668111E-04   3.33386125E+19   2.37421950E+07   9.38425364E+07   1.64271553E+07   0.23446017      
  85               3.63078055E+01   1.15302918E+01   2345.47170715    1.39532145E-04   3.56070455E+19   2.11294389E+07   9.64180733E+07   1.57247361E+07   0.23073647      
  86               4.46683592E+01   1.25965652E+01   2393.35202807    1.49333960E-04   3.81216241E+19   1.87631164E+07   9.87464346E+07   1.49860579E+07   0.2273738       
  87               5.49540874E+01   1.37941685E+01   2443.05890233    1.60137972E-04   4.08966211E+19   1.65725688E+07   1.00899815E+08   1.42116135E+07   0.22324816      
  88               6.76082975E+01   1.51377817E+01   2493.59247835    1.72092050E-04   4.39706209E+19   1.45852035E+07   1.02850701E+08   1.34022365E+07   0.21960917      
  89               8.31763771E+01   1.66441542E+01   2545.93900968    1.85221584E-04   4.73521360E+19   1.27600411E+07   1.04642054E+08   1.25584919E+07   0.21488949      
  90               1.02329299E+02   1.83321708E+01   2598.33529820    1.99765310E-04   5.11027817E+19   1.11411184E+07   1.06230843E+08   1.16809336E+07   0.21050726      
  91               1.25892541E+02   2.02229018E+01   2652.49325689    2.15709290E-04   5.52223678E+19   9.70907940E+06   1.07636882E+08   1.07700956E+07   0.20565229      
  92               1.54881662E+02   2.23400296E+01   2706.17369862    2.33375645E-04   5.97934917E+19   8.42639639E+06   1.08897302E+08   9.82648914E+06   0.20106188      
  93               1.90546072E+02   2.47097951E+01   2761.54993957    2.52720133E-04   6.48100092E+19   7.30788838E+06   1.09997375E+08   8.85068090E+06   0.1964164       
  94               2.34422882E+02   2.73612129E+01   2816.12182396    2.74141435E-04   7.03735964E+19   6.30214853E+06   1.10988157E+08   7.84333724E+06   0.19195693      
  95               2.88403150E+02   3.03262251E+01   2872.28967383    2.97571973E-04   7.64743786E+19   5.44831366E+06   1.11829957E+08   6.80520981E+06   0.18790529      
  96               3.54813389E+02   3.36392853E+01   2927.58514964    3.23461669E-04   8.32267746E+19   4.68283215E+06   1.12587849E+08   5.73731299E+06   0.18354424      
  97               4.36515832E+02   3.73384680E+01   2984.07725851    3.51772080E-04   9.06300607E+19   4.04589026E+06   1.13219999E+08   4.64065380E+06   0.18008662      
  98               5.37031796E+02   4.14643354E+01   3039.95497686    3.82933428E-04   9.87946432E+19   3.46097325E+06   1.13805457E+08   3.51648685E+06   0.17578721      
  99               6.60693448E+02   4.60585778E+01   3096.23868976    4.17013119E-04   1.07746192E+20   2.97312028E+06   1.14297822E+08   2.36678424E+06   0.17293425      
  100              8.12830516E+02   5.11627109E+01   3152.48472218    4.54252083E-04   1.17551019E+20   2.52506261E+06   1.14761253E+08   1.19403053E+06   0.16896604      
  101              1.00000000E+03   5.68244205E+01   3208.10683792    4.94974952E-04   1.28295680E+20   2.31033997E+06   1.14976141E+08   0.00000000E+00   0.1666375       
