# ATMO pressure-temperature profile
# Effective temperature = 1000.0K
# log(g) = 4.0cm/s^2
# M/H = 0.0
# Optical depth grid in band 17 (1.20-1.33microns)
# All parameters in cgs units
#
# Model Level      Optical Depth    Pressure         Temperature      Density          Number Density   Rad Flux         Conv Flux        Radial Extension Adiabatic Gradient
#                                   [Ba]             [K]              [g/cm^3]         [/cm^3]          [ergs/s/cm^2/sr] [ergs/s/cm^2/sr] [cm]             [K/Ba]          
  1                5.00000000E-05   1.00000000E-05   320.12716304     8.85078778E-10   2.26257672E+14   5.66987781E+07   0.00000000E+00   5.22412715E+07   0.30014376      
  2                5.91534807E-05   2.92792709E-04   380.85475408     2.17824212E-08   5.56835246E+15   5.66987781E+07   0.00000000E+00   4.58007035E+07   0.30035367      
  3                6.99826855E-05   6.04346564E-04   395.40826415     4.33057750E-08   1.10704724E+16   5.66987781E+07   0.00000000E+00   4.47863084E+07   0.30001304      
  4                8.27943887E-05   9.61633113E-04   416.31190356     6.54478935E-08   1.67307889E+16   5.66987781E+07   0.00000000E+00   4.41151950E+07   0.29987222      
  5                9.79515255E-05   1.37427090E-03   422.69967078     9.21183069E-08   2.35486645E+16   5.66987781E+07   0.00000000E+00   4.35837624E+07   0.29974389      
  6                1.15883473E-04   1.85305869E-03   439.22012225     1.19539672E-07   3.05585530E+16   5.66987781E+07   0.00000000E+00   4.31275002E+07   0.29967754      
  7                1.37098216E-04   2.40934634E-03   444.17859522     1.53700692E-07   3.92886808E+16   5.66987781E+07   0.00000000E+00   4.27170974E+07   0.29959817      
  8                1.62196734E-04   3.05727503E-03   458.21779731     1.89059541E-07   4.83268396E+16   5.66987781E+07   0.00000000E+00   4.23370040E+07   0.29955676      
  9                1.91890027E-04   3.81248839E-03   462.05719277     2.33802417E-07   5.97638592E+16   5.66987781E+07   0.00000000E+00   4.19777961E+07   0.29950007      
  10               2.27019260E-04   4.69435383E-03   474.27891507     2.80464593E-07   7.16915289E+16   5.66987781E+07   0.00000000E+00   4.16334154E+07   0.29947142      
  11               2.68579588E-04   5.72457468E-03   477.32958970     3.39829494E-07   8.68661769E+16   5.66987781E+07   0.00000000E+00   4.12997119E+07   0.29942208      
  12               3.17748350E-04   6.92846395E-03   489.23790269     4.01284989E-07   1.02575279E+17   5.66987781E+07   0.00000000E+00   4.09737030E+07   0.29939672      
  13               3.75918418E-04   8.33518965E-03   492.16781828     4.79886435E-07   1.22667104E+17   5.66987781E+07   0.00000000E+00   4.06531397E+07   0.29935125      
  14               4.44737657E-04   9.97868890E-03   504.22978742     5.60765176E-07   1.43341130E+17   5.66987781E+07   0.00000000E+00   4.03363218E+07   0.29932707      
  15               5.26155608E-04   1.18980632E-02   507.27740366     6.64610115E-07   1.69885610E+17   5.66987781E+07   0.00000000E+00   4.00219195E+07   0.29928101      
  16               6.22478712E-04   1.41390724E-02   519.79107726     7.70775918E-07   1.97023458E+17   5.66987781E+07   0.00000000E+00   3.97088101E+07   0.29925586      
  17               7.36435649E-04   1.67549362E-02   523.22260871     9.07386767E-07   2.31943452E+17   5.66987781E+07   0.00000000E+00   3.93960187E+07   0.29920891      
  18               8.71254639E-04   1.98074564E-02   536.33270715     1.04647880E-06   2.67497831E+17   5.66987781E+07   0.00000000E+00   3.90827643E+07   0.29918203      
  19               1.03075489E-03   2.33674551E-02   540.32108564     1.22545006E-06   3.13245860E+17   5.66987781E+07   0.00000000E+00   3.87683974E+07   0.29913037      
  20               1.21945479E-03   2.75168956E-02   554.28837863     1.40669396E-06   3.59575010E+17   5.66987781E+07   0.00000000E+00   3.84523575E+07   0.29909687      
  21               1.44269991E-03   3.23493567E-02   559.20319997     1.63920037E-06   4.19007542E+17   5.66987781E+07   0.00000000E+00   3.81341192E+07   0.29908157      
  22               1.70681442E-03   3.79726188E-02   574.24823462     1.87372896E-06   4.78957215E+17   5.66987782E+07   0.00000000E+00   3.78132567E+07   0.29904203      
  23               2.01928028E-03   4.45079967E-02   580.28244178     2.17337446E-06   5.55551669E+17   5.66987782E+07   0.00000000E+00   3.74894021E+07   0.29893883      
  24               2.38894914E-03   5.20944665E-02   596.61149360     2.47420556E-06   6.32449449E+17   5.66987782E+07   0.00000000E+00   3.71622464E+07   0.29886134      
  25               2.82629313E-03   6.08885505E-02   604.05571589     2.85623847E-06   7.30103579E+17   5.66987782E+07   0.00000000E+00   3.68314388E+07   0.29877732      
  26               3.34370152E-03   7.10692463E-02   621.84127565     3.23845489E-06   8.27804920E+17   5.66987782E+07   0.00000000E+00   3.64966959E+07   0.29872789      
  27               3.95583167E-03   8.28365101E-02   630.82970997     3.72087730E-06   9.51120395E+17   5.66987782E+07   0.00000000E+00   3.61577082E+07   0.29863192      
  28               4.68002425E-03   9.64257422E-02   650.29452657     4.20163655E-06   1.07401100E+18   5.66987782E+07   0.00000000E+00   3.58140213E+07   0.29854297      
  29               5.53679448E-03   1.12095891E-01   661.32163154     4.80299942E-06   1.22772982E+18   5.66987782E+07   0.00000000E+00   3.54651963E+07   0.29839518      
  30               6.55041330E-03   1.30143702E-01   682.96473184     5.39958657E-06   1.38022764E+18   5.66987783E+07   0.00000000E+00   3.51108009E+07   0.29827315      
  31               7.74959494E-03   1.50886115E-01   696.42326083     6.13919700E-06   1.56928509E+18   5.66987782E+07   0.00000000E+00   3.47505350E+07   0.2980976       
  32               9.16831029E-03   1.74673170E-01   720.56351213     6.86895194E-06   1.75581912E+18   5.66987784E+07   0.00000000E+00   3.43842325E+07   0.29792069      
  33               1.08467493E-02   2.01863952E-01   736.94515293     7.76175683E-06   1.98403552E+18   5.66987783E+07   0.00000000E+00   3.40118438E+07   0.29765346      
  34               1.28324595E-02   2.32855726E-01   764.07929464     8.63549478E-06   2.20736590E+18   5.66987784E+07   0.00000000E+00   3.36332939E+07   0.29738745      
  35               1.51816929E-02   2.68098678E-01   783.85693237     9.69167876E-06   2.47732912E+18   5.66987784E+07   0.00000000E+00   3.32480555E+07   0.2970308       
  36               1.79609996E-02   3.08138479E-01   814.22709388     1.07236194E-05   2.74110849E+18   5.66987786E+07   0.00000000E+00   3.28553005E+07   0.29669341      
  37               2.12491128E-02   3.53518067E-01   837.51606985     1.19607771E-05   3.05734399E+18   5.66987785E+07   0.00000000E+00   3.24546090E+07   0.2962664       
  38               2.51391797E-02   4.04808767E-01   871.17242028     1.31669977E-05   3.36567077E+18   5.66987787E+07   0.00000000E+00   3.20458986E+07   0.29585502      
  39               2.97413996E-02   4.62563214E-01   897.90292298     1.45976559E-05   3.73136339E+18   5.66987788E+07   0.00000000E+00   3.16293165E+07   0.29531166      
  40               3.51861462E-02   5.27373199E-01   934.59649143     1.59896219E-05   4.08714221E+18   5.66987788E+07   0.00000000E+00   3.12051057E+07   0.29472584      
  41               4.16276604E-02   5.99915200E-01   964.19685178     1.76310415E-05   4.50661021E+18   5.66987793E+07   0.00000000E+00   3.07730572E+07   0.29395183      
  42               4.92484201E-02   6.81070572E-01   1003.19272326    1.92378566E-05   4.91737787E+18   5.66987790E+07   0.00000000E+00   3.03324009E+07   0.29316083      
  43               5.82643093E-02   7.71730264E-01   1034.68889353    2.11348522E-05   5.40233591E+18   5.66987795E+07   0.00000000E+00   2.98827904E+07   0.29219118      
  44               6.89307339E-02   8.72875052E-01   1075.11113202    2.30055229E-05   5.88063957E+18   5.66987795E+07   0.00000000E+00   2.94240912E+07   0.29121107      
  45               8.15498567E-02   9.85612765E-01   1107.53001543    2.52159450E-05   6.44579745E+18   5.66987797E+07   0.00000000E+00   2.89560160E+07   0.29003044      
  46               9.64791575E-02   1.11123116E+00   1148.43658099    2.74163066E-05   7.00847021E+18   5.66987796E+07   0.00000000E+00   2.84782543E+07   0.28883434      
  47               1.14141560E-01   1.25135692E+00   1181.00432968    3.00214987E-05   7.67459649E+18   5.66987801E+07   0.00000000E+00   2.79898297E+07   0.28743266      
  48               1.35037411E-01   1.40787937E+00   1222.14910659    3.26387111E-05   8.34386159E+18   5.66987796E+07   0.00000000E+00   2.74898020E+07   0.28603106      
  49               1.59758657E-01   1.58293349E+00   1254.86360917    3.57397170E-05   9.13675503E+18   5.66987802E+07   0.00000000E+00   2.69772589E+07   0.28443812      
  50               1.89005613E-01   1.77934197E+00   1296.43636291    3.88851069E-05   9.94109119E+18   5.66987799E+07   0.00000000E+00   2.64504013E+07   0.28292614      
  51               2.23606798E-01   2.00138680E+00   1329.44577422    4.26504363E-05   1.09040100E+19   5.66987800E+07   0.00000000E+00   2.59051616E+07   0.28132398      
  52               2.64542408E-01   2.25556137E+00   1371.45548748    4.65922963E-05   1.19123864E+19   5.66987798E+07   0.00000000E+00   2.53349787E+07   0.27984594      
  53               3.12972084E-01   2.54940946E+00   1404.76626547    5.14112280E-05   1.31450234E+19   5.66987802E+07   0.00000000E+00   2.47345825E+07   0.27829463      
  54               3.70267763E-01   2.89172106E+00   1447.36161856    5.65960754E-05   1.44712213E+19   5.66987786E+07   0.00000000E+00   2.40999787E+07   0.27684152      
  55               4.38052539E-01   3.28734085E+00   1481.38411219    6.28607272E-05   1.60732201E+19   5.66987808E+07   0.00000000E+00   2.34366999E+07   0.27521399      
  56               5.18246648E-01   3.73813024E+00   1525.11958408    6.94378346E-05   1.77531888E+19   5.66987780E+07   0.00000000E+00   2.27543654E+07   0.27367887      
  57               6.13121862E-01   4.24445547E+00   1560.31094960    7.70647454E-05   1.97031954E+19   5.66987809E+07   0.00000000E+00   2.20622082E+07   0.27201455      
  58               7.25365844E-01   4.79744871E+00   1605.56270716    8.46814985E-05   2.16425738E+19   5.66987814E+07   0.00000000E+00   2.13776372E+07   0.27044185      
  59               8.58158289E-01   5.38670242E+00   1642.65686080    9.29381361E-05   2.37520978E+19   5.67004551E+07   0.00000000E+00   2.07134167E+07   0.26876598      
  60               1.01526100E+00   5.99586680E+00   1690.55886117    1.00535042E-04   2.56890190E+19   5.66118205E+07   2.32323861E+05   2.00832050E+07   0.26716698      
  61               1.20112443E+00   6.58195058E+00   1733.00131571    1.07699852E-04   2.75094283E+19   5.31115540E+07   3.58662576E+06   1.95199513E+07   0.26536454      
  62               1.42101382E+00   7.10909580E+00   1768.71392378    1.14057834E-04   2.91127085E+19   4.83578239E+07   8.34829972E+06   1.90443097E+07   0.26377239      
  63               1.68115827E+00   7.55212900E+00   1797.00963627    1.19331076E-04   3.04400130E+19   4.38675414E+07   1.28501538E+07   1.86645529E+07   0.26244191      
  64               1.98892727E+00   8.03644566E+00   1826.55598920    1.24926202E-04   3.18681508E+19   3.97448492E+07   1.69843903E+07   1.82678859E+07   0.26121238      
  65               2.35303941E+00   8.44299830E+00   1850.12337975    1.29609977E-04   3.30538346E+19   3.57643436E+07   2.09824375E+07   1.79483725E+07   0.26012505      
  66               2.78380943E+00   8.75852051E+00   1867.89912648    1.33172422E-04   3.39627753E+19   3.27533324E+07   2.40040995E+07   1.77082109E+07   0.25903944      
  67               3.29344035E+00   9.11508368E+00   1887.19923418    1.37174511E-04   3.49839423E+19   3.04680286E+07   2.63000020E+07   1.74444000E+07   0.25808981      
  68               3.89636920E+00   9.51637578E+00   1908.33940262    1.41624576E-04   3.61195063E+19   2.82561869E+07   2.85311021E+07   1.71564913E+07   0.25718122      
  69               4.60967600E+00   9.96554811E+00   1930.99680960    1.46560367E-04   3.73805316E+19   2.53312878E+07   3.14479662E+07   1.68447204E+07   0.25651632      
  70               5.45356761E+00   1.02920755E+01   1947.08828772    1.50244032E-04   3.82862788E+19   2.22303104E+07   3.44814178E+07   1.66246473E+07   0.25592922      
  71               6.45195012E+00   1.05215455E+01   1958.01605143    1.52734928E-04   3.89214607E+19   2.02081095E+07   3.64512776E+07   1.64731663E+07   0.25544197      
  72               7.63310614E+00   1.07853452E+01   1970.51308955    1.55569240E-04   3.96442829E+19   1.89817053E+07   3.76739861E+07   1.63020295E+07   0.25484531      
  73               9.03049593E+00   1.10874806E+01   1984.33561341    1.58810829E-04   4.04709673E+19   1.79752428E+07   3.86814149E+07   1.61098090E+07   0.25423832      
  74               1.06837053E+01   1.14322102E+01   1999.91208697    1.62469968E-04   4.14042703E+19   1.70614536E+07   3.95966386E+07   1.58951980E+07   0.25347882      
  75               1.26395671E+01   1.18237821E+01   2016.94249371    1.66612491E-04   4.24608557E+19   1.61754364E+07   4.04846819E+07   1.56572010E+07   0.25271103      
  76               1.49534878E+01   1.22665605E+01   2035.83409991    1.71243059E-04   4.36421622E+19   1.53687615E+07   4.12933065E+07   1.53950653E+07   0.25177531      
  77               1.76910170E+01   1.27679896E+01   2056.33892139    1.76459934E-04   4.49731869E+19   1.46342243E+07   4.20295102E+07   1.51066088E+07   0.25081484      
  78               2.09297047E+01   1.33339184E+01   2078.88805335    1.82275267E-04   4.64571464E+19   1.39091970E+07   4.27562486E+07   1.47910538E+07   0.24965884      
  79               2.47612977E+01   1.39705557E+01   2103.07431414    1.88772959E-04   4.81154888E+19   1.31751283E+07   4.34920346E+07   1.44478449E+07   0.24845991      
  80               2.92943389E+01   1.46845102E+01   2129.32757659    1.95962611E-04   4.99508436E+19   1.24437950E+07   4.42250877E+07   1.40766394E+07   0.24707066      
  81               3.46572422E+01   1.54828630E+01   2157.16698178    2.03936476E-04   5.19868313E+19   1.17125809E+07   4.49579856E+07   1.36772824E+07   0.24565912      
  82               4.10019301E+01   1.63732077E+01   2187.03816276    2.12701336E-04   5.42254605E+19   1.09917598E+07   4.56804543E+07   1.32497922E+07   0.24401843      
  83               4.85081376E+01   1.73637498E+01   2218.37272754    2.22362358E-04   5.66937054E+19   1.02742129E+07   4.63995877E+07   1.27943242E+07   0.24230292      
  84               5.73885036E+01   1.84633933E+01   2251.64393249    2.32924786E-04   5.93933260E+19   9.57081915E+06   4.71045180E+07   1.23111384E+07   0.24031129      
  85               6.78945948E+01   1.96818782E+01   2286.19628572    2.44512262E-04   6.23560885E+19   8.87862270E+06   4.77978780E+07   1.18005594E+07   0.23827871      
  86               8.03240320E+01   2.10298964E+01   2322.57149376    2.57127174E-04   6.55833929E+19   8.19726209E+06   4.84804253E+07   1.12629430E+07   0.23599699      
  87               9.50289215E+01   2.25186834E+01   2360.01249918    2.70941479E-04   6.91121702E+19   7.52349691E+06   4.91559035E+07   1.06988702E+07   0.23368183      
  88               1.12425830E+02   2.41613017E+01   2399.14606637    2.85903910E-04   7.29439837E+19   6.89242680E+06   4.97885617E+07   1.01086822E+07   0.23113157      
  89               1.33007583E+02   2.59727336E+01   2439.15334131    3.02226018E-04   7.71266374E+19   6.29763749E+06   5.03846045E+07   9.49244516E+06   0.22858516      
  90               1.57357229E+02   2.79690865E+01   2480.76473438    3.19908511E-04   8.16617237E+19   5.73274647E+06   5.09507078E+07   8.85040749E+06   0.22582255      
  91               1.86164557E+02   3.01686154E+01   2523.05405321    3.39176809E-04   8.66073327E+19   5.19938697E+06   5.14852259E+07   8.18266978E+06   0.22306617      
  92               2.20245630E+02   3.25920620E+01   2566.87729746    3.60037102E-04   9.19671163E+19   4.71546011E+06   5.19702719E+07   7.48916527E+06   0.22011616      
  93               2.60565913E+02   3.52630319E+01   2611.21719988    3.82773634E-04   9.78143316E+19   4.27077481E+06   5.24160203E+07   6.76967140E+06   0.21721047      
  94               3.08267614E+02   3.82084099E+01   2657.07174287    4.07399422E-04   1.04155336E+20   3.86712353E+06   5.28206833E+07   6.02380172E+06   0.21415428      
  95               3.64702046E+02   4.14589155E+01   2703.32381840    4.34272992E-04   1.11082515E+20   3.49293010E+06   5.31958279E+07   5.25100968E+06   0.21111198      
  96               4.31467909E+02   4.50496639E+01   2751.09154745    4.63422991E-04   1.18607555E+20   3.15168211E+06   5.35379713E+07   4.45058854E+06   0.20796577      
  97               5.10456573E+02   4.90208382E+01   2799.17851905    4.95296883E-04   1.26845766E+20   2.83528678E+06   5.38551979E+07   3.62169012E+06   0.20495416      
  98               6.03905660E+02   5.34184025E+01   2848.86488114    5.29936124E-04   1.35814108E+20   2.54795679E+06   5.41433024E+07   2.76332495E+06   0.20195017      
  99               7.14462436E+02   5.82950027E+01   2898.86362169    5.67898416E-04   1.45656336E+20   2.28281877E+06   5.44091587E+07   1.87438037E+06   0.19904893      
  100              8.45258798E+02   6.37107524E+01   2950.55517961    6.09253369E-04   1.56399310E+20   2.04841188E+06   5.46442385E+07   9.53656386E+05   0.19616444      
  101              1.00000000E+03   6.97335988E+01   3002.56051721    6.54685087E-04   1.68219427E+20   1.92379394E+06   5.47690116E+07   0.00000000E+00   0.19342401      
