# ATMO pressure-temperature profile
# Effective temperature = 400.0K
# log(g) = 5.0cm/s^2
# M/H = 0.0
# Optical depth grid in band 17 (1.20-1.33microns)
# All parameters in cgs units
#
# Model Level      Optical Depth    Pressure         Temperature      Density          Number Density   Rad Flux         Conv Flux        Radial Extension Adiabatic Gradient
#                                   [Ba]             [K]              [g/cm^3]         [/cm^3]          [ergs/s/cm^2/sr] [ergs/s/cm^2/sr] [cm]             [K/Ba]          
  1                5.00000000E-07   1.00000000E-05   33.56812628      8.44579861E-09   2.15773815E+15   1.45139627E+06   0.00000000E+00   3.13658614E+06   0.34574466      
  2                6.19412983E-07   2.33144731E-05   40.76361843      1.62151399E-08   4.14265452E+15   1.45139627E+06   0.00000000E+00   3.12520873E+06   0.34574466      
  3                7.67344888E-07   3.98033946E-05   43.83003679      2.57463755E-08   6.57770082E+15   1.45139627E+06   0.00000000E+00   3.11713872E+06   0.34574466      
  4                9.50606773E-07   6.02220739E-05   45.08641732      3.78684739E-08   9.67466244E+15   1.45139627E+06   0.00000000E+00   3.11059943E+06   0.34574466      
  5                1.17763635E-06   8.55050691E-05   47.74580462      5.07720229E-08   1.29712696E+16   1.45139627E+06   0.00000000E+00   3.10483340E+06   0.34574466      
  6                1.45888650E-06   1.16808440E-04   48.71506577      6.79796229E-08   1.73674785E+16   1.45139627E+06   0.00000000E+00   3.09950509E+06   0.31479396      
  7                1.80730647E-06   1.55561742E-04   51.34088341      8.59027928E-08   2.19465016E+16   1.45139627E+06   0.00000000E+00   3.09443383E+06   0.31480365      
  8                2.23893819E-06   2.03530786E-04   52.49548199      1.09919819E-07   2.80823871E+16   1.45139627E+06   0.00000000E+00   3.08949732E+06   0.314813        
  9                2.77365477E-06   2.62900816E-04   55.34076213      1.34683570E-07   3.44090465E+16   1.45139627E+06   0.00000000E+00   3.08461786E+06   0.31482216      
  10               3.43607555E-06   3.36366202E-04   56.60917087      1.68458675E-07   4.30379323E+16   1.45139627E+06   0.00000000E+00   3.07974057E+06   0.31483122      
  11               4.25669961E-06   4.27255539E-04   59.50108781      2.03577894E-07   5.20102134E+16   1.45139627E+06   0.00000000E+00   3.07483261E+06   0.31484024      
  12               5.27331001E-06   5.39680553E-04   60.62683456      2.52371145E-07   6.44759449E+16   1.45139627E+06   0.00000000E+00   3.06987266E+06   0.31484928      
  13               6.53271338E-06   6.78697490E-04   63.66171318      3.02249606E-07   7.72189267E+16   1.45139627E+06   0.00000000E+00   3.06483921E+06   0.3148584       
  14               8.09289496E-06   8.50541160E-04   64.84531746      3.71864342E-07   9.50041451E+16   1.45139627E+06   0.00000000E+00   3.05971345E+06   0.31486761      
  15               1.00256884E-05   1.06290263E-03   68.18505946      4.41948923E-07   1.12909400E+17   1.45139627E+06   0.00000000E+00   3.05447507E+06   0.31487696      
  16               1.24200832E-05   1.32520293E-03   69.54925643      5.40203902E-07   1.38011646E+17   1.45139627E+06   0.00000000E+00   3.04910680E+06   0.31488647      
  17               1.53863215E-05   1.64874470E-03   73.22935029      6.38316475E-07   1.63077510E+17   1.45139627E+06   0.00000000E+00   3.04359703E+06   0.31489618      
  18               1.90609746E-05   2.04588368E-03   74.75170423      7.75939142E-07   1.98237439E+17   1.45139627E+06   0.00000000E+00   3.03795403E+06   0.3149061       
  19               2.36132303E-05   2.53105963E-03   78.82106583      9.10390875E-07   2.32587255E+17   1.45139627E+06   0.00000000E+00   3.03218143E+06   0.31491625      
  20               2.92526829E-05   3.12156739E-03   80.59853277      1.09802797E-06   2.80524902E+17   1.45139627E+06   0.00000000E+00   3.02627527E+06   0.31492661      
  21               3.62389832E-05   3.83876354E-03   85.13719949      1.27832070E-06   3.26586208E+17   1.45139627E+06   0.00000000E+00   3.02022170E+06   0.31493718      
  22               4.48937934E-05   4.70923466E-03   87.16699366      1.53167310E-06   3.91312845E+17   1.45139627E+06   0.00000000E+00   3.01400083E+06   0.314948        
  23               5.56155970E-05   5.76608867E-03   92.31479524      1.77083390E-06   4.52413802E+17   1.45139627E+06   0.00000000E+00   3.00758367E+06   0.31495911      
  24               6.88980457E-05   7.04933216E-03   94.71700194      2.11002623E-06   5.39070879E+17   1.45139627E+06   0.00000000E+00   3.00094507E+06   0.31497057      
  25               8.53526881E-05   8.60787874E-03   100.48389918     2.42866427E-06   6.20476734E+17   1.45139627E+06   0.00000000E+00   2.99406026E+06   0.31498245      
  26               1.05737126E-04   1.05006695E-02   103.30614329     2.88175830E-06   7.36235374E+17   1.45139627E+06   0.00000000E+00   2.98690558E+06   0.31499482      
  27               1.30989898E-04   1.27989898E-02   109.88434029     3.30223301E-06   8.43656638E+17   1.45139627E+06   0.00000000E+00   2.97945521E+06   0.31500777      
  28               1.62273687E-04   1.55903905E-02   113.23287615     3.90332683E-06   9.97264349E+17   1.45139627E+06   0.00000000E+00   2.97168020E+06   0.31945122      
  29               2.01028857E-04   1.89809991E-02   120.66285527     4.45977943E-06   1.13938713E+18   1.45139627E+06   0.00000000E+00   2.96355370E+06   0.31750902      
  30               2.49039768E-04   2.30981031E-02   124.69327844     5.25130772E-06   1.34171141E+18   1.45139627E+06   0.00000000E+00   2.95504621E+06   0.32389409      
  31               3.08516931E-04   2.80960729E-02   133.16456440     5.98170315E-06   1.52820912E+18   1.45139627E+06   0.00000000E+00   2.94612862E+06   0.32294769      
  32               3.82198786E-04   3.41624428E-02   137.94827316     7.02103194E-06   1.79373586E+18   1.45139627E+06   0.00000000E+00   2.93676776E+06   0.3258313       
  33               4.73477780E-04   4.15249108E-02   147.45703733     7.98383408E-06   2.03971291E+18   1.45139627E+06   0.00000000E+00   2.92693405E+06   0.32604508      
  34               5.86556569E-04   5.04585176E-02   153.19434270     9.33813281E-06   2.38570972E+18   1.45139627E+06   0.00000000E+00   2.91658761E+06   0.32486247      
  35               7.26641509E-04   6.12978282E-02   163.76823910     1.06116685E-05   2.71107323E+18   1.45139627E+06   0.00000000E+00   2.90569881E+06   0.32495137      
  36               9.00182369E-04   7.44480616E-02   170.24612505     1.23977861E-05   3.16739333E+18   1.45139627E+06   0.00000000E+00   2.89423393E+06   0.32340837      
  37               1.11516929E-03   9.04025593E-02   181.44710886     1.41253188E-05   3.60874764E+18   1.45139627E+06   0.00000000E+00   2.88217769E+06   0.32365591      
  38               1.38150068E-03   1.09751441E-01   188.69637608     1.64891507E-05   4.21281618E+18   1.45139627E+06   0.00000000E+00   2.86949949E+06   0.31962012      
  39               1.71143891E-03   1.33189036E-01   200.96564606     1.87894944E-05   4.80034545E+18   1.45139627E+06   0.00000000E+00   2.85618403E+06   0.31984771      
  40               2.12017497E-03   1.61538942E-01   209.19262297     2.18897928E-05   5.59315310E+18   1.45139627E+06   0.00000000E+00   2.84220512E+06   0.31544828      
  41               2.62652780E-03   1.95823569E-01   221.51928659     2.50472925E-05   6.40293743E+18   1.45139627E+06   0.00000000E+00   2.82756319E+06   0.31539632      
  42               3.25381085E-03   2.37297762E-01   229.55167335     2.93078883E-05   7.48753765E+18   1.45139627E+06   0.00000000E+00   2.81225565E+06   0.31159758      
  43               4.03090537E-03   2.87548190E-01   241.35880048     3.37766430E-05   8.62925573E+18   1.45139627E+06   0.00000000E+00   2.79628439E+06   0.31148426      
  44               4.99359024E-03   3.48480609E-01   249.23345583     3.96409131E-05   1.01274036E+19   1.45139627E+06   0.00000000E+00   2.77963232E+06   0.30853626      
  45               6.18618926E-03   4.22406154E-01   261.25289516     4.58395659E-05   1.17110265E+19   1.45139627E+06   0.00000000E+00   2.76229019E+06   0.3084783       
  46               7.66361189E-03   5.12133351E-01   269.90594885     5.37950076E-05   1.37434714E+19   1.45139627E+06   0.00000000E+00   2.74422124E+06   0.30615436      
  47               9.49388141E-03   6.20963076E-01   283.21947658     6.21604332E-05   1.58806583E+19   1.45139627E+06   0.00000000E+00   2.72540124E+06   0.30597704      
  48               1.17612668E-02   7.52737690E-01   293.59180782     7.26894026E-05   1.85705843E+19   1.45139627E+06   0.00000000E+00   2.70579749E+06   0.30411606      
  49               1.45701627E-02   9.12070775E-01   308.95953266     8.36947683E-05   2.13822193E+19   1.45139627E+06   0.00000000E+00   2.68536971E+06   0.30387349      
  50               1.80498959E-02   1.10445876E+00   322.26334731     9.71650235E-05   2.48235808E+19   1.45139343E+06   0.00000000E+00   2.66403563E+06   0.3025195       
  51               2.23606798E-02   1.33620426E+00   341.77190334     1.10842897E-04   2.83179843E+19   1.45091090E+06   4.85546907E+02   2.64170493E+06   0.30215481      
  52               2.77009907E-02   1.61418157E+00   361.41560996     1.26624216E-04   3.23497790E+19   1.44052608E+06   1.08702988E+04   2.61824120E+06   0.30126357      
  53               3.43167066E-02   1.94706102E+00   382.82036857     1.44197565E-04   3.68392148E+19   1.42331953E+06   2.80768265E+04   2.59360631E+06   0.30095701      
  54               4.25124273E-02   2.34536906E+00   404.42681039     1.64416225E-04   4.20046232E+19   1.40163930E+06   4.97571039E+04   2.56773802E+06   0.30049417      
  55               5.26654988E-02   2.82049675E+00   427.91599242     1.86870395E-04   4.77411554E+19   1.37810490E+06   7.32915295E+04   2.54063187E+06   0.30026787      
  56               6.52433875E-02   3.38449582E+00   451.51022607     2.12519997E-04   5.42940490E+19   1.35683836E+06   9.45579670E+04   2.51233045E+06   0.29996476      
  57               8.08252026E-02   4.05104727E+00   477.00797454     2.40777024E-04   6.15130853E+19   1.34129115E+06   1.10105238E+05   2.48286411E+06   0.2998359       
  58               1.00128360E-01   4.83759529E+00   502.55424013     2.72911263E-04   6.97224165E+19   1.33563100E+06   1.15765366E+05   2.45218039E+06   0.29960744      
  59               1.24041612E-01   5.76317801E+00   530.14428586     3.08233082E-04   7.87397060E+19   1.34306163E+06   1.08334717E+05   2.42026676E+06   0.29948711      
  60               1.53665970E-01   6.84864696E+00   557.69684394     3.48191542E-04   8.89472310E+19   1.35337762E+06   9.80187109E+04   2.38713316E+06   0.2992969       
  61               1.90365394E-01   8.11699483E+00   587.36703155     3.91829665E-04   1.00094806E+20   1.35611753E+06   9.52788294E+04   2.35279472E+06   0.29918066      
  62               2.35829593E-01   9.59889171E+00   616.96854569     4.41133108E-04   1.12689618E+20   1.34450606E+06   1.06890268E+05   2.31715087E+06   0.29884832      
  63               2.92151824E-01   1.13244577E+01   648.82820221     4.94879238E-04   1.26419345E+20   1.31535821E+06   1.36038120E+05   2.28021936E+06   0.29861207      
  64               3.61925265E-01   1.33246301E+01   680.44906771     5.55227558E-04   1.41835641E+20   1.27242821E+06   1.78968154E+05   2.24206165E+06   0.29814448      
  65               4.48362417E-01   1.56313895E+01   714.27278742     6.20504358E-04   1.58510968E+20   1.21926895E+06   2.32127444E+05   2.20276148E+06   0.29784078      
  66               5.55443005E-01   1.82961056E+01   747.84124568     6.93682033E-04   1.77204638E+20   1.16133572E+06   2.90060782E+05   2.16214537E+06   0.2971515       
  67               6.88097217E-01   2.13762114E+01   783.89324040     7.73187513E-04   1.97514805E+20   1.10267388E+06   3.48722703E+05   2.12008792E+06   0.2967001       
  68               8.52432700E-01   2.49350910E+01   819.78788993     8.62423130E-04   2.20310552E+20   1.04825055E+06   4.03146264E+05   2.07650556E+06   0.29574965      
  69               1.05601576E+00   2.90322787E+01   858.17729941     9.59213829E-04   2.45036027E+20   1.00840217E+06   4.42994632E+05   2.03145833E+06   0.29514878      
  70               1.30821975E+00   3.37347367E+01   896.28199766     1.06720090E-03   2.72620488E+20   9.88738193E+05   4.62658719E+05   1.98498064E+06   0.29388338      
  71               1.62065660E+00   3.91343158E+01   936.88629683     1.18436710E-03   3.02549680E+20   9.94970227E+05   4.56426339E+05   1.93695270E+06   0.29310392      
  72               2.00771148E+00   4.53060970E+01   977.20409613     1.31457870E-03   3.35812773E+20   1.01826283E+06   4.33136628E+05   1.88749042E+06   0.29149705      
  73               2.48720511E+00   5.23181213E+01   1019.63110507    1.45487117E-03   3.71650656E+20   1.05492754E+06   3.96470378E+05   1.83678692E+06   0.29060465      
  74               3.08121427E+00   6.02289479E+01   1061.49555839    1.60880813E-03   4.10972664E+20   1.09499511E+06   3.56401936E+05   1.78507892E+06   0.28877402      
  75               3.81708825E+00   6.91366578E+01   1105.09853464    1.77390422E-03   4.53140853E+20   1.13646392E+06   3.14932517E+05   1.73234994E+06   0.28771737      
  76               4.72870805E+00   7.92006144E+01   1148.50925106    1.95535209E-03   4.99482058E+20   1.17656073E+06   2.74835652E+05   1.67831289E+06   0.28570885      
  77               5.85804632E+00   9.05750589E+01   1193.75372701    2.15141637E-03   5.49565833E+20   1.22043174E+06   2.30965330E+05   1.62285599E+06   0.28456374      
  78               7.25709989E+00   1.03396330E+02   1239.02573802    2.36622095E-03   6.04436435E+20   1.25803743E+06   1.93364136E+05   1.56603075E+06   0.28237677      
  79               8.99028379E+00   1.17765252E+02   1285.60666661    2.59740527E-03   6.63490775E+20   1.28382406E+06   1.67572854E+05   1.50807096E+06   0.28103447      
  80               1.11373970E+01   1.33797019E+02   1332.10882661    2.84798451E-03   7.27499285E+20   1.29333706E+06   1.58059507E+05   1.44912651E+06   0.27890565      
  81               1.37972966E+01   1.51744783E+02   1379.79538830    3.11838553E-03   7.96571788E+20   1.29332425E+06   1.58072363E+05   1.38890150E+06   0.27722208      
  82               1.70924493E+01   1.71867826E+02   1427.86484372    3.41300956E-03   8.71833039E+20   1.28403751E+06   1.67358950E+05   1.32721925E+06   0.2753801       
  83               2.11745701E+01   1.94425039E+02   1477.25740632    3.73185679E-03   9.53283022E+20   1.26526401E+06   1.86132385E+05   1.26401379E+06   0.27364851      
  84               2.62316072E+01   2.19582731E+02   1526.87784477    4.07775934E-03   1.04164499E+21   1.23472854E+06   2.16668191E+05   1.19952297E+06   0.27179464      
  85               3.24963962E+01   2.47440352E+02   1577.31365477    4.44814068E-03   1.13626152E+21   1.19543031E+06   2.55967389E+05   1.13411292E+06   0.27010579      
  86               4.02573794E+01   2.78168207E+02   1627.59624584    4.84602720E-03   1.23790310E+21   1.14889652E+06   3.02502767E+05   1.06792926E+06   0.26828235      
  87               4.98718870E+01   3.12071829E+02   1678.63645042    5.27126084E-03   1.34655395E+21   1.09543002E+06   3.55972868E+05   1.00084868E+06   0.26661345      
  88               6.17825886E+01   3.49247668E+02   1729.39832404    5.72900025E-03   1.46273051E+21   1.03319013E+06   4.18217761E+05   9.33189380E+05   0.26479334      
  89               7.65378750E+01   3.89833204E+02   1780.50056651    6.21117350E-03   1.58585162E+21   9.66922467E+05   4.84496341E+05   8.65152287E+05   0.26315581      
  90               9.48171070E+01   4.34027420E+02   1831.18678953    6.72396635E-03   1.71676306E+21   8.94861936E+05   5.56570489E+05   7.96766197E+05   0.26136978      
  91               1.17461894E+02   4.81992470E+02   1882.04643438    7.26527855E-03   1.85496517E+21   8.15396270E+05   6.36070358E+05   7.28140455E+05   0.25978644      
  92               1.45514845E+02   5.33411245E+02   1931.94709694    7.83303201E-03   1.99982861E+21   7.28227491E+05   7.23285582E+05   6.59979857E+05   0.2580358       
  93               1.80267568E+02   5.88095725E+02   1981.19232991    8.42230609E-03   2.15004339E+21   6.56726716E+05   7.94870249E+05   5.92653218E+05   0.25653547      
  94               2.23320145E+02   6.48503874E+02   2031.24530853    9.06098776E-03   2.31246964E+21   5.96912121E+05   8.54758102E+05   5.23502105E+05   0.25473463      
  95               2.76654794E+02   7.14455968E+02   2081.89446985    9.74535132E-03   2.48566500E+21   5.38906358E+05   9.12519772E+05   4.53314929E+05   0.2531827       
  96               3.42727143E+02   7.86188203E+02   2132.71088798    1.04769401E-02   2.67005604E+21   4.99504565E+05   9.51894200E+05   3.82322108E+05   0.25130863      
  97               4.24579284E+02   8.69476008E+02   2187.21186698    1.12977533E-02   2.87933760E+21   4.55116677E+05   9.97781890E+05   3.05767936E+05   0.24963931      
  98               5.25979842E+02   9.57984934E+02   2240.57286145    1.21530913E-02   3.09688763E+21   3.86581310E+05   1.06688699E+06   2.30230870E+05   0.24764515      
  99               6.51597486E+02   1.04556245E+03   2289.41933597    1.29807594E-02   3.30788552E+21   3.43291063E+05   1.11135889E+06   1.60504078E+05   0.24624735      
  100              8.07215886E+02   1.14891813E+03   2343.12511494    1.39365043E-02   3.55156236E+21   3.24934782E+05   1.12953548E+06   8.36604282E+04   0.24421019      
  101              1.00000000E+03   1.27001819E+03   2400.77430700    1.50358002E-02   3.83163777E+21   3.13919119E+05   1.13747853E+06   0.00000000E+00   0.242547        
