# ATMO pressure-temperature profile
# Effective temperature = 1500.0K
# log(g) = 4.5cm/s^2
# M/H = 0.0
# Optical depth grid in band 17 (1.20-1.33microns)
# All parameters in cgs units
#
# Model Level      Optical Depth    Pressure         Temperature      Density          Number Density   Rad Flux         Conv Flux        Radial Extension Adiabatic Gradient
#                                   [Ba]             [K]              [g/cm^3]         [/cm^3]          [ergs/s/cm^2/sr] [ergs/s/cm^2/sr] [cm]             [K/Ba]          
  1                5.00000000E-06   1.00000000E-05   480.02273742     5.90252896E-10   1.50891241E+14   2.87043495E+08   0.00000000E+00   2.20638678E+07   0.29783892      
  2                6.05313423E-06   1.23499463E-04   543.14723340     6.44239648E-09   1.64692317E+15   2.87043495E+08   0.00000000E+00   2.02233032E+07   0.29793534      
  3                7.32808679E-06   2.51636286E-04   574.97636113     1.24000425E-08   3.16992594E+15   2.87043495E+08   0.00000000E+00   1.97699480E+07   0.29786165      
  4                8.87157859E-06   4.01555396E-04   590.75209773     1.92592794E-08   4.92341034E+15   2.87043495E+08   0.00000000E+00   1.94631691E+07   0.29804227      
  5                1.07401712E-05   5.78593165E-04   609.52149372     2.68957757E-08   6.87559226E+15   2.87043495E+08   0.00000000E+00   1.92171868E+07   0.29791864      
  6                1.30023396E-05   7.88456977E-04   619.38118801     3.60678590E-08   9.22031651E+15   2.87043496E+08   0.00000000E+00   1.90041103E+07   0.29774902      
  7                1.57409813E-05   1.03791649E-03   634.58580291     4.63417355E-08   1.18467138E+16   2.87043496E+08   0.00000000E+00   1.88111564E+07   0.29764364      
  8                1.90564546E-05   1.33496830E-03   642.45449297     5.88747023E-08   1.50506211E+16   2.87043496E+08   0.00000000E+00   1.86313183E+07   0.29748071      
  9                2.30702555E-05   1.68915418E-03   656.25952680     7.29283394E-08   1.86431593E+16   2.87043496E+08   0.00000000E+00   1.84603879E+07   0.29738013      
  10               2.79294706E-05   2.11176871E-03   663.15561776     9.02263915E-08   2.30651741E+16   2.87043497E+08   0.00000000E+00   1.82956364E+07   0.29721461      
  11               3.38121669E-05   2.61636589E-03   676.11791095     1.09642344E-07   2.80286304E+16   2.87043497E+08   0.00000000E+00   1.81352052E+07   0.29711535      
  12               4.09339169E-05   3.21907506E-03   682.29703206     1.33677991E-07   3.41730278E+16   2.87043497E+08   0.00000000E+00   1.79777747E+07   0.29694503      
  13               4.95556987E-05   3.93921545E-03   694.75818973     1.60649868E-07   4.10678436E+16   2.87043498E+08   0.00000000E+00   1.78223760E+07   0.29684361      
  14               5.99934592E-05   4.79978564E-03   700.47338345     1.94148783E-07   4.96313449E+16   2.87043499E+08   0.00000000E+00   1.76682845E+07   0.2966639       
  15               7.26296922E-05   5.82823698E-03   712.66712174     2.31715160E-07   5.92347170E+16   2.87043499E+08   0.00000000E+00   1.75149502E+07   0.29655872      
  16               8.79274551E-05   7.05717741E-03   718.21199205     2.78408536E-07   7.11711892E+16   2.87043500E+08   0.00000000E+00   1.73619429E+07   0.29637009      
  17               1.06447338E-04   8.52540449E-03   730.49521183     3.30674915E-07   8.45324506E+16   2.87043501E+08   0.00000000E+00   1.72089218E+07   0.29625921      
  18               1.28868005E-04   1.02789571E-02   736.05456276     3.95678912E-07   1.01149766E+17   2.87043502E+08   0.00000000E+00   1.70556201E+07   0.29605629      
  19               1.56011066E-04   1.23724051E-02   748.59788073     4.68283463E-07   1.19710261E+17   2.87043504E+08   0.00000000E+00   1.69018272E+07   0.29593555      
  20               1.88871184E-04   1.48702511E-02   754.48612875     5.58432347E-07   1.42755511E+17   2.87043506E+08   0.00000000E+00   1.67473637E+07   0.29571503      
  21               2.28652526E-04   1.78494911E-02   767.61335980     6.58849451E-07   1.68426008E+17   2.87043508E+08   0.00000000E+00   1.65920438E+07   0.29558071      
  22               2.76812886E-04   2.14018256E-02   774.02502540     7.83427713E-07   2.00272656E+17   2.87043510E+08   0.00000000E+00   1.64356854E+07   0.2953368       
  23               3.35117111E-04   2.56357192E-02   787.87998620     9.21908523E-07   2.35673785E+17   2.87043512E+08   0.00000000E+00   1.62781433E+07   0.29518617      
  24               4.05701771E-04   3.06788270E-02   795.19287661     1.09312253E-06   2.79442276E+17   2.87043515E+08   0.00000000E+00   1.61192813E+07   0.29485804      
  25               4.91153455E-04   3.66808412E-02   810.27064754     1.28265825E-06   3.27895170E+17   2.87043518E+08   0.00000000E+00   1.59589911E+07   0.29470768      
  26               5.94603558E-04   4.38160157E-02   818.79551969     1.51620967E-06   3.87599551E+17   2.87043522E+08   0.00000000E+00   1.57971944E+07   0.29439919      
  27               7.19843029E-04   5.22868664E-02   835.39272419     1.77338512E-06   4.53343890E+17   2.87043527E+08   0.00000000E+00   1.56338343E+07   0.29419608      
  28               8.71461295E-04   6.23280419E-02   845.63008103     2.08835319E-06   5.33861865E+17   2.87043532E+08   0.00000000E+00   1.54688354E+07   0.29388582      
  29               1.05501444E-03   7.42098458E-02   864.18723997     2.43307041E-06   6.21984439E+17   2.87043537E+08   0.00000000E+00   1.53021478E+07   0.29366374      
  30               1.27722880E-03   8.82388842E-02   876.39172347     2.85273800E-06   7.29268710E+17   2.87043544E+08   0.00000000E+00   1.51337566E+07   0.29324156      
  31               1.54624747E-03   1.04760030E-01   897.30818066     3.30794293E-06   8.45628917E+17   2.87043551E+08   0.00000000E+00   1.49636853E+07   0.29284479      
  32               1.87192870E-03   1.24160650E-01   912.13222007     3.85681205E-06   9.85943480E+17   2.87043560E+08   0.00000000E+00   1.47919252E+07   0.29228829      
  33               2.26620714E-03   1.46878495E-01   935.83464345     4.44695601E-06   1.13680228E+18   2.87043571E+08   0.00000000E+00   1.46184562E+07   0.29189175      
  34               2.74353120E-03   1.73423667E-01   953.67039262     5.15241316E-06   1.31715202E+18   2.87043588E+08   0.00000000E+00   1.44430888E+07   0.29132972      
  35               3.32139252E-03   2.04375454E-01   980.66016472     5.90476401E-06   1.50951016E+18   2.87043606E+08   0.00000000E+00   1.42656375E+07   0.29080389      
  36               4.02096694E-03   2.40365680E-01   1002.16500892    6.79548442E-06   1.73723697E+18   2.87043631E+08   0.00000000E+00   1.40859685E+07   0.29001873      
  37               4.86789053E-03   2.82097180E-01   1032.93476703    7.73753155E-06   1.97811570E+18   2.87043654E+08   0.00000000E+00   1.39039764E+07   0.28935193      
  38               5.89319895E-03   3.30292349E-01   1058.47787054    8.84069656E-06   2.26017762E+18   2.87043685E+08   0.00000000E+00   1.37197045E+07   0.28852365      
  39               7.13446485E-03   3.85706877E-01   1093.42559335    9.99370629E-06   2.55501813E+18   2.87043708E+08   0.00000000E+00   1.35332738E+07   0.28779625      
  40               8.63717467E-03   4.49090685E-01   1123.39125444    1.13254187E-05   2.89553519E+18   2.87043733E+08   0.00000000E+00   1.33448707E+07   0.28678902      
  41               1.04563955E-02   5.21367748E-01   1162.62394728    1.27041744E-05   3.24811007E+18   2.87043741E+08   0.00000000E+00   1.31543245E+07   0.2858251       
  42               1.26587931E-02   6.03668363E-01   1196.88293875    1.42883604E-05   3.65319269E+18   2.87043754E+08   0.00000000E+00   1.29611549E+07   0.28456046      
  43               1.53250748E-02   6.97209605E-01   1240.09346106    1.59271345E-05   4.07225330E+18   2.87043748E+08   0.00000000E+00   1.27650704E+07   0.28330685      
  44               1.85529469E-02   8.03246805E-01   1278.16516235    1.78027046E-05   4.55184925E+18   2.87043744E+08   0.00000000E+00   1.25659359E+07   0.2817367       
  45               2.24606956E-02   9.23285309E-01   1324.63195044    1.97450472E-05   5.04854857E+18   2.87043742E+08   0.00000000E+00   1.23634715E+07   0.28023899      
  46               2.71915211E-02   1.05927259E+00   1365.39540352    2.19765188E-05   5.61920841E+18   2.87043766E+08   0.00000000E+00   1.21570333E+07   0.27865576      
  47               3.29187854E-02   1.21387728E+00   1413.51190734    2.43262598E-05   6.22015419E+18   2.87043850E+08   0.00000000E+00   1.19455838E+07   0.27732976      
  48               3.98523653E-02   1.38994154E+00   1455.31520344    2.70542160E-05   6.91775709E+18   2.87044010E+08   0.00000000E+00   1.17285550E+07   0.27563479      
  49               4.82463432E-02   1.58910920E+00   1504.16797002    2.99277646E-05   7.65214596E+18   2.87044258E+08   0.00000000E+00   1.15072098E+07   0.27396729      
  50               5.84083183E-02   1.80885331E+00   1547.09681428    3.31332671E-05   8.46860148E+18   2.87044597E+08   0.00000000E+00   1.12865220E+07   0.27208431      
  51               7.07106781E-02   2.04591445E+00   1597.75494999    3.62899135E-05   9.27476978E+18   2.87048247E+08   0.00000000E+00   1.10703303E+07   0.27037402      
  52               8.56042452E-02   2.28973997E+00   1647.00690624    3.94067670E-05   1.00697012E+19   2.84451744E+08   2.61124283E+06   1.08664352E+07   0.2684848       
  53               1.03634797E-01   2.52008905E+00   1689.72605059    4.22967468E-05   1.08025286E+19   2.79667395E+08   7.48394124E+06   1.06880051E+07   0.26652734      
  54               1.25463068E-01   2.71514917E+00   1723.54014673    4.47053340E-05   1.14103281E+19   2.74077099E+08   1.31832480E+07   1.05461485E+07   0.26486469      
  55               1.51888958E-01   2.91817491E+00   1756.66155719    4.71668494E-05   1.20323113E+19   2.67692909E+08   1.96499993E+07   1.04063316E+07   0.2634199       
  56               1.83880850E-01   3.09589529E+00   1784.16748792    4.92825748E-05   1.25682983E+19   2.61744408E+08   2.58015936E+07   1.02897602E+07   0.2620251       
  57               2.22611093E-01   3.24093916E+00   1805.62258755    5.09777210E-05   1.30007899E+19   2.56609851E+08   3.11521006E+07   1.01982515E+07   0.2607543       
  58               2.69498965E-01   3.40725435E+00   1829.31670609    5.28985953E-05   1.34909177E+19   2.50894509E+08   3.69927330E+07   1.00969724E+07   0.25956835      
  59               3.26262682E-01   3.59698661E+00   1855.14742626    5.50633233E-05   1.40438516E+19   2.44095878E+08   4.37645995E+07   9.98580223E+06   0.25875959      
  60               3.94982361E-01   3.74324881E+00   1874.38582845    5.67635318E-05   1.44649036E+19   2.37803728E+08   4.96495363E+07   9.90306159E+06   0.25816866      
  61               4.78176250E-01   3.85106719E+00   1888.13094572    5.79725233E-05   1.47732084E+19   2.32565893E+08   5.45153899E+07   9.84362593E+06   0.25748885      
  62               5.78893005E-01   3.97675791E+00   1903.82408285    5.93700539E-05   1.51296255E+19   2.27184759E+08   5.98836449E+07   9.77587606E+06   0.25670762      
  63               7.00823412E-01   4.12270628E+00   1921.46305857    6.09825658E-05   1.55409011E+19   2.21385476E+08   6.56678847E+07   9.69917298E+06   0.25583203      
  64               8.48435636E-01   4.29110602E+00   1941.24674037    6.28249043E-05   1.60108484E+19   2.14947649E+08   7.20900955E+07   9.61313844E+06   0.25482434      
  65               1.02713896E+00   4.48422376E+00   1963.06982263    6.49202629E-05   1.65454037E+19   2.07752549E+08   7.92523947E+07   9.51751456E+06   0.25368417      
  66               1.24348200E+00   4.70409299E+00   1987.03707517    6.72792235E-05   1.71473009E+19   1.99854496E+08   8.70870585E+07   9.41231009E+06   0.25236137      
  67               1.50539269E+00   4.95399841E+00   2013.06028103    6.99338804E-05   1.78248105E+19   1.91551371E+08   9.53338612E+07   9.29709968E+06   0.25087998      
  68               1.82246880E+00   5.23855198E+00   2041.42213025    7.29187466E-05   1.85867851E+19   1.82863096E+08   1.03983403E+08   9.17109081E+06   0.24921236      
  69               2.20632965E+00   5.56132075E+00   2071.92861247    7.62658101E-05   1.94414654E+19   1.73581209E+08   1.13221791E+08   9.03422102E+06   0.24736917      
  70               2.67104190E+00   5.92615649E+00   2104.67268606    7.99969601E-05   2.03945624E+19   1.63646943E+08   1.23108632E+08   8.88651558E+06   0.24529048      
  71               3.23363503E+00   6.33724396E+00   2139.39314746    8.41480243E-05   2.14553531E+19   1.53085713E+08   1.33620429E+08   8.72807131E+06   0.24304024      
  72               3.91472538E+00   6.79915224E+00   2176.16614757    8.87431569E-05   2.26302085E+19   1.41990070E+08   1.44664946E+08   8.55903984E+06   0.2405917       
  73               4.73927163E+00   7.31690877E+00   2214.68827421    9.38237028E-05   2.39298994E+19   1.30527197E+08   1.56076013E+08   8.37960642E+06   0.23791437      
  74               5.73748947E+00   7.89610717E+00   2255.01358048    9.94194857E-05   2.53623629E+19   1.18904425E+08   1.67648564E+08   8.18996329E+06   0.23492027      
  75               6.94595877E+00   8.54294437E+00   2296.78675999    1.05581213E-04   2.69409398E+19   1.07296248E+08   1.79210023E+08   7.99031388E+06   0.23173709      
  76               8.40896415E+00   9.26384506E+00   2340.07264305    1.12351383E-04   2.86739671E+19   9.59489646E+07   1.90514658E+08   7.78099510E+06   0.2283393       
  77               1.01801177E+01   1.00664070E+01   2384.49471919    1.19769433E-04   3.05776399E+19   8.52909010E+07   2.01136408E+08   7.56220924E+06   0.22482008      
  78               1.23243238E+01   1.09594250E+01   2430.20567829    1.27890599E-04   3.26640910E+19   7.55040952E+07   2.10894635E+08   7.33403260E+06   0.22113616      
  79               1.49201573E+01   1.19521448E+01   2476.79090740    1.36788594E-04   3.49528298E+19   6.65308678E+07   2.19845960E+08   7.09668428E+06   0.21737426      
  80               1.80627429E+01   1.30550542E+01   2524.43373843    1.46513278E-04   3.74576515E+19   5.84070434E+07   2.27954586E+08   6.85031839E+06   0.21349302      
  81               2.18672415E+01   1.42796867E+01   2572.69874974    1.57155682E-04   4.02027335E+19   5.12100829E+07   2.35143733E+08   6.59510305E+06   0.20955249      
  82               2.64730696E+01   1.56388523E+01   2621.80660729    1.68774764E-04   4.32046074E+19   4.49344325E+07   2.41418014E+08   6.33119137E+06   0.2056135       
  83               3.20490087E+01   1.71467757E+01   2671.34463444    1.81478184E-04   4.64920169E+19   3.94417899E+07   2.46914885E+08   6.05872136E+06   0.20167323      
  84               3.87993903E+01   1.88190960E+01   2721.54790212    1.95337066E-04   5.00851080E+19   3.46155369E+07   2.51750702E+08   5.77784142E+06   0.19771142      
  85               4.69715834E+01   2.06729340E+01   2771.97867217    2.10478678E-04   5.40179468E+19   3.03487580E+07   2.56031800E+08   5.48871917E+06   0.19387561      
  86               5.68650599E+01   2.27269143E+01   2822.95705462    2.26978739E-04   5.83125511E+19   2.65931308E+07   2.59806553E+08   5.19154837E+06   0.19023521      
  87               6.88423680E+01   2.50011713E+01   2874.06797843    2.44978763E-04   6.30070519E+19   2.32524499E+07   2.63172456E+08   4.88655565E+06   0.18674118      
  88               8.33424188E+01   2.75174458E+01   2925.62037799    2.64563377E-04   6.81264858E+19   2.02980268E+07   2.66160092E+08   4.57399378E+06   0.1833805       
  89               1.00896570E+02   3.02991422E+01   2977.18101550    2.85892924E-04   7.37141620E+19   1.76990522E+07   2.68802953E+08   4.25414083E+06   0.18024427      
  90               1.22148096E+02   3.33711796E+01   3029.12492050    3.09050846E-04   7.97958333E+19   1.54308424E+07   2.71130900E+08   3.92731431E+06   0.17719948      
  91               1.47875764E+02   3.67582934E+01   3080.90238175    3.34209103E-04   8.64178071E+19   1.34278656E+07   2.73212386E+08   3.59403131E+06   0.1743162       
  92               1.79022369E+02   4.04853725E+01   3132.91115454    3.61424697E-04   9.36000111E+19   1.16691450E+07   2.75069074E+08   3.25490757E+06   0.17164093      
  93               2.16729286E+02   4.45791821E+01   3184.62645681    3.90877783E-04   1.01391007E+20   1.01158861E+07   2.76740525E+08   2.91047374E+06   0.16922579      
  94               2.62378292E+02   4.90685951E+01   3236.53506029    4.22624203E-04   1.09811835E+20   8.75249173E+06   2.78241381E+08   2.56117295E+06   0.16693314      
  95               3.17642204E+02   5.39850809E+01   3288.05046615    4.56886573E-04   1.18921703E+20   7.55343532E+06   2.79592442E+08   2.20735414E+06   0.16484873      
  96               3.84546179E+02   5.93629900E+01   3339.76656669    4.93720725E-04   1.28743554E+20   6.51794649E+06   2.80787662E+08   1.84927734E+06   0.16297061      
  97               4.65541927E+02   6.52395122E+01   3391.10641933    5.33386315E-04   1.39346199E+20   5.62675224E+06   2.81836792E+08   1.48714594E+06   0.16129578      
  98               5.63597555E+02   7.16548337E+01   3442.70215103    5.75940526E-04   1.50755054E+20   4.86870070E+06   2.82737617E+08   1.12111638E+06   0.15974771      
  99               6.82306330E+02   7.86532891E+01   3493.93276839    6.21698035E-04   1.63052771E+20   4.21448233E+06   2.83504136E+08   7.51261873E+05   0.15837059      
  100              8.26018359E+02   8.62838659E+01   3545.50426453    6.70723255E-04   1.76269602E+20   3.65352980E+06   2.84132390E+08   3.77578897E+05   0.1571297       
  101              1.00000000E+03   9.46007529E+01   3596.77581349    7.23397723E-04   1.90505300E+20   3.38051133E+06   2.84451458E+08   0.00000000E+00   0.15601437      
