# ATMO pressure-temperature profile
# Effective temperature = 550.0K
# log(g) = 3.5cm/s^2
# M/H = 0.0
# Optical depth grid in band 17 (1.20-1.33microns)
# All parameters in cgs units
#
# Model Level      Optical Depth    Pressure         Temperature      Density          Number Density   Rad Flux         Conv Flux        Radial Extension Adiabatic Gradient
#                                   [Ba]             [K]              [g/cm^3]         [/cm^3]          [ergs/s/cm^2/sr] [ergs/s/cm^2/sr] [cm]             [K/Ba]          
  1                5.00000000E-05   1.00000000E-05   86.97528762      3.25724821E-09   8.32779385E+14   5.18817833E+06   0.00000000E+00   1.04099254E+08   0.34574401      
  2                5.91534807E-05   1.01806554E-04   115.54422815     2.49617030E-08   6.38194891E+15   5.18817833E+06   0.00000000E+00   1.00879585E+08   0.34175899      
  3                6.99826855E-05   1.99734025E-04   133.11181454     4.25091205E-08   1.08682918E+16   5.18817833E+06   0.00000000E+00   9.99289226E+07   0.32406861      
  4                8.27943887E-05   3.09204362E-04   148.24620614     5.90892290E-08   1.51073351E+16   5.18817833E+06   0.00000000E+00   9.92382039E+07   0.32572494      
  5                9.79515255E-05   4.33928595E-04   157.78808421     7.79087697E-08   1.99191089E+16   5.18817833E+06   0.00000000E+00   9.86568996E+07   0.32570739      
  6                1.15883473E-04   5.77389817E-04   168.92951979     9.68277593E-08   2.47565095E+16   5.18817833E+06   0.00000000E+00   9.81345739E+07   0.32502288      
  7                1.37098216E-04   7.43259042E-04   175.90873254     1.19684944E-07   3.06040316E+16   5.18817833E+06   0.00000000E+00   9.76473303E+07   0.3237958       
  8                1.62196734E-04   9.35570691E-04   185.51060897     1.42787877E-07   3.65286563E+16   5.18817833E+06   0.00000000E+00   9.71821298E+07   0.32272476      
  9                1.91890027E-04   1.15873920E-03   191.52882078     1.71396170E-07   4.38205075E+16   5.18817833E+06   0.00000000E+00   9.67310154E+07   0.32120861      
  10               2.27019260E-04   1.41807951E-03   200.50404890     2.00367366E-07   5.12275131E+16   5.18817833E+06   0.00000000E+00   9.62884719E+07   0.32010965      
  11               2.68579588E-04   1.71975017E-03   206.23929584     2.36234588E-07   6.03976143E+16   5.18817833E+06   0.00000000E+00   9.58499939E+07   0.31852627      
  12               3.17748350E-04   2.07089455E-03   214.94346444     2.72950126E-07   6.97845979E+16   5.18817833E+06   0.00000000E+00   9.54127011E+07   0.31739507      
  13               3.75918418E-04   2.47965834E-03   220.51882484     3.18563296E-07   8.14464232E+16   5.18817833E+06   0.00000000E+00   9.49743391E+07   0.31583751      
  14               4.44737657E-04   2.95559535E-03   229.02527262     3.65604157E-07   9.34732633E+16   5.18817833E+06   0.00000000E+00   9.45333315E+07   0.31474626      
  15               5.26155608E-04   3.50968587E-03   234.49076134     4.24025595E-07   1.08409752E+17   5.18817833E+06   0.00000000E+00   9.40883119E+07   0.31327547      
  16               6.22478712E-04   4.15506226E-03   242.71752661     4.84982380E-07   1.23994447E+17   5.18817833E+06   0.00000000E+00   9.36382689E+07   0.3122702       
  17               7.36435649E-04   4.90689442E-03   248.00439538     5.60527467E-07   1.43308904E+17   5.18817833E+06   0.00000000E+00   9.31822745E+07   0.31096743      
  18               8.71254639E-04   5.78289638E-03   256.17011118     6.39538242E-07   1.63509426E+17   5.18817833E+06   0.00000000E+00   9.27196024E+07   0.31008503      
  19               1.03075489E-03   6.80346860E-03   261.54275942     7.36948687E-07   1.88414153E+17   5.18817833E+06   0.00000000E+00   9.22495006E+07   0.30895801      
  20               1.21945479E-03   7.99250354E-03   269.83836224     8.39128965E-07   2.14538374E+17   5.18817833E+06   0.00000000E+00   9.17713534E+07   0.30820541      
  21               1.44269991E-03   9.37741295E-03   275.44867923     9.64477090E-07   2.46585870E+17   5.18817833E+06   0.00000000E+00   9.12845417E+07   0.30724357      
  22               1.70681442E-03   1.09900708E-02   284.06132410     1.09606915E-06   2.80229739E+17   5.18817833E+06   0.00000000E+00   9.07885467E+07   0.30659155      
  23               2.01928028E-03   1.28672055E-02   290.05381630     1.25676832E-06   3.21315365E+17   5.18817833E+06   0.00000000E+00   9.02827816E+07   0.30575547      
  24               2.38894914E-03   1.50522148E-02   298.93286733     1.42651490E-06   3.64714122E+17   5.18817833E+06   0.00000000E+00   8.97667366E+07   0.30518334      
  25               2.82629313E-03   1.75949695E-02   305.25796005     1.63294327E-06   4.17491234E+17   5.18817833E+06   0.00000000E+00   8.92398942E+07   0.30441188      
  26               3.34370152E-03   2.05532874E-02   314.55974852     1.85109081E-06   4.73264562E+17   5.18817833E+06   0.00000000E+00   8.87018159E+07   0.30400058      
  27               3.95583167E-03   2.39928625E-02   321.51887946     2.11409824E-06   5.40507127E+17   5.18817833E+06   0.00000000E+00   8.81519860E+07   0.30342633      
  28               4.68002425E-03   2.79899758E-02   331.50320337     2.39201766E-06   6.11562199E+17   5.18817833E+06   0.00000000E+00   8.75899014E+07   0.30298822      
  29               5.53679448E-03   3.26321714E-02   339.15296431     2.72583739E-06   6.96909196E+17   5.18817833E+06   0.00000000E+00   8.70150028E+07   0.30248014      
  30               6.55041330E-03   3.80209463E-02   349.81790550     3.07914752E-06   7.87239227E+17   5.18817833E+06   0.00000000E+00   8.64268031E+07   0.30212534      
  31               7.74959494E-03   4.42735347E-02   358.23353475     3.50128580E-06   8.95166451E+17   5.18817833E+06   0.00000000E+00   8.58246169E+07   0.30174365      
  32               9.16831029E-03   5.15246922E-02   369.82984096     3.94696438E-06   1.00911182E+18   5.18817833E+06   0.00000000E+00   8.52077918E+07   0.30146048      
  33               1.08467493E-02   5.99272098E-02   379.38861222     4.47496371E-06   1.14410427E+18   5.18817833E+06   0.00000000E+00   8.45755502E+07   0.30112988      
  34               1.28324595E-02   6.96549929E-02   392.29805785     5.03020538E-06   1.28606208E+18   5.18817833E+06   0.00000000E+00   8.39271752E+07   0.30087448      
  35               1.51816929E-02   8.09009309E-02   403.40842237     5.68147555E-06   1.45256106E+18   5.18817833E+06   0.00000000E+00   8.32619432E+07   0.3006087       
  36               1.79609996E-02   9.38801434E-02   418.05665935     6.36196327E-06   1.62653884E+18   5.18817833E+06   0.00000000E+00   8.25792553E+07   0.30040245      
  37               2.12491128E-02   1.08830507E-01   431.14507444     7.15121350E-06   1.82832359E+18   5.18817833E+06   0.00000000E+00   8.18783388E+07   0.3001966       
  38               2.51391797E-02   1.26030142E-01   448.00968861     7.96965378E-06   2.03757151E+18   5.18817833E+06   0.00000000E+00   8.11578791E+07   0.30004596      
  39               2.97413996E-02   1.45773386E-01   463.99058124     8.90061992E-06   2.27559472E+18   5.18817833E+06   0.00000000E+00   8.04165880E+07   0.29991357      
  40               3.51861462E-02   1.68352413E-01   485.20632134     9.83064550E-06   2.51315188E+18   5.18166932E+06   6.50900691E+03   7.96532542E+07   0.29981811      
  41               4.16276604E-02   1.94066644E-01   505.55510581     1.08760441E-05   2.78040611E+18   5.15291300E+06   3.52653308E+04   7.88668479E+07   0.2996992       
  42               4.92484201E-02   2.23312092E-01   528.07767502     1.19812476E-05   3.06295257E+18   5.10294002E+06   8.52383107E+04   7.80566860E+07   0.29956795      
  43               5.82643093E-02   2.56573233E-01   549.66094081     1.32252252E-05   3.38097773E+18   5.03355377E+06   1.54624557E+05   7.72211126E+07   0.29943005      
  44               6.89307339E-02   2.94380753E-01   573.62675768     1.45400326E-05   3.71711374E+18   4.94257373E+06   2.45604603E+05   7.63589406E+07   0.29932822      
  45               8.15498567E-02   3.37305118E-01   596.56744195     1.60194554E-05   4.09533302E+18   4.83177948E+06   3.56398848E+05   7.54695402E+07   0.29918341      
  46               9.64791575E-02   3.85959226E-01   622.04829593     1.75792626E-05   4.49410444E+18   4.70099455E+06   4.87183783E+05   7.45526965E+07   0.29902307      
  47               1.14141560E-01   4.41046735E-01   646.37648286     1.93322167E-05   4.94225221E+18   4.55820122E+06   6.29977110E+05   7.36077396E+07   0.29880964      
  48               1.35037411E-01   5.03460994E-01   673.46553699     2.11803111E-05   5.41472359E+18   4.40870420E+06   7.79474135E+05   7.26323529E+07   0.29859471      
  49               1.59758657E-01   5.74139764E-01   699.33600786     2.32601855E-05   5.94644732E+18   4.25973643E+06   9.28441897E+05   7.16253836E+07   0.29831074      
  50               1.89005613E-01   6.54051533E-01   728.14629128     2.54492207E-05   6.50607650E+18   4.11574539E+06   1.07243294E+06   7.05867390E+07   0.29797962      
  51               2.23606798E-01   7.44197220E-01   755.54573860     2.79067111E-05   7.13432883E+18   3.98683649E+06   1.20134184E+06   6.95170600E+07   0.29752291      
  52               2.64542408E-01   8.45711084E-01   786.00720433     3.04845108E-05   7.79329894E+18   3.88299000E+06   1.30518833E+06   6.84164540E+07   0.29703745      
  53               3.12972084E-01   9.60139280E-01   814.94460959     3.33804610E-05   8.53359418E+18   3.81307184E+06   1.37510649E+06   6.72821022E+07   0.29645842      
  54               3.70267763E-01   1.08911799E+00   847.21673895     3.64222188E-05   9.31121262E+18   3.77741783E+06   1.41076050E+06   6.61123639E+07   0.29585364      
  55               4.38052539E-01   1.23427661E+00   877.80969540     3.98380499E-05   1.01844591E+19   3.77349510E+06   1.41468323E+06   6.49072985E+07   0.29507742      
  56               5.18246648E-01   1.39723372E+00   911.84526471     4.34144411E-05   1.10987419E+19   3.79894101E+06   1.38923732E+06   6.36681958E+07   0.29424156      
  57               6.13121862E-01   1.57963473E+00   943.90330770     4.74151209E-05   1.21214621E+19   3.85743177E+06   1.33074656E+06   6.23968845E+07   0.29323164      
  58               7.25365844E-01   1.78364013E+00   979.52528763     5.15923151E-05   1.31891687E+19   3.94805822E+06   1.24012011E+06   6.10925428E+07   0.29222659      
  59               8.58158289E-01   2.01185739E+00   1013.03346131    5.62695809E-05   1.43846481E+19   4.07575243E+06   1.11242590E+06   5.97531143E+07   0.29107674      
  60               1.01526100E+00   2.26708291E+00   1050.35183791    6.11548434E-05   1.56335801E+19   4.23137778E+06   9.56800552E+05   5.83772617E+07   0.28989668      
  61               1.20112443E+00   2.55224512E+00   1085.37013026    6.66254798E-05   1.70321846E+19   4.41430278E+06   7.73875553E+05   5.69645406E+07   0.28841577      
  62               1.42101382E+00   2.87043193E+00   1124.32522434    7.23347940E-05   1.84918830E+19   4.61312556E+06   5.75052766E+05   5.55151399E+07   0.28706602      
  63               1.68115827E+00   3.22509868E+00   1160.78009988    7.87193768E-05   2.01242125E+19   4.82760069E+06   3.60577637E+05   5.40288411E+07   0.28547708      
  64               1.98892727E+00   3.62054276E+00   1201.36717402    8.53854340E-05   2.18284933E+19   5.03903575E+06   1.49142571E+05   5.25035508E+07   0.28414613      
  65               2.35303941E+00   4.06214494E+00   1239.43857497    9.28584717E-05   2.37386625E+19   5.18817832E+06   0.00000000E+00   5.09352524E+07   0.28269501      
  66               2.78380943E+00   4.55716923E+00   1280.15666473    1.00864919E-04   2.57844501E+19   5.18817832E+06   0.00000000E+00   4.93177459E+07   0.28150601      
  67               3.29344035E+00   5.11720170E+00   1314.69774989    1.10291546E-04   2.81924264E+19   5.18817831E+06   0.00000000E+00   4.76386597E+07   0.28012835      
  68               3.89636920E+00   5.75968974E+00   1354.15080927    1.20528331E-04   3.08076021E+19   5.18817831E+06   0.00000000E+00   4.58764733E+07   0.27895163      
  69               4.60967600E+00   6.50649470E+00   1389.04927909    1.32734370E-04   3.39277662E+19   5.18817831E+06   0.00000000E+00   4.40093457E+07   0.27753872      
  70               5.45356761E+00   7.38466790E+00   1430.14048736    1.46313894E-04   3.74005602E+19   5.18817831E+06   0.00000000E+00   4.20166080E+07   0.2762603       
  71               6.45195012E+00   8.41553565E+00   1467.78799282    1.62455333E-04   4.15283115E+19   5.18817831E+06   0.00000000E+00   3.99021656E+07   0.27468929      
  72               7.63310614E+00   9.61844636E+00   1512.33240998    1.80199845E-04   4.60663187E+19   5.18817831E+06   0.00000000E+00   3.76788902E+07   0.27327838      
  73               9.03049593E+00   1.10041717E+01   1554.08426116    2.00619293E-04   5.12871583E+19   5.18817831E+06   0.00000000E+00   3.53741783E+07   0.27162342      
  74               1.06837053E+01   1.25711134E+01   1603.02861095    2.22197290E-04   5.68013046E+19   5.18817832E+06   0.00000000E+00   3.30272209E+07   0.27011002      
  75               1.26395671E+01   1.42875258E+01   1649.40079396    2.45529184E-04   6.27417559E+19   5.18817833E+06   0.00000000E+00   3.07032693E+07   0.2683536       
  76               1.49534878E+01   1.61097371E+01   1702.80689867    2.68163209E-04   6.85249760E+19   5.18817833E+06   0.00000000E+00   2.84575693E+07   0.26669005      
  77               1.76910170E+01   1.79878506E+01   1753.14357613    2.90881509E-04   7.43169072E+19   4.68196075E+06   5.06222198E+05   2.63310318E+07   0.26477051      
  78               2.09297047E+01   1.98137542E+01   1798.71592159    3.12417726E-04   7.97866133E+19   3.99183703E+06   1.19637171E+06   2.44156085E+07   0.26322886      
  79               2.47612977E+01   2.14313271E+01   1835.86744317    3.31500303E-04   8.45538885E+19   3.26751203E+06   1.92073929E+06   2.28259742E+07   0.26167152      
  80               2.92943389E+01   2.27659859E+01   1865.29100661    3.46583920E-04   8.84027359E+19   2.86003341E+06   2.32834678E+06   2.15808166E+07   0.26055008      
  81               3.46572422E+01   2.42457708E+01   1895.84779549    3.63155699E-04   9.26314296E+19   2.72186397E+06   2.46647449E+06   2.02618062E+07   0.2591718       
  82               4.10019301E+01   2.58797776E+01   1928.30540212    3.81092018E-04   9.72099144E+19   2.42446202E+06   2.76371631E+06   1.88728364E+07   0.2582528       
  83               4.85081376E+01   2.71948852E+01   1952.88987644    3.95534920E-04   1.00863798E+20   1.99886614E+06   3.18931220E+06   1.78016276E+07   0.25746288      
  84               5.73885036E+01   2.81809140E+01   1971.06337663    4.06090916E-04   1.03557206E+20   1.76679462E+06   3.42206512E+06   1.70236167E+07   0.2567959       
  85               6.78945948E+01   2.92950967E+01   1990.55547745    4.18005558E-04   1.06597370E+20   1.69149661E+06   3.49668170E+06   1.61684440E+07   0.2556852       
  86               8.03240320E+01   3.05490629E+01   2012.15099159    4.31211117E-04   1.09967200E+20   1.61547888E+06   3.57269943E+06   1.52344373E+07   0.25478063      
  87               9.50289215E+01   3.19526773E+01   2035.08571067    4.45930748E-04   1.13723545E+20   1.53170967E+06   3.65761790E+06   1.42222303E+07   0.25340028      
  88               1.12425830E+02   3.35292424E+01   2060.17703528    4.62209062E-04   1.17881333E+20   1.36089305E+06   3.82728526E+06   1.31240868E+07   0.25268518      
  89               1.33007583E+02   3.47126032E+01   2078.13782727    4.74790209E-04   1.20986991E+20   1.12486688E+06   4.06331143E+06   1.23251808E+07   0.25188367      
  90               1.57357229E+02   3.55735057E+01   2091.11887891    4.83537464E-04   1.23217894E+20   1.00455288E+06   4.18680941E+06   1.17569980E+07   0.25130616      
  91               1.86164557E+02   3.65597282E+01   2105.39084605    4.93566227E-04   1.25775504E+20   9.68533253E+05   4.22389511E+06   1.11186063E+07   0.2502391       
  92               2.20245630E+02   3.76853991E+01   2121.51622519    5.04885254E-04   1.28662682E+20   9.36163794E+05   4.25633490E+06   1.04055194E+07   0.24953241      
  93               2.60565913E+02   3.89692129E+01   2139.19056201    5.17758579E-04   1.31946538E+20   9.02414182E+05   4.29052042E+06   9.61147973E+06   0.24875219      
  94               3.08267614E+02   4.04284593E+01   2158.92143508    5.32221691E-04   1.35636381E+20   8.67782829E+05   4.32530595E+06   8.73241904E+06   0.24786917      
  95               3.64702046E+02   4.20815421E+01   2180.32338132    5.48526852E-04   1.39796589E+20   8.29973607E+05   4.36371659E+06   7.76492217E+06   0.24689127      
  96               4.31467909E+02   4.39480403E+01   2203.87654836    5.66710685E-04   1.44436877E+20   7.91323241E+05   4.40267775E+06   6.70628252E+06   0.24578436      
  97               5.10456573E+02   4.60488051E+01   2229.14178555    5.87041529E-04   1.49625809E+20   7.50305307E+05   4.44456538E+06   5.55452084E+06   0.24456644      
  98               6.03905660E+02   4.84061123E+01   2256.57351968    6.09556324E-04   1.55373360E+20   7.08879898E+05   4.48655841E+06   4.30835678E+06   0.2432274       
  99               7.14462436E+02   5.10438568E+01   2285.68361466    6.34543404E-04   1.61753321E+20   6.66008915E+05   4.53073912E+06   2.96715052E+06   0.24178438      
  100              8.45258798E+02   5.39878212E+01   2316.90940066    6.62041301E-04   1.68776738E+20   6.22646984E+05   4.57512006E+06   1.53080183E+06   0.24020602      
  101              1.00000000E+03   5.72652784E+01   2349.70829609    6.92435456E-04   1.76523799E+20   5.98071469E+05   4.59759379E+06   0.00000000E+00   0.23851286      
