# ATMO pressure-temperature profile
# Effective temperature = 1200.0K
# log(g) = 3.0cm/s^2
# M/H = 0.0
# Optical depth grid in band 17 (1.20-1.33microns)
# All parameters in cgs units
#
# Model Level      Optical Depth    Pressure         Temperature      Density          Number Density   Rad Flux         Conv Flux        Radial Extension Adiabatic Gradient
#                                   [Ba]             [K]              [g/cm^3]         [/cm^3]          [ergs/s/cm^2/sr] [ergs/s/cm^2/sr] [cm]             [K/Ba]          
  1                1.00000000E-05   1.00000000E-05   297.81361159     9.51710455E-10   2.43209926E+14   1.17570817E+08   0.00000000E+00   5.11931693E+08   0.29751568      
  2                1.20226443E-05   1.88604151E-05   358.61376712     1.49063554E-09   3.80934343E+14   1.17570817E+08   0.00000000E+00   5.04492670E+08   0.29747218      
  3                1.44543977E-05   2.86283371E-05   378.80916568     2.14201598E-09   5.47395828E+14   1.17570817E+08   0.00000000E+00   4.99026223E+08   0.29758729      
  4                1.73780083E-05   3.99370248E-05   398.91114711     2.83756986E-09   7.25145865E+14   1.17570817E+08   0.00000000E+00   4.94439235E+08   0.29766782      
  5                2.08929613E-05   5.31608179E-05   409.60718223     3.67850262E-09   9.40047785E+14   1.17570817E+08   0.00000000E+00   4.90346183E+08   0.29774458      
  6                2.51188643E-05   6.86953341E-05   425.47241143     4.57620829E-09   1.16945004E+15   1.17570817E+08   0.00000000E+00   4.86559925E+08   0.29779205      
  7                3.01995172E-05   8.69743583E-05   434.67452024     5.67122658E-09   1.44928197E+15   1.17570817E+08   0.00000000E+00   4.82971850E+08   0.29784054      
  8                3.63078055E-05   1.08596818E-04   445.68982434     6.90612326E-09   1.76485984E+15   1.17570817E+08   0.00000000E+00   4.79516839E+08   0.29786827      
  9                4.36515832E-05   1.34214727E-04   453.30785581     8.39183381E-09   2.14453316E+15   1.17570817E+08   0.00000000E+00   4.76151738E+08   0.29789607      
  10               5.24807460E-05   1.64593159E-04   463.55854343     1.00636874E-08   2.57177536E+15   1.17570817E+08   0.00000000E+00   4.72846077E+08   0.29790827      
  11               6.30957344E-05   2.00633792E-04   470.71598240     1.20807832E-08   3.08724415E+15   1.17570817E+08   0.00000000E+00   4.69577443E+08   0.29791688      
  12               7.58577575E-05   2.43410871E-04   480.57704092     1.43557837E-08   3.66862053E+15   1.17570817E+08   0.00000000E+00   4.66329187E+08   0.29791442      
  13               9.12010839E-05   2.94201202E-04   487.29849219     1.71119434E-08   4.37295708E+15   1.17570817E+08   0.00000000E+00   4.63088643E+08   0.2979034       
  14               1.09647820E-04   3.54528560E-04   496.73814443     2.02289658E-08   5.16951209E+15   1.17570817E+08   0.00000000E+00   4.59846160E+08   0.29788618      
  15               1.31825674E-04   4.26202499E-04   503.06358270     2.40128156E-08   6.13647476E+15   1.17570817E+08   0.00000000E+00   4.56594142E+08   0.29827536      
  16               1.58489319E-04   5.11372407E-04   512.29506056     2.82922249E-08   7.23007764E+15   1.17570817E+08   0.00000000E+00   4.53326526E+08   0.29821712      
  17               1.90546072E-04   6.12603314E-04   518.49086477     3.34879238E-08   8.55783822E+15   1.17570817E+08   0.00000000E+00   4.50037741E+08   0.29812794      
  18               2.29086765E-04   7.32941750E-04   527.86085041     3.93550080E-08   1.00571713E+16   1.17570817E+08   0.00000000E+00   4.46722918E+08   0.29806557      
  19               2.75422870E-04   8.75994901E-04   534.24982934     4.64736941E-08   1.18763510E+16   1.17570817E+08   0.00000000E+00   4.43377936E+08   0.29796811      
  20               3.31131121E-04   1.04605023E-03   543.85224173     5.45157056E-08   1.39314864E+16   1.17570817E+08   0.00000000E+00   4.39999421E+08   0.29789877      
  21               3.98107171E-04   1.24820331E-03   550.32558539     6.42858900E-08   1.64282561E+16   1.17570817E+08   0.00000000E+00   4.36584649E+08   0.29779008      
  22               4.78630092E-04   1.48850613E-03   560.07953089     7.53270516E-08   1.92498241E+16   1.17570817E+08   0.00000000E+00   4.33131419E+08   0.29771213      
  23               5.75439937E-04   1.77413481E-03   566.65779640     8.87392616E-08   2.26773127E+16   1.17570817E+08   0.00000000E+00   4.29637857E+08   0.29759107      
  24               6.91830971E-04   2.11359486E-03   576.62782138     1.03890592E-07   2.65492338E+16   1.17570817E+08   0.00000000E+00   4.26102424E+08   0.29750163      
  25               8.31763771E-04   2.51694500E-03   583.39469687     1.22281661E-07   3.12490693E+16   1.17570817E+08   0.00000000E+00   4.22523822E+08   0.29736291      
  26               1.00000000E-03   2.99602896E-03   593.83881388     1.42997203E-07   3.65429216E+16   1.17570817E+08   0.00000000E+00   4.18900831E+08   0.29725788      
  27               1.20226443E-03   3.56475596E-03   601.20982884     1.68055938E-07   4.29466775E+16   1.17570817E+08   0.00000000E+00   4.15232123E+08   0.29709946      
  28               1.44543977E-03   4.23946593E-03   612.44012634     1.96199388E-07   5.01387325E+16   1.17570817E+08   0.00000000E+00   4.11516417E+08   0.29697581      
  29               1.73780083E-03   5.03929186E-03   620.60092435     2.30148060E-07   5.88143001E+16   1.17570817E+08   0.00000000E+00   4.07752474E+08   0.29679072      
  30               2.08929613E-03   5.98692486E-03   632.74616447     2.68178835E-07   6.85330604E+16   1.17570817E+08   0.00000000E+00   4.03938091E+08   0.29664059      
  31               2.51188643E-03   7.10918945E-03   641.94418731     3.13886971E-07   8.02137198E+16   1.17570817E+08   0.00000000E+00   4.00070003E+08   0.29642285      
  32               3.01995172E-03   8.43763143E-03   655.18194697     3.65013620E-07   9.32791260E+16   1.17570817E+08   0.00000000E+00   3.96145348E+08   0.29624033      
  33               3.63078055E-03   1.00090669E-02   665.46428166     4.26304598E-07   1.08941834E+17   1.17570817E+08   0.00000000E+00   3.92161690E+08   0.29597893      
  34               4.36515832E-03   1.18662417E-02   680.07656959     4.94545702E-07   1.26380835E+17   1.17570817E+08   0.00000000E+00   3.88116960E+08   0.29575235      
  35               5.24807460E-03   1.40584343E-02   691.94474933     5.75863025E-07   1.47160541E+17   1.17570817E+08   0.00000000E+00   3.84009094E+08   0.29543947      
  36               6.30957344E-03   1.66424682E-02   708.35193900     6.65920076E-07   1.70174502E+17   1.17570817E+08   0.00000000E+00   3.79836294E+08   0.29516095      
  37               7.58577575E-03   1.96830596E-02   722.06564543     7.72630578E-07   1.97443011E+17   1.17570817E+08   0.00000000E+00   3.75597312E+08   0.29478248      
  38               9.12010839E-03   2.32532145E-02   740.72357712     8.89779828E-07   2.27380213E+17   1.17570818E+08   0.00000000E+00   3.71291453E+08   0.29444224      
  39               1.09647820E-02   2.74339172E-02   757.03600358     1.02713307E-06   2.62480550E+17   1.17570818E+08   0.00000000E+00   3.66918300E+08   0.29402036      
  40               1.31825674E-02   3.23192393E-02   778.62224497     1.17649217E-06   3.00649276E+17   1.17570818E+08   0.00000000E+00   3.62474184E+08   0.29365548      
  41               1.58489319E-02   3.80200844E-02   797.98462901     1.35043081E-06   3.45099548E+17   1.17570818E+08   0.00000000E+00   3.57951372E+08   0.29314629      
  42               1.90546072E-02   4.46586729E-02   823.04782883     1.53791567E-06   3.93012696E+17   1.17570818E+08   0.00000000E+00   3.53344847E+08   0.29265752      
  43               2.29086765E-02   5.23651227E-02   846.23524360     1.75388167E-06   4.48205165E+17   1.17570818E+08   0.00000000E+00   3.48652523E+08   0.29201318      
  44               2.75422870E-02   6.12773258E-02   875.47971582     1.98380528E-06   5.06966842E+17   1.17570819E+08   0.00000000E+00   3.43874637E+08   0.29130094      
  45               3.31131121E-02   7.15323582E-02   902.96882797     2.24532358E-06   5.73793500E+17   1.17570819E+08   0.00000000E+00   3.39015609E+08   0.29037836      
  46               3.98107171E-02   8.32670009E-02   936.65706138     2.51957390E-06   6.43899593E+17   1.17570819E+08   0.00000000E+00   3.34081974E+08   0.28955313      
  47               4.78630092E-02   9.66549225E-02   968.64266891     2.82801031E-06   7.22746872E+17   1.17570820E+08   0.00000000E+00   3.29066531E+08   0.28863683      
  48               5.75439937E-02   1.11897590E-01   1006.79554060    3.14980779E-06   8.05017444E+17   1.17570819E+08   0.00000000E+00   3.23959378E+08   0.28772021      
  49               6.91830971E-02   1.29186646E-01   1043.18788993    3.50951865E-06   8.96976212E+17   1.17570820E+08   0.00000000E+00   3.18759350E+08   0.28661505      
  50               8.31763771E-02   1.48694547E-01   1085.88258452    3.88055578E-06   9.91831764E+17   1.17570830E+08   0.00000000E+00   3.13473192E+08   0.28556819      
  51               1.00000000E-01   1.70521090E-01   1128.98261924    4.28021581E-06   1.09399839E+18   1.17222641E+08   3.48055703E+05   3.08117626E+08   0.28436853      
  52               1.20226443E-01   1.94896834E-01   1172.73631880    4.70950080E-06   1.20373323E+18   1.16653074E+08   9.17523881E+05   3.02688402E+08   0.28311986      
  53               1.44543977E-01   2.22175983E-01   1216.81768876    5.17415446E-06   1.32250535E+18   1.15925137E+08   1.64552539E+06   2.97162238E+08   0.28157229      
  54               1.73780083E-01   2.52706181E-01   1261.73453099    5.67562854E-06   1.45068698E+18   1.15051801E+08   2.51889206E+06   2.91528417E+08   0.27996607      
  55               2.08929613E-01   2.86823553E-01   1307.02053825    6.21866941E-06   1.58949161E+18   1.14013958E+08   3.55674747E+06   2.85785665E+08   0.2784708       
  56               2.51188643E-01   3.24858353E-01   1353.15399723    6.80318102E-06   1.73889218E+18   1.12788165E+08   4.78252172E+06   2.79938076E+08   0.27728958      
  57               3.01995172E-01   3.67148745E-01   1399.65150126    7.43347881E-06   1.89997538E+18   1.11343179E+08   6.22741224E+06   2.73991170E+08   0.27564073      
  58               3.63078055E-01   4.14129027E-01   1446.82511117    8.11154128E-06   2.07322040E+18   1.09646074E+08   7.92431719E+06   2.67940939E+08   0.27376126      
  59               4.36515832E-01   4.66108377E-01   1494.16618319    8.84336317E-06   2.25950780E+18   1.07520361E+08   1.00497586E+07   2.61803218E+08   0.27153163      
  60               5.24807460E-01   5.22932511E-01   1541.45251133    9.61771624E-06   2.45720468E+18   1.04708441E+08   1.28613941E+07   2.55641639E+08   0.26949098      
  61               6.30957344E-01   5.83057901E-01   1587.10446174    1.04163871E-05   2.66092119E+18   1.01023114E+08   1.65471594E+07   2.49634485E+08   0.26771241      
  62               7.58577575E-01   6.44358555E-01   1630.09265480    1.12127361E-05   2.86313053E+18   9.64153292E+07   2.11575863E+07   2.43962044E+08   0.26623113      
  63               9.12010839E-01   7.03261286E-01   1668.33544079    1.19674517E-05   3.05322756E+18   9.11427726E+07   2.64306478E+07   2.38876770E+08   0.26478169      
  64               1.09647820E+00   7.56353401E-01   1700.76864101    1.26296448E-05   3.22110858E+18   8.59170364E+07   3.16480341E+07   2.34558073E+08   0.26337499      
  65               1.31825674E+00   8.03347168E-01   1727.85470411    1.32042369E-05   3.36761075E+18   8.14855450E+07   3.60725112E+07   2.30919021E+08   0.26201454      
  66               1.58489319E+00   8.56318615E-01   1757.01221330    1.38406768E-05   3.53009542E+18   7.67833558E+07   4.08556698E+07   2.27000639E+08   0.26093078      
  67               1.90546072E+00   8.99738046E-01   1779.72247717    1.43694589E-05   3.66175800E+18   7.25250028E+07   4.53554195E+07   2.23921423E+08   0.26007434      
  68               2.29086765E+00   9.32613430E-01   1796.46106316    1.47554202E-05   3.76018918E+18   6.91736645E+07   4.86485614E+07   2.21663677E+08   0.25909997      
  69               2.75422870E+00   9.70084908E-01   1814.78816764    1.51928991E-05   3.87177088E+18   6.58915901E+07   5.16946479E+07   2.19160999E+08   0.25800866      
  70               3.31131121E+00   1.01289866E+00   1835.16083147    1.56868225E-05   3.99776909E+18   6.24539770E+07   5.51286107E+07   2.16387707E+08   0.25674997      
  71               3.98107171E+00   1.06154073E+00   1857.27016975    1.62438105E-05   4.13987680E+18   5.87599083E+07   5.88198257E+07   2.13340507E+08   0.25531939      
  72               4.78630092E+00   1.11643379E+00   1881.34871042    1.68643387E-05   4.29822861E+18   5.47808792E+07   6.27988431E+07   2.10023937E+08   0.25368099      
  73               5.75439937E+00   1.17775666E+00   1906.88600006    1.75513999E-05   4.47359515E+18   5.07041426E+07   6.68712159E+07   2.06459569E+08   0.25191833      
  74               6.91830971E+00   1.24624061E+00   1934.22600369    1.83081423E-05   4.66681431E+18   4.69496941E+07   7.06086251E+07   2.02639147E+08   0.24994483      
  75               8.31763771E+00   1.32344030E+00   1963.30772750    1.91526013E-05   4.88249512E+18   4.35115885E+07   7.40330117E+07   1.98516461E+08   0.24771327      
  76               1.00000000E+01   1.41022863E+00   1994.39311568    2.00883346E-05   5.12158755E+18   4.01753387E+07   7.73645892E+07   1.94091836E+08   0.24514324      
  77               1.20226443E+01   1.50754028E+00   2027.02604253    2.11260523E-05   5.38685687E+18   3.69159735E+07   8.06197645E+07   1.89368109E+08   0.24236845      
  78               1.44543977E+01   1.61640044E+00   2061.47459397    2.22695155E-05   5.67932620E+18   3.37538199E+07   8.37782638E+07   1.84349240E+08   0.23928223      
  79               1.73780083E+01   1.73793907E+00   2097.21702734    2.35314327E-05   6.00229049E+18   3.07232600E+07   8.68058130E+07   1.79039951E+08   0.2359909       
  80               2.08929613E+01   1.87341263E+00   2134.54815719    2.49163758E-05   6.35701633E+18   2.78574309E+07   8.96694005E+07   1.73445081E+08   0.23242848      
  81               2.51188643E+01   2.02421549E+00   2172.90058945    2.64396829E-05   6.74749739E+18   2.51622763E+07   9.23629929E+07   1.67569628E+08   0.2287459       
  82               3.01995172E+01   2.19189129E+00   2212.62386389    2.81067059E-05   7.17525366E+18   2.26276316E+07   9.48966793E+07   1.61418708E+08   0.22468364      
  83               3.63078055E+01   2.37815553E+00   2253.03714100    2.99368875E-05   7.64535652E+18   2.02451319E+07   9.72788835E+07   1.54997387E+08   0.22040089      
  84               4.36515832E+01   2.58490832E+00   2294.55382268    3.19365746E-05   8.15967261E+18   1.79902812E+07   9.95341068E+07   1.48310753E+08   0.21583116      
  85               5.24807460E+01   2.81401344E+00   2336.39673482    3.41306959E-05   8.72379431E+18   1.58769898E+07   1.01648243E+08   1.41371152E+08   0.21130926      
  86               6.30957344E+01   3.06777904E+00   2379.13475197    3.65188486E-05   9.33965587E+18   1.39867617E+07   1.03539757E+08   1.34183183E+08   0.20666205      
  87               7.58577575E+01   3.34898811E+00   2421.98407385    3.91354148E-05   1.00153969E+19   1.22890785E+07   1.05239235E+08   1.26744592E+08   0.20203241      
  88               9.12010839E+01   3.66043661E+00   2465.58593425    4.19871661E-05   1.07532214E+19   1.07617140E+07   1.06768812E+08   1.19061280E+08   0.19746687      
  89               1.09647820E+02   4.00525015E+00   2509.11667731    4.51081640E-05   1.15620443E+19   9.37791122E+06   1.08155211E+08   1.11138016E+08   0.19298511      
  90               1.31825674E+02   4.38687771E+00   2553.26663462    4.85070357E-05   1.24447219E+19   8.16423301E+06   1.09371937E+08   1.02979409E+08   0.18852092      
  91               1.58489319E+02   4.80906332E+00   2597.15614127    5.22242855E-05   1.34118373E+19   7.09632047E+06   1.10443427E+08   9.45911613E+07   0.18421966      
  92               1.90546072E+02   5.27586085E+00   2641.56778898    5.62677920E-05   1.44662982E+19   6.17309117E+06   1.11370812E+08   8.59798503E+07   0.18013269      
  93               2.29086765E+02   5.79161811E+00   2685.61844584    6.06831419E-05   1.56200150E+19   5.35837854E+06   1.12190466E+08   7.71533530E+07   0.17616581      
  94               2.75422870E+02   6.36099442E+00   2730.07303556    6.54786828E-05   1.68762748E+19   4.65150325E+06   1.12903359E+08   6.81205440E+07   0.17233071      
  95               3.31131121E+02   6.98895475E+00   2774.02713284    7.07060084E-05   1.82485081E+19   4.03515587E+06   1.13527274E+08   5.88913987E+07   0.16886899      
  96               3.98107171E+02   7.68079091E+00   2818.40459693    7.63683997E-05   1.97391498E+19   3.50688005E+06   1.14065263E+08   4.94762742E+07   0.16562628      
  97               4.78630092E+02   8.44214985E+00   2862.20404675    8.25262482E-05   2.13637902E+19   3.04610828E+06   1.14538676E+08   3.98857079E+07   0.16261382      
  98               5.75439937E+02   9.27897365E+00   2906.39464317    8.91793200E-05   2.31244385E+19   2.64998772E+06   1.14951650E+08   3.01310071E+07   0.1597625       
  99               6.91830971E+02   1.01975162E+01   2949.91305444    9.63963469E-05   2.50386567E+19   2.30396288E+06   1.15320528E+08   2.02239486E+07   0.1572174       
  100              8.31763771E+02   1.12043380E+01   2993.84905612    1.04168910E-04   2.71070428E+19   2.00528295E+06   1.15650343E+08   1.01763686E+07   0.15478008      
  101              1.00000000E+03   1.23063383E+01   3037.00746777    1.12578487E-04   2.93500490E+19   1.85185589E+06   1.15826446E+08   0.00000000E+00   0.15255223      
