# ATMO pressure-temperature profile
# Effective temperature = 1000.0K
# log(g) = 5.5cm/s^2
# M/H = 0.0
# Optical depth grid in band 17 (1.20-1.33microns)
# All parameters in cgs units
#
# Model Level      Optical Depth    Pressure         Temperature      Density          Number Density   Rad Flux         Conv Flux        Radial Extension Adiabatic Gradient
#                                   [Ba]             [K]              [g/cm^3]         [/cm^3]          [ergs/s/cm^2/sr] [ergs/s/cm^2/sr] [cm]             [K/Ba]          
  1                8.00000000E-07   1.00000000E-05   262.27167291     1.08048254E-09   2.76168698E+14   5.66610214E+07   0.00000000E+00   1.77205309E+06   0.30760279      
  2                9.86413681E-07   8.54546736E-05   294.04022433     8.23565700E-09   2.10501364E+15   5.66610209E+07   0.00000000E+00   1.69206448E+06   0.30249404      
  3                1.21626494E-06   1.74221612E-04   310.97542557     1.58761264E-08   4.05790426E+15   5.66610205E+07   0.00000000E+00   1.66751571E+06   0.30258561      
  4                1.49967547E-06   2.81368933E-04   316.65415156     2.51802447E-08   6.43601128E+15   5.66610201E+07   0.00000000E+00   1.65056924E+06   0.3025765       
  5                1.84912550E-06   4.11517142E-04   327.33075529     3.56262189E-08   9.10598558E+15   5.66610197E+07   0.00000000E+00   1.63682808E+06   0.30280854      
  6                2.28000336E-06   5.69860529E-04   331.16196018     4.87637490E-08   1.24639005E+16   5.66610193E+07   0.00000000E+00   1.62481467E+06   0.30198958      
  7                2.81128314E-06   7.62771454E-04   340.55935708     6.34702438E-08   1.62228613E+16   5.66610189E+07   0.00000000E+00   1.61384930E+06   0.30218971      
  8                3.46636019E-06   9.97845695E-04   344.06753046     8.21842388E-08   2.10061053E+16   5.66610186E+07   0.00000000E+00   1.60355669E+06   0.3015648       
  9                4.27408139E-06   1.28449932E-03   352.96385074     1.03126961E-07   2.63590339E+16   5.66610183E+07   0.00000000E+00   1.59371030E+06   0.3017194       
  10               5.27001545E-06   1.63413188E-03   356.24480050     1.29989246E-07   3.32249555E+16   5.66610180E+07   0.00000000E+00   1.58416098E+06   0.30121738      
  11               6.49801917E-06   2.06078980E-03   364.81378511     1.60077725E-07   4.09155407E+16   5.66610177E+07   0.00000000E+00   1.57480778E+06   0.30133477      
  12               8.01216876E-06   2.58149867E-03   367.92512983     1.98829938E-07   5.08204251E+16   5.66610172E+07   0.00000000E+00   1.56557805E+06   0.30092714      
  13               9.87914110E-06   3.21709586E-03   376.41226951     2.42197237E-07   6.19050489E+16   5.66610165E+07   0.00000000E+00   1.55641887E+06   0.30102084      
  14               1.21811499E-05   3.99283873E-03   379.60777357     2.98068384E-07   7.61855334E+16   5.66610156E+07   0.00000000E+00   1.54728878E+06   0.30068669      
  15               1.50195662E-05   4.93958074E-03   388.22045207     3.60562499E-07   9.21589498E+16   5.66610143E+07   0.00000000E+00   1.53815641E+06   0.30077506      
  16               1.85193820E-05   6.09467106E-03   391.59935436     4.41039479E-07   1.12728608E+17   5.66610124E+07   0.00000000E+00   1.52899659E+06   0.30056991      
  17               2.28347147E-05   7.50351942E-03   400.65450169     5.30717838E-07   1.35650320E+17   5.66610110E+07   0.00000000E+00   1.51978799E+06   0.30053188      
  18               2.81555937E-05   9.22098576E-03   404.47780614     6.46031782E-07   1.65123351E+17   5.66610101E+07   0.00000000E+00   1.51051265E+06   0.30036002      
  19               3.47163285E-05   1.13137076E-02   413.98603493     7.74444149E-07   1.97945257E+17   5.66610098E+07   0.00000000E+00   1.50115667E+06   0.30032685      
  20               4.28058268E-05   1.38620971E-02   418.21587725     9.39289596E-07   2.40079047E+17   5.66610093E+07   0.00000000E+00   1.49170799E+06   0.30018149      
  21               5.27803164E-05   1.69646878E-02   428.11679174     1.12293421E-06   2.87018208E+17   5.66610070E+07   0.00000000E+00   1.48215482E+06   0.30014602      
  22               6.50790328E-05   2.07409653E-02   432.63927550     1.35854483E-06   3.47239291E+17   5.66610031E+07   0.00000000E+00   1.47248652E+06   0.30003004      
  23               8.02435604E-05   2.53356618E-02   442.98057102     1.62075677E-06   4.14260395E+17   5.66609992E+07   0.00000000E+00   1.46269476E+06   0.30004589      
  24               9.89416822E-05   3.09232416E-02   448.01206523     1.95602957E-06   4.99943750E+17   5.66609989E+07   0.00000000E+00   1.45277094E+06   0.29997897      
  25               1.21996786E-04   3.77141106E-02   459.12328330     2.32784841E-06   5.94977294E+17   5.66610039E+07   0.00000000E+00   1.44270718E+06   0.29986358      
  26               1.50424124E-04   4.59564141E-02   465.50743968     2.79770751E-06   7.15064714E+17   5.66610507E+07   0.00000000E+00   1.43249378E+06   0.29972679      
  27               1.85475517E-04   5.59496564E-02   477.55708263     3.32012531E-06   8.48590124E+17   5.66611497E+07   0.00000000E+00   1.42212499E+06   0.29973419      
  28               2.28694484E-04   6.80571452E-02   484.09814328     3.98403144E-06   1.01827751E+18   5.66611640E+07   0.00000000E+00   1.41159772E+06   0.29969297      
  29               2.81984210E-04   8.27172847E-02   496.90001341     4.71746001E-06   1.20573842E+18   5.66611872E+07   0.00000000E+00   1.40090416E+06   0.29965379      
  30               3.47691354E-04   1.00442864E-01   504.43437179     5.64315098E-06   1.44224903E+18   5.66612212E+07   0.00000000E+00   1.39004017E+06   0.29957269      
  31               4.28709385E-04   1.21847403E-01   518.39174326     6.66139240E-06   1.70248793E+18   5.66612743E+07   0.00000000E+00   1.37900034E+06   0.29954078      
  32               5.28606003E-04   1.47666001E-01   527.20968640     7.93786974E-06   2.02872403E+18   5.66613426E+07   0.00000000E+00   1.36777245E+06   0.29947765      
  33               6.51780242E-04   1.78774108E-01   542.56060873     9.33819024E-06   2.38661408E+18   5.66614333E+07   0.00000000E+00   1.35634656E+06   0.29942754      
  34               8.03656185E-04   2.16194100E-01   552.92270631     1.10811727E-05   2.83207827E+18   5.66615640E+07   0.00000000E+00   1.34471388E+06   0.29931585      
  35               9.90921819E-04   2.61141875E-01   569.96199831     1.29848344E-05   3.31861183E+18   5.66617321E+07   0.00000000E+00   1.33286446E+06   0.29924234      
  36               1.22182355E-03   3.15035779E-01   582.16016286     1.53363878E-05   3.91961342E+18   5.66619330E+07   0.00000000E+00   1.32078744E+06   0.29915211      
  37               1.50652933E-03   3.79544704E-01   601.07009304     1.78954646E-05   4.57365767E+18   5.66621965E+07   0.00000000E+00   1.30847379E+06   0.29906527      
  38               1.85757643E-03   4.56592177E-01   615.31196791     2.10299434E-05   5.37475835E+18   5.66625505E+07   0.00000000E+00   1.29591442E+06   0.29891074      
  39               2.29042351E-03   5.48477319E-01   636.34860419     2.44268843E-05   6.24294367E+18   5.66630865E+07   0.00000000E+00   1.28309430E+06   0.29878067      
  40               2.82413135E-03   6.57935299E-01   652.88018251     2.85597236E-05   7.29920466E+18   5.66637744E+07   0.00000000E+00   1.26998932E+06   0.29857974      
  41               3.48220225E-03   7.88147447E-01   676.20808244     3.30317033E-05   8.44214788E+18   5.66645361E+07   0.00000000E+00   1.25658301E+06   0.29838158      
  42               4.29361493E-03   9.42697360E-01   695.40109829     3.84185132E-05   9.81889822E+18   5.66654451E+07   0.00000000E+00   1.24286368E+06   0.29805754      
  43               5.29410063E-03   1.12582110E+00   721.61258835     4.42149077E-05   1.13003299E+19   5.66665030E+07   0.00000000E+00   1.22881324E+06   0.29772451      
  44               6.52771662E-03   1.34211440E+00   744.11671617     5.11153889E-05   1.30639442E+19   5.66677555E+07   0.00000000E+00   1.21442582E+06   0.29731653      
  45               8.04878622E-03   1.59663813E+00   773.64035204     5.84885720E-05   1.49483487E+19   5.66691674E+07   0.00000000E+00   1.19970550E+06   0.29691428      
  46               9.92429106E-03   1.89546538E+00   799.73051318     6.71703831E-05   1.71671432E+19   5.66706391E+07   0.00000000E+00   1.18462915E+06   0.29631267      
  47               1.22368206E-02   2.24616691E+00   832.84227992     7.64341498E-05   1.95346259E+19   5.66722257E+07   0.00000000E+00   1.16915148E+06   0.29564007      
  48               1.50882091E-02   2.65674960E+00   862.79166409     8.72675393E-05   2.23033717E+19   5.66739122E+07   0.00000000E+00   1.15325392E+06   0.29484231      
  49               1.86040198E-02   3.13562393E+00   899.58008759     9.87852445E-05   2.52470114E+19   5.66757374E+07   0.00000000E+00   1.13694410E+06   0.29405275      
  50               2.29390746E-02   3.69128374E+00   933.06567410     1.12117510E-04   2.86543827E+19   5.66775414E+07   0.00000000E+00   1.12024756E+06   0.29306423      
  51               2.82842712E-02   4.33506659E+00   973.01480840     1.26265948E-04   3.22702376E+19   5.66793244E+07   0.00000000E+00   1.10313718E+06   0.29201208      
  52               3.48749902E-02   5.08037867E+00   1009.60216100    1.42613513E-04   3.64478279E+19   5.66813971E+07   0.00000000E+00   1.08557351E+06   0.29076373      
  53               4.30014593E-02   5.94138691E+00   1052.34393462    1.60012506E-04   4.08936591E+19   5.66836004E+07   0.00000000E+00   1.06754953E+06   0.28950239      
  54               5.30215347E-02   6.93296033E+00   1091.31861948    1.80048859E-04   4.60143180E+19   5.66856221E+07   0.00000000E+00   1.04907588E+06   0.28808759      
  55               6.53764590E-02   8.07289785E+00   1135.95450253    2.01414846E-04   5.14747634E+19   5.66873299E+07   0.00000000E+00   1.03014633E+06   0.28667901      
  56               8.06102920E-02   9.38506951E+00   1176.61249795    2.26063086E-04   5.77736593E+19   5.66886620E+07   0.00000000E+00   1.01070034E+06   0.28512664      
  57               9.93938685E-02   1.08963753E+01   1222.85155433    2.52548373E-04   6.45407717E+19   5.66896011E+07   0.00000000E+00   9.90698701E+05   0.2836079       
  58               1.22554340E-01   1.26348909E+01   1265.04396192    2.83093176E-04   7.23422009E+19   5.66904898E+07   0.00000000E+00   9.70137772E+05   0.28198758      
  59               1.51111597E-01   1.46327250E+01   1312.76523641    3.15970948E-04   8.07353967E+19   5.66916646E+07   0.00000000E+00   9.49013851E+05   0.28041512      
  60               1.86323183E-01   1.69380155E+01   1355.96445193    3.54116055E-04   9.04773896E+19   5.66931602E+07   0.00000000E+00   9.27220047E+05   0.27876194      
  61               2.29739671E-01   1.96236623E+01   1404.25622659    3.96151673E-04   1.01218417E+20   5.66945468E+07   0.00000000E+00   9.04544855E+05   0.2771782       
  62               2.83272943E-01   2.27674339E+01   1447.44154872    4.45884726E-04   1.13930208E+20   5.66958461E+07   0.00000000E+00   8.80890422E+05   0.27546468      
  63               3.49280383E-01   2.64402804E+01   1495.86689112    5.01026835E-04   1.28026227E+20   5.66969386E+07   0.00000000E+00   8.56316988E+05   0.27374888      
  64               4.30668686E-01   3.06893909E+01   1539.19615511    5.65152114E-04   1.44417605E+20   5.66978942E+07   0.00000000E+00   8.31065469E+05   0.27191065      
  65               5.31021855E-01   3.55704297E+01   1588.40947613    6.34739017E-04   1.62200610E+20   5.66986479E+07   0.00000000E+00   8.05293996E+05   0.27003945      
  66               6.54759028E-01   4.11259735E+01   1632.94119176    7.13834627E-04   1.82419595E+20   5.66992276E+07   0.00000000E+00   7.79194498E+05   0.26800662      
  67               8.07329079E-01   4.73480872E+01   1684.24750878    7.96836419E-04   2.03620906E+20   5.66997217E+07   0.00000000E+00   7.53105168E+05   0.26611807      
  68               9.95450561E-01   5.41660340E+01   1732.06842403    8.86724160E-04   2.26510236E+20   5.67002933E+07   0.00000000E+00   7.27454586E+05   0.26412112      
  69               1.22740757E+00   6.14904810E+01   1788.45129427    9.74888486E-04   2.49032835E+20   5.66328085E+07   0.00000000E+00   7.02542612E+05   0.26236511      
  70               1.51341452E+00   6.92022798E+01   1844.74267995    1.06386212E-03   2.71713018E+20   5.35338030E+07   3.08741217E+06   6.78595861E+05   0.26051904      
  71               1.86606598E+00   7.70211277E+01   1896.51581730    1.15228790E-03   2.94157038E+20   4.83517400E+07   8.25070968E+06   6.56263397E+05   0.25894742      
  72               2.30089127E+00   8.45398976E+01   1942.89414712    1.23592832E-03   3.15165316E+20   4.23144654E+07   1.42891794E+07   6.36338173E+05   0.25738897      
  73               2.83703828E+00   9.14445506E+01   1982.18608320    1.31032216E-03   3.34148293E+20   3.71861976E+07   1.94249964E+07   6.19180555E+05   0.25605701      
  74               3.49811672E+00   9.92356643E+01   2024.28847548    1.39231343E-03   3.55075918E+20   3.21442254E+07   2.44695323E+07   6.00939798E+05   0.25469418      
  75               4.31323774E+00   1.05864635E+02   2057.50713906    1.46172371E-03   3.72679406E+20   2.66065130E+07   3.00148491E+07   5.86244955E+05   0.25356084      
  76               5.31829590E+00   1.11084888E+02   2083.02152403    1.51497534E-03   3.86266518E+20   2.29269886E+07   3.37034779E+07   5.75151766E+05   0.25234042      
  77               6.55754979E+00   1.17168742E+02   2110.86178832    1.57682559E-03   4.02047910E+20   2.10384022E+07   3.55970997E+07   5.62704199E+05   0.25134179      
  78               8.08557104E+00   1.24219017E+02   2142.35914150    1.64707092E-03   4.19973271E+20   1.94863090E+07   3.71554413E+07   5.48869858E+05   0.25030749      
  79               9.96964736E+00   1.32330780E+02   2176.14813578    1.72725261E-03   4.40451667E+20   1.68631293E+07   3.97774647E+07   5.33661521E+05   0.24961517      
  80               1.22927457E+01   1.38465596E+02   2201.21616883    1.78830808E-03   4.55622356E+20   1.35487542E+07   4.30798144E+07   5.22621795E+05   0.24901758      
  81               1.51571657E+01   1.42950038E+02   2218.38262439    1.83189711E-03   4.66738535E+20   1.18264796E+07   4.47947994E+07   5.14786836E+05   0.24830656      
  82               1.86890445E+01   1.48290428E+02   2239.00550714    1.88277542E-03   4.79715549E+20   1.13242004E+07   4.53005021E+07   5.05693498E+05   0.24749662      
  83               2.30439114E+01   1.54620887E+02   2261.89366796    1.94322000E-03   4.95132935E+20   1.08125646E+07   4.58157698E+07   4.95227631E+05   0.24655674      
  84               2.84135369E+01   1.62089708E+02   2288.66789932    2.01316915E-03   5.12977717E+20   1.03088148E+07   4.63232755E+07   4.83286343E+05   0.24550057      
  85               3.50343769E+01   1.70860273E+02   2318.03700570    2.09510583E-03   5.33883589E+20   9.72152276E+06   4.69143724E+07   4.69781646E+05   0.24429549      
  86               4.31979859E+01   1.81111811E+02   2351.55862672    2.18923734E-03   5.57849183E+20   9.12824621E+06   4.75114908E+07   4.54644150E+05   0.24295278      
  87               5.32638553E+01   1.93044238E+02   2387.81568798    2.29787667E-03   5.85574130E+20   8.48278154E+06   4.81607880E+07   4.37820523E+05   0.24146676      
  88               6.56752445E+01   2.06880279E+02   2428.32059902    2.42127998E-03   6.17076359E+20   7.84725355E+06   4.88001254E+07   4.19271256E+05   0.23984436      
  89               8.09786996E+01   2.22870129E+02   2471.53074259    2.56254982E-03   6.53148128E+20   7.17573099E+06   4.94753717E+07   3.98971695E+05   0.23806218      
  90               9.98481215E+01   2.41298959E+02   2518.93729440    2.72187700E-03   6.93847345E+20   6.52520449E+06   5.01294015E+07   3.76905445E+05   0.23610864      
  91               1.23114441E+02   2.62504400E+02   2568.91573481    2.90302848E-03   7.40137771E+20   5.89365516E+06   5.07641608E+07   3.53049930E+05   0.23400908      
  92               1.51802212E+02   2.86888074E+02   2623.03998954    3.10664389E-03   7.92197418E+20   5.32212829E+06   5.13385954E+07   3.27373805E+05   0.23171065      
  93               1.87174723E+02   3.14927339E+02   2679.61386666    3.33754842E-03   8.51263449E+20   4.78042840E+06   5.18828024E+07   2.99837281E+05   0.22933716      
  94               2.30789634E+02   3.47196505E+02   2740.36594226    3.59700640E-03   9.17682865E+20   4.28159905E+06   5.23836797E+07   2.70385888E+05   0.22677564      
  95               2.84567566E+02   3.84395723E+02   2803.52147632    3.89148312E-03   9.93117191E+20   3.80471682E+06   5.28620757E+07   2.38944008E+05   0.22411368      
  96               3.50876675E+02   4.27391607E+02   2871.01246021    4.22347137E-03   1.07824326E+21   3.37048726E+06   5.32971827E+07   2.05405940E+05   0.22153005      
  97               4.32636941E+02   4.77271417E+02   2941.20240537    4.60183631E-03   1.17534768E+21   2.95953701E+06   5.37084435E+07   1.69626918E+05   0.21898512      
  98               5.33448747E+02   5.35481513E+02   3016.32318544    5.03188649E-03   1.28585634E+21   2.58361559E+06   5.40852866E+07   1.31373324E+05   0.21607154      
  99               6.57751428E+02   6.03891571E+02   3094.61143014    5.52783934E-03   1.41344425E+21   2.25619547E+06   5.44148862E+07   9.03545703E+04   0.21306362      
  100              8.11018759E+02   6.84319083E+02   3178.13439580    6.09504977E-03   1.55959643E+21   1.99399412E+06   5.46795612E+07   4.65373241E+04   0.20990247      
  101              1.00000000E+03   7.78691254E+02   3264.23015344    6.74718741E-03   1.72786721E+21   1.86137138E+06   5.48121853E+07   0.00000000E+00   0.20690017      
