# ATMO pressure-temperature profile
# Effective temperature = 700.0K
# log(g) = 3.0cm/s^2
# M/H = 0.0
# Optical depth grid in band 17 (1.20-1.33microns)
# All parameters in cgs units
#
# Model Level      Optical Depth    Pressure         Temperature      Density          Number Density   Rad Flux         Conv Flux        Radial Extension Adiabatic Gradient
#                                   [Ba]             [K]              [g/cm^3]         [/cm^3]          [ergs/s/cm^2/sr] [ergs/s/cm^2/sr] [cm]             [K/Ba]          
  1                1.00000000E-04   1.00000000E-05   188.97534128     1.49931271E-09   3.83284010E+14   1.36132619E+07   0.00000000E+00   3.63432977E+08   0.31732294      
  2                1.17489755E-04   9.55235325E-05   224.92671363     1.20328000E-08   3.07606265E+15   1.36132619E+07   0.00000000E+00   3.43297767E+08   0.31013778      
  3                1.38038426E-04   1.88827374E-04   245.25313559     2.18146248E-08   5.57668641E+15   1.36132619E+07   0.00000000E+00   3.37538830E+08   0.30873297      
  4                1.62181010E-04   2.94190387E-04   256.00528098     3.25594393E-08   8.32348868E+15   1.36132619E+07   0.00000000E+00   3.33585384E+08   0.30705678      
  5                1.90546072E-04   4.14667859E-04   267.32608377     4.39497495E-08   1.12353053E+16   1.36132619E+07   0.00000000E+00   3.30400532E+08   0.30596455      
  6                2.23872114E-04   5.53096821E-04   274.47091714     5.70955414E-08   1.45958929E+16   1.36132619E+07   0.00000000E+00   3.27637107E+08   0.30508442      
  7                2.63026799E-04   7.12651688E-04   283.59636578     7.11990214E-08   1.82013037E+16   1.36132619E+07   0.00000000E+00   3.25134619E+08   0.30442536      
  8                3.09029543E-04   8.96813661E-04   289.77880703     8.76865459E-08   2.24161712E+16   1.36132619E+07   0.00000000E+00   3.22803865E+08   0.30381382      
  9                3.63078055E-04   1.10963893E-03   298.16959001     1.05442502E-07   2.69553004E+16   1.36132619E+07   0.00000000E+00   3.20590522E+08   0.30333749      
  10               4.26579519E-04   1.35574099E-03   303.97511723     1.26367693E-07   3.23046121E+16   1.36132619E+07   0.00000000E+00   3.18458511E+08   0.30287862      
  11               5.01187234E-04   1.64048865E-03   312.12372189     1.48916844E-07   3.80690723E+16   1.36132619E+07   0.00000000E+00   3.16382784E+08   0.30251115      
  12               5.88843655E-04   1.97003732E-03   317.87093010     1.75598583E-07   4.48899871E+16   1.36132619E+07   0.00000000E+00   3.14344864E+08   0.30215362      
  13               6.91830971E-04   2.35159982E-03   325.87504167     2.04460621E-07   5.22682740E+16   1.36132619E+07   0.00000000E+00   3.12331138E+08   0.30186778      
  14               8.12830516E-04   2.79346190E-03   331.59635604     2.38687886E-07   6.10181229E+16   1.36132619E+07   0.00000000E+00   3.10330969E+08   0.30158747      
  15               9.54992586E-04   3.30525775E-03   339.65385403     2.75718648E-07   7.04846626E+16   1.36132619E+07   0.00000000E+00   3.08335943E+08   0.30135869      
  16               1.12201845E-03   3.89810878E-03   345.46603106     3.19702428E-07   8.17286722E+16   1.36132619E+07   0.00000000E+00   3.06339120E+08   0.30113528      
  17               1.31825674E-03   4.58502906E-03   353.58834461     3.67402018E-07   9.39225751E+16   1.36132619E+07   0.00000000E+00   3.04334821E+08   0.30095463      
  18               1.54881662E-03   5.38098457E-03   359.55685877     4.24025054E-07   1.08397685E+17   1.36132619E+07   0.00000000E+00   3.02318209E+08   0.30077331      
  19               1.81970086E-03   6.30323257E-03   368.00012757     4.85302581E-07   1.24062692E+17   1.36132619E+07   0.00000000E+00   3.00285171E+08   0.30062512      
  20               2.13796209E-03   7.37160659E-03   374.37626275     5.57894498E-07   1.42619755E+17   1.36132619E+07   0.00000000E+00   2.98231923E+08   0.30047709      
  21               2.51188643E-03   8.60904232E-03   383.24022832     6.36475763E-07   1.62708257E+17   1.36132619E+07   0.00000000E+00   2.96155310E+08   0.3003537       
  22               2.95120923E-03   1.00417828E-02   390.07732323     7.29387166E-07   1.86460119E+17   1.36132619E+07   0.00000000E+00   2.94052512E+08   0.30021448      
  23               3.46736850E-03   1.16999288E-02   399.53236222     8.29715221E-07   2.12108022E+17   1.36132619E+07   0.00000000E+00   2.91921042E+08   0.30019038      
  24               4.07380278E-03   1.36178250E-02   407.06906145     9.47844889E-07   2.42306738E+17   1.36132619E+07   0.00000000E+00   2.89758364E+08   0.3001102       
  25               4.78630092E-03   1.58349495E-02   417.28907138     1.07516888E-06   2.74856183E+17   1.36132619E+07   0.00000000E+00   2.87562107E+08   0.29997071      
  26               5.62341325E-03   1.83962433E-02   425.67807468     1.22447994E-06   3.13021164E+17   1.36132619E+07   0.00000000E+00   2.85329837E+08   0.29982583      
  27               6.60693448E-03   2.13537288E-02   436.86539850     1.38493508E-06   3.54039660E+17   1.36132619E+07   0.00000000E+00   2.83058758E+08   0.29973297      
  28               7.76247117E-03   2.47655621E-02   446.51044158     1.57151873E-06   4.01737535E+17   1.36132619E+07   0.00000000E+00   2.80746090E+08   0.29968471      
  29               9.12010839E-03   2.86973269E-02   459.28779361     1.77035223E-06   4.52566478E+17   1.36132619E+07   0.00000000E+00   2.78388881E+08   0.2996514       
  30               1.07151931E-02   3.32214593E-02   470.66767574     1.99989676E-06   5.11246293E+17   1.36132619E+07   0.00000000E+00   2.75984507E+08   0.29959385      
  31               1.25892541E-02   3.84225642E-02   484.63565975     2.24648631E-06   5.74244465E+17   1.36132619E+07   0.00000000E+00   2.73530672E+08   0.29952268      
  32               1.47910839E-02   4.43966387E-02   497.10530980     2.53066105E-06   6.46885667E+17   1.36132619E+07   0.00000000E+00   2.71025129E+08   0.29944072      
  33               1.73780083E-02   5.12474209E-02   512.70058483     2.83230346E-06   7.23992455E+17   1.36132619E+07   0.00000000E+00   2.68466230E+08   0.29936888      
  34               2.04173794E-02   5.90934794E-02   527.09986546     3.17670994E-06   8.12030789E+17   1.36132619E+07   0.00000000E+00   2.65850500E+08   0.2992794       
  35               2.39883292E-02   6.80710722E-02   544.74503147     3.54078521E-06   9.05097058E+17   1.36132619E+07   0.00000000E+00   2.63173666E+08   0.29918037      
  36               2.81838293E-02   7.83264501E-02   561.55167572     3.95228634E-06   1.01028651E+18   1.36132619E+07   0.00000000E+00   2.60432233E+08   0.29905084      
  37               3.31131121E-02   9.00159800E-02   581.98494461     4.38265233E-06   1.12029837E+18   1.36132619E+07   0.00000000E+00   2.57623540E+08   0.29891307      
  38               3.89045145E-02   1.03298996E-01   602.28765485     4.85982723E-06   1.24227566E+18   1.36132619E+07   0.00000000E+00   2.54745361E+08   0.2987461       
  39               4.57088190E-02   1.18336587E-01   627.26533793     5.34559458E-06   1.36644952E+18   1.35989764E+07   1.42854286E+04   2.51795036E+08   0.29855026      
  40               5.37031796E-02   1.35302480E-01   652.82564493     5.87268213E-06   1.50118561E+18   1.35182772E+07   9.49846903E+04   2.48767004E+08   0.29826703      
  41               6.30957344E-02   1.54448624E-01   679.12730499     6.44407531E-06   1.64724687E+18   1.33879186E+07   2.25343240E+05   2.45654694E+08   0.29795408      
  42               7.41310241E-02   1.76032853E-01   706.07545277     7.06432044E-06   1.80579503E+18   1.32133715E+07   3.99890381E+05   2.42455644E+08   0.29757045      
  43               8.70963590E-02   2.00318156E-01   733.76913505     7.73551468E-06   1.97736441E+18   1.30028666E+07   6.10395249E+05   2.39170429E+08   0.29721688      
  44               1.02329299E-01   2.27580602E-01   762.08814839     8.46176230E-06   2.16299678E+18   1.27718556E+07   8.41406298E+05   2.35800737E+08   0.29674476      
  45               1.20226443E-01   2.58162509E-01   791.14293827     9.24637303E-06   2.36354599E+18   1.25407250E+07   1.07253687E+06   2.32343343E+08   0.29626231      
  46               1.41253754E-01   2.92489905E-01   820.90519399     1.00960370E-05   2.58073681E+18   1.23277371E+07   1.28552480E+06   2.28790469E+08   0.29559126      
  47               1.65958691E-01   3.30986845E-01   851.44558527     1.10150584E-05   2.81565652E+18   1.21475520E+07   1.46570993E+06   2.25139927E+08   0.29493494      
  48               1.94984460E-01   3.74069410E-01   882.68683160     1.20082223E-05   3.06952650E+18   1.20098515E+07   1.60341033E+06   2.21393917E+08   0.29408535      
  49               2.29086765E-01   4.22144836E-01   914.59649521     1.30787484E-05   3.34316482E+18   1.19262791E+07   1.68698276E+06   2.17557720E+08   0.29329436      
  50               2.69153480E-01   4.75656296E-01   947.13399822     1.42307634E-05   3.63753904E+18   1.19048081E+07   1.70845377E+06   2.13635324E+08   0.29230217      
  51               3.16227766E-01   5.35235316E-01   980.30888146     1.54712179E-05   3.95464645E+18   1.19475418E+07   1.66572006E+06   2.09620033E+08   0.29140436      
  52               3.71535229E-01   6.01555213E-01   1014.21777166    1.68066355E-05   4.29605783E+18   1.20413100E+07   1.57195187E+06   2.05507198E+08   0.29029342      
  53               4.36515832E-01   6.75290230E-01   1048.74114082    1.82452770E-05   4.66388680E+18   1.21794465E+07   1.43381535E+06   2.01296459E+08   0.28929809      
  54               5.12861384E-01   7.57124445E-01   1084.00424978    1.97903611E-05   5.05897022E+18   1.23550910E+07   1.25817090E+06   1.96989875E+08   0.28807045      
  55               6.02559586E-01   8.47766538E-01   1119.76432822    2.14514056E-05   5.48372265E+18   1.25716953E+07   1.04156658E+06   1.92590658E+08   0.28696055      
  56               7.07945784E-01   9.48075819E-01   1156.27444063    2.32314455E-05   5.93892695E+18   1.28266672E+07   7.86594691E+05   1.88097256E+08   0.28558691      
  57               8.31763771E-01   1.05922251E+00   1193.29174311    2.51492109E-05   6.42934020E+18   1.31158530E+07   4.97408810E+05   1.83498965E+08   0.28436902      
  58               9.77237221E-01   1.18245201E+00   1231.24319179    2.72090795E-05   6.95609528E+18   1.34101782E+07   2.03083660E+05   1.78788153E+08   0.28289095      
  59               1.14815362E+00   1.31919537E+00   1269.73343209    2.94348872E-05   7.52527549E+18   1.36132618E+07   0.00000000E+00   1.73956250E+08   0.28161899      
  60               1.34896288E+00   1.47148642E+00   1307.89245870    3.18742408E-05   8.14910780E+18   1.36132617E+07   0.00000000E+00   1.68984338E+08   0.28018963      
  61               1.58489319E+00   1.64257923E+00   1343.62551598    3.46329410E-05   8.85470146E+18   1.36132617E+07   0.00000000E+00   1.63834810E+08   0.27902272      
  62               1.86208714E+00   1.83677694E+00   1380.38635798    3.76944215E-05   9.63788189E+18   1.36132617E+07   0.00000000E+00   1.58460018E+08   0.27769589      
  63               2.18776162E+00   2.05913732E+00   1415.46000363    4.12089046E-05   1.05369167E+19   1.36132617E+07   0.00000000E+00   1.52818132E+08   0.27654735      
  64               2.57039578E+00   2.31446257E+00   1452.43407533    4.51390967E-05   1.15419602E+19   1.36132617E+07   0.00000000E+00   1.46898084E+08   0.27512545      
  65               3.01995172E+00   2.60583636E+00   1488.74942972    4.95813140E-05   1.26780182E+19   1.36132617E+07   0.00000000E+00   1.40739006E+08   0.27389003      
  66               3.54813389E+00   2.93379551E+00   1528.11023740    5.43863631E-05   1.39059606E+19   1.36132617E+07   0.00000000E+00   1.34423323E+08   0.27238054      
  67               4.16869383E+00   3.29097727E+00   1567.64921188    5.94931455E-05   1.52055395E+19   1.36132617E+07   0.00000000E+00   1.28143595E+08   0.27102826      
  68               4.89778819E+00   3.67194518E+00   1611.06959213    6.45932502E-05   1.65085043E+19   1.36132617E+07   0.00000000E+00   1.21998003E+08   0.2693777       
  69               5.75439937E+00   4.06937692E+00   1656.16367463    6.96413921E-05   1.77971517E+19   1.29079047E+07   7.05362353E+05   1.16072317E+08   0.26784292      
  70               6.76082975E+00   4.46737641E+00   1697.94255610    7.45930428E-05   1.90570377E+19   1.15017072E+07   2.11155944E+06   1.10550157E+08   0.26622443      
  71               7.94328235E+00   4.84304034E+00   1734.71241822    7.91881726E-05   2.02216430E+19   9.82747169E+06   3.78583952E+06   1.05662158E+08   0.26493652      
  72               9.33254301E+00   5.17647235E+00   1765.52682914    8.32531968E-05   2.12366210E+19   8.24552177E+06   5.36773959E+06   1.01555327E+08   0.26366308      
  73               1.09647820E+01   5.46533269E+00   1790.89339067    8.66532249E-05   2.21040935E+19   7.28693868E+06   6.32632250E+06   9.81544160E+07   0.26273114      
  74               1.28824955E+01   5.78659272E+00   1817.97515461    9.03776560E-05   2.30547710E+19   6.60278125E+06   7.01047979E+06   9.45241876E+07   0.26154917      
  75               1.51356125E+01   6.06125974E+00   1840.03338596    9.35587206E-05   2.38595930E+19   5.79947855E+06   7.81378245E+06   9.15370818E+07   0.26073308      
  76               1.77827941E+01   6.28112844E+00   1857.26613079    9.60518159E-05   2.44956729E+19   5.29851197E+06   8.31474905E+06   8.92177197E+07   0.25999407      
  77               2.08929613E+01   6.52874776E+00   1875.92365258    9.88441177E-05   2.52081265E+19   5.06047157E+06   8.55292500E+06   8.66764169E+07   0.25921596      
  78               2.45470892E+01   6.80659850E+00   1896.35248930    1.01938916E-04   2.59978185E+19   4.82833904E+06   8.78492172E+06   8.39084158E+07   0.2582938       
  79               2.88403150E+01   7.11715064E+00   1918.20626667    1.05369581E-04   2.68742710E+19   4.33654485E+06   9.27671585E+06   8.09119659E+07   0.25744991      
  80               3.38844156E+01   7.34631651E+00   1933.97589487    1.07967499E-04   2.75134099E+19   3.65470238E+06   9.95855863E+06   7.87631627E+07   0.25635097      
  81               3.98107171E+01   7.50833374E+00   1944.69905003    1.09738144E-04   2.79651405E+19   3.28143084E+06   1.03318304E+07   7.72747067E+07   0.25565659      
  82               4.67735141E+01   7.69201524E+00   1956.84662875    1.11723107E-04   2.84714239E+19   3.15485860E+06   1.04584028E+07   7.56158259E+07   0.25499432      
  83               5.49540874E+01   7.90077075E+00   1970.12841138    1.13979639E-04   2.90469653E+19   3.03276815E+06   1.05804935E+07   7.37659061E+07   0.25442991      
  84               6.45654229E+01   8.13714321E+00   1985.05774075    1.16504244E-04   2.96909884E+19   2.90857321E+06   1.07046885E+07   7.17146851E+07   0.25359003      
  85               7.58577575E+01   8.40385331E+00   2001.21252453    1.19348792E-04   3.04166297E+19   2.77372063E+06   1.08395411E+07   6.94528563E+07   0.25267389      
  86               8.91250938E+01   8.70361823E+00   2019.10293368    1.22507042E-04   3.12224668E+19   2.65257014E+06   1.09606915E+07   6.69737712E+07   0.25162893      
  87               1.04712855E+02   9.04111645E+00   2038.36065530    1.26050774E-04   3.21267560E+19   2.53811501E+06   1.10751467E+07   6.42578424E+07   0.25050608      
  88               1.23026877E+02   9.41999416E+00   2059.50932753    1.29978974E-04   3.31293343E+19   2.42292793E+06   1.11903338E+07   6.12978542E+07   0.24921422      
  89               1.44543977E+02   9.84409445E+00   2082.04756630    1.34353836E-04   3.42460877E+19   2.30166221E+06   1.13115996E+07   5.80885766E+07   0.24782644      
  90               1.69824365E+02   1.03175103E+01   2106.48883921    1.39173078E-04   3.54765670E+19   2.18030916E+06   1.14329526E+07   5.46264697E+07   0.24624755      
  91               1.99526231E+02   1.08446188E+01   2132.27283687    1.44504503E-04   3.68381112E+19   2.05550874E+06   1.15577530E+07   5.09095589E+07   0.244614        
  92               2.34422882E+02   1.14301149E+01   2159.92558673    1.50344108E-04   3.83298965E+19   1.93166410E+06   1.16815976E+07   4.69372715E+07   0.2427423       
  93               2.75422870E+02   1.20790677E+01   2188.80973188    1.56768643E-04   3.99715733E+19   1.80651907E+06   1.18067426E+07   4.27101872E+07   0.24076293      
  94               3.23593657E+02   1.27969690E+01   2219.47387449    1.63773116E-04   4.17621567E+19   1.68351302E+06   1.19297486E+07   3.82298099E+07   0.23844552      
  95               3.80189396E+02   1.35898139E+01   2251.18886753    1.71447714E-04   4.37247584E+19   1.56150757E+06   1.20517540E+07   3.34982756E+07   0.23607111      
  96               4.46683592E+02   1.44641498E+01   2284.57764051    1.79783998E-04   4.58577590E+19   1.44118868E+06   1.21720728E+07   2.85181771E+07   0.23334513      
  97               5.24807460E+02   1.54267721E+01   2318.78525352    1.88907133E-04   4.81881632E+19   1.32303866E+06   1.23020768E+07   2.32945709E+07   0.23061093      
  98               6.16595002E+02   1.64856513E+01   2354.54998755    1.98767750E-04   5.07135527E+19   1.21315720E+06   1.24181477E+07   1.78300677E+07   0.22746708      
  99               7.24435960E+02   1.76500047E+01   2390.89618072    2.09524680E-04   5.34699707E+19   1.11065359E+06   1.25162401E+07   1.21245410E+07   0.22439537      
  100              8.51138038E+02   1.89295374E+01   2428.73134807    2.21156626E-04   5.64529138E+19   1.01354516E+06   1.26264749E+07   6.18044830E+06   0.22084635      
  101              1.00000000E+03   2.03350247E+01   2466.85129589    2.33839350E-04   5.97073192E+19   9.58412662E+05   1.26840534E+07   0.00000000E+00   0.21743926      
