# ATMO pressure-temperature profile
# Effective temperature = 1800.0K
# log(g) = 3.0cm/s^2
# M/H = 0.0
# Optical depth grid in band 17 (1.20-1.33microns)
# All parameters in cgs units
#
# Model Level      Optical Depth    Pressure         Temperature      Density          Number Density   Rad Flux         Conv Flux        Radial Extension Adiabatic Gradient
#                                   [Ba]             [K]              [g/cm^3]         [/cm^3]          [ergs/s/cm^2/sr] [ergs/s/cm^2/sr] [cm]             [K/Ba]          
  1                1.00000000E-05   1.00000000E-05   466.20490875     6.08136198E-10   1.55363500E+14   5.95203018E+08   0.00000000E+00   7.35486379E+08   0.29800483      
  2                1.20226443E-05   1.57954354E-05   546.47214375     8.19478131E-10   2.09357928E+14   5.95203018E+08   0.00000000E+00   7.27276861E+08   0.29772821      
  3                1.44543977E-05   2.21877340E-05   584.66035095     1.07587269E-09   2.74874940E+14   5.95203018E+08   0.00000000E+00   7.20469037E+08   0.29746384      
  4                1.73780083E-05   2.95497446E-05   607.72378850     1.37841963E-09   3.52187011E+14   5.95203018E+08   0.00000000E+00   7.14423628E+08   0.29715186      
  5                2.08929613E-05   3.81177877E-05   630.34886053     1.71420824E-09   4.37998430E+14   5.95203018E+08   0.00000000E+00   7.08849723E+08   0.29688761      
  6                2.51188643E-05   4.81425919E-05   646.62930306     2.11048553E-09   5.39262134E+14   5.95203018E+08   0.00000000E+00   7.03579209E+08   0.29655342      
  7                3.01995172E-05   5.99135090E-05   665.28494600     2.55279780E-09   6.52293273E+14   5.95203018E+08   0.00000000E+00   6.98508006E+08   0.2962811       
  8                3.63078055E-05   7.37584052E-05   679.20990660     3.07824566E-09   7.86562696E+14   5.95203018E+08   0.00000000E+00   6.93569110E+08   0.29592468      
  9                4.36515832E-05   9.00615819E-05   696.08314859     3.66749921E-09   9.37139602E+14   5.95203018E+08   0.00000000E+00   6.88716943E+08   0.29631512      
  10               5.24807460E-05   1.09269046E-04   708.79954391     4.36982201E-09   1.11660498E+15   5.95203018E+08   0.00000000E+00   6.83919022E+08   0.29606829      
  11               6.30957344E-05   1.31904880E-04   724.77109715     5.15879426E-09   1.31821375E+15   5.95203018E+08   0.00000000E+00   6.79151522E+08   0.29587685      
  12               7.58577575E-05   1.58578211E-04   736.93075549     6.09964647E-09   1.55862871E+15   5.95203018E+08   0.00000000E+00   6.74396518E+08   0.29561387      
  13               9.12010839E-05   1.90001487E-04   752.53962019     7.15679585E-09   1.82874634E+15   5.95203017E+08   0.00000000E+00   6.69640535E+08   0.29541081      
  14               1.09647820E-04   2.27013747E-04   764.45404482     8.41764603E-09   2.15093167E+15   5.95203017E+08   0.00000000E+00   6.64871934E+08   0.29512759      
  15               1.31825674E-04   2.70635394E-04   779.85852422     9.83714293E-09   2.51359098E+15   5.95203017E+08   0.00000000E+00   6.60078208E+08   0.2949075       
  16               1.58489319E-04   3.22069685E-04   791.65959048     1.15321690E-08   2.94670874E+15   5.95203017E+08   0.00000000E+00   6.55249146E+08   0.29459891      
  17               1.90546072E-04   3.82740378E-04   807.06448605     1.34429551E-08   3.43496158E+15   5.95203016E+08   0.00000000E+00   6.50376373E+08   0.29435988      
  18               2.29086765E-04   4.54298389E-04   818.99493274     1.57238254E-08   4.01777694E+15   5.95203016E+08   0.00000000E+00   6.45454484E+08   0.2940244       
  19               2.75422870E-04   5.38674950E-04   834.66997347     1.82940337E-08   4.67452869E+15   5.95203015E+08   0.00000000E+00   6.40479542E+08   0.29376198      
  20               3.31131121E-04   6.38113649E-04   846.94195466     2.13570607E-08   5.45720448E+15   5.95203014E+08   0.00000000E+00   6.35448824E+08   0.2933938       
  21               3.98107171E-04   7.55229727E-04   863.06012646     2.48047306E-08   6.33816971E+15   5.95203013E+08   0.00000000E+00   6.30360456E+08   0.29310498      
  22               4.78630092E-04   8.93050177E-04   875.80853368     2.89043265E-08   7.38571471E+15   5.95203012E+08   0.00000000E+00   6.25213327E+08   0.29270259      
  23               5.75439937E-04   1.05508974E-03   892.48071887     3.35109107E-08   8.56281173E+15   5.95203011E+08   0.00000000E+00   6.20006819E+08   0.29238461      
  24               6.91830971E-04   1.24539546E-03   905.81535084     3.89729247E-08   9.95848881E+15   5.95203009E+08   0.00000000E+00   6.14740863E+08   0.29194165      
  25               8.31763771E-04   1.46863868E-03   923.18598659     4.50942063E-08   1.15226295E+16   5.95203006E+08   0.00000000E+00   6.09415657E+08   0.29158715      
  26               1.00000000E-03   1.73033923E-03   937.24909589     5.23324373E-08   1.33721754E+16   5.95203003E+08   0.00000000E+00   6.04028510E+08   0.29109745      
  27               1.20226443E-03   2.03714281E-03   955.40696589     6.04404159E-08   1.54439686E+16   5.95203000E+08   0.00000000E+00   5.98573303E+08   0.29069891      
  28               1.44543977E-03   2.39670537E-03   970.34467365     7.00136531E-08   1.78901698E+16   5.95202996E+08   0.00000000E+00   5.93045922E+08   0.29015152      
  29               1.73780083E-03   2.81785985E-03   989.54117383     8.07196512E-08   2.06258264E+16   5.95202991E+08   0.00000000E+00   5.87443699E+08   0.28969572      
  30               2.08929613E-03   3.31067951E-03   1005.64989081    9.33176527E-08   2.38449365E+16   5.95202985E+08   0.00000000E+00   5.81765423E+08   0.2890821       
  31               2.51188643E-03   3.88667938E-03   1026.17333651    1.07362127E-07   2.74336649E+16   5.95202978E+08   0.00000000E+00   5.76010826E+08   0.28856212      
  32               3.01995172E-03   4.55887415E-03   1043.66325046    1.23819786E-07   3.16390221E+16   5.95202969E+08   0.00000000E+00   5.70180745E+08   0.28787299      
  33               3.63078055E-03   5.34199684E-03   1065.69376650    1.42090063E-07   3.63075581E+16   5.95202959E+08   0.00000000E+00   5.64276655E+08   0.28727555      
  34               4.36515832E-03   6.25244292E-03   1084.82974407    1.63373047E-07   4.17459156E+16   5.95202947E+08   0.00000000E+00   5.58301046E+08   0.28649654      
  35               5.24807460E-03   7.30844920E-03   1108.75797182    1.86844551E-07   4.77435070E+16   5.95202932E+08   0.00000000E+00   5.52256884E+08   0.28571837      
  36               6.30957344E-03   8.53002812E-03   1129.88812081    2.13996541E-07   5.46815555E+16   5.95202915E+08   0.00000000E+00   5.46147774E+08   0.28333319      
  37               7.58577575E-03   9.94155798E-03   1155.87821983    2.43800074E-07   6.22971543E+16   5.95202896E+08   0.00000000E+00   5.39968039E+08   0.28267658      
  38               9.12010839E-03   1.15712326E-02   1179.27905867    2.78134134E-07   7.10704194E+16   5.95202873E+08   0.00000000E+00   5.33709732E+08   0.2820766       
  39               1.09647820E-02   1.34501507E-02   1207.94076842    3.15625913E-07   8.06505535E+16   5.95202847E+08   0.00000000E+00   5.27368196E+08   0.28168032      
  40               1.31825674E-02   1.56117419E-02   1234.34488332    3.58513809E-07   9.16095358E+16   5.95202817E+08   0.00000000E+00   5.20942290E+08   0.28132531      
  41               1.58489319E-02   1.80920071E-02   1266.26142779    4.04999639E-07   1.03487813E+17   5.95202781E+08   0.00000000E+00   5.14433233E+08   0.28091687      
  42               1.90546072E-02   2.09279802E-02   1296.29517985    4.57632578E-07   1.16936274E+17   5.95202739E+08   0.00000000E+00   5.07845790E+08   0.27958106      
  43               2.29086765E-02   2.41570391E-02   1332.31913304    5.13970919E-07   1.31329193E+17   5.95202686E+08   0.00000000E+00   5.01187688E+08   0.27773861      
  44               2.75422870E-02   2.78130695E-02   1367.08746395    5.76723787E-07   1.47359609E+17   5.95202622E+08   0.00000000E+00   4.94472472E+08   0.27525814      
  45               3.31131121E-02   3.19268963E-02   1408.34864632    6.42837146E-07   1.64199701E+17   5.95202537E+08   0.00000000E+00   4.87715589E+08   0.27284212      
  46               3.98107171E-02   3.65162975E-02   1449.25579235    7.14553636E-07   1.82501959E+17   5.95202365E+08   0.00000000E+00   4.80943912E+08   0.27038129      
  47               4.78630092E-02   4.15196647E-02   1500.23806169    7.84962779E-07   2.00456202E+17   5.94664906E+08   5.77561114E+05   4.74263066E+08   0.26824496      
  48               5.75439937E-02   4.67526583E-02   1548.59246569    8.57040103E-07   2.18672921E+17   5.92688669E+08   2.50037641E+06   4.67882199E+08   0.26636663      
  49               6.91830971E-02   5.18325978E-02   1591.59787806    9.24842858E-07   2.35882360E+17   5.89960707E+08   5.21136874E+06   4.62176171E+08   0.26478439      
  50               8.31763771E-02   5.66157827E-02   1629.14830800    9.87777452E-07   2.51711312E+17   5.86836853E+08   8.32031498E+06   4.57171085E+08   0.26327797      
  51               1.00000000E-01   6.09771740E-02   1661.20778041    1.04329236E-06   2.65869902E+17   5.83446204E+08   1.17079813E+07   4.52874799E+08   0.26141871      
  52               1.20226443E-01   6.58436667E-02   1694.79576676    1.10416274E-06   2.81398953E+17   5.79054266E+08   1.60990230E+07   4.48340633E+08   0.25916139      
  53               1.44543977E-01   7.12476973E-02   1729.66000010    1.17060859E-06   2.98356793E+17   5.73439751E+08   2.17130076E+07   4.43587319E+08   0.256615        
  54               1.73780083E-01   7.71968456E-02   1765.48944137    1.24248312E-06   3.16708901E+17   5.66419385E+08   2.87319141E+07   4.38654386E+08   0.25366108      
  55               2.08929613E-01   8.35927224E-02   1801.30050473    1.31850249E-06   3.36130668E+17   5.58191181E+08   3.69629113E+07   4.33657306E+08   0.25040562      
  56               2.51188643E-01   9.04363384E-02   1836.97375079    1.39851023E-06   3.56587290E+17   5.49375813E+08   4.58009444E+07   4.28617492E+08   0.24692332      
  57               3.01995172E-01   9.80637132E-02   1873.84641506    1.48630669E-06   3.79053212E+17   5.39559506E+08   5.56333522E+07   4.23327066E+08   0.24298268      
  58               3.63078055E-01   1.06558263E-01   1911.80048548    1.58257027E-06   4.03710833E+17   5.28217513E+08   6.69833096E+07   4.17788367E+08   0.23846788      
  59               4.36515832E-01   1.16010639E-01   1950.60930584    1.68811398E-06   4.30777852E+17   5.15060899E+08   8.01452799E+07   4.12005243E+08   0.23353791      
  60               5.24807460E-01   1.26522621E-01   1990.18143715    1.80373078E-06   4.60470009E+17   4.99851164E+08   9.53582229E+07   4.05981000E+08   0.22817583      
  61               6.30957344E-01   1.38208836E-01   2030.27386401    1.93046032E-06   4.93068237E+17   4.82401681E+08   1.12809175E+08   3.99718280E+08   0.22227779      
  62               7.58577575E-01   1.51200190E-01   2070.75706699    2.06939230E-06   5.28870110E+17   4.62648303E+08   1.32562119E+08   3.93218348E+08   0.21598401      
  63               9.12010839E-01   1.65647313E-01   2111.43762476    2.22186706E-06   5.68240231E+17   4.40687791E+08   1.54520180E+08   3.86480706E+08   0.20956573      
  64               1.09647820E+00   1.81718929E-01   2152.28638993    2.38919514E-06   6.11541519E+17   4.16689927E+08   1.78514150E+08   3.79505090E+08   0.20319288      
  65               1.31825674E+00   1.99602984E-01   2193.16483471    2.57294652E-06   6.59206672E+17   3.90855873E+08   2.04342055E+08   3.72291798E+08   0.19674469      
  66               1.58489319E+00   2.19509459E-01   2233.99155401    2.77479606E-06   7.11700962E+17   3.63486520E+08   2.31702825E+08   3.64841513E+08   0.19040128      
  67               1.90546072E+00   2.41671141E-01   2274.69523047    2.99656721E-06   7.69533296E+17   3.34878177E+08   2.60300910E+08   3.57155781E+08   0.18416175      
  68               2.29086765E+00   2.66341925E-01   2315.18423656    3.24024326E-06   8.33258625E+17   3.05248240E+08   2.89919956E+08   3.49238195E+08   0.17786812      
  69               2.75422870E+00   2.93746672E-01   2355.22934664    3.50789344E-06   9.03369847E+17   2.75062526E+08   3.20094316E+08   3.41109201E+08   0.17186491      
  70               3.31131121E+00   3.24198367E-01   2394.92919084    3.80108525E-06   9.80491842E+17   2.45179205E+08   3.49965280E+08   3.32769589E+08   0.16644219      
  71               3.98107171E+00   3.58102213E-01   2434.36876333    4.12316948E-06   1.06548288E+18   2.16130911E+08   3.79000858E+08   3.24205300E+08   0.16135365      
  72               4.78630092E+00   3.95832184E-01   2473.51237684    4.47682273E-06   1.15910520E+18   1.88141212E+08   4.06978022E+08   3.15423210E+08   0.15653122      
  73               5.75439937E+00   4.37762881E-01   2512.29881328    4.86460924E-06   1.26209917E+18   1.61705767E+08   4.33401722E+08   3.06437857E+08   0.15213806      
  74               6.91830971E+00   4.84341324E-01   2550.79909717    5.28942600E-06   1.37531161E+18   1.37603685E+08   4.57491622E+08   2.97255189E+08   0.14815824      
  75               8.31763771E+00   5.36058966E-01   2589.00141032    5.75460518E-06   1.49970596E+18   1.16293104E+08   4.78792359E+08   2.87880890E+08   0.14447418      
  76               1.00000000E+01   5.93443980E-01   2626.92784722    6.26354842E-06   1.63627925E+18   9.79696777E+07   4.97108563E+08   2.78322327E+08   0.14105822      
  77               1.20226443E+01   6.57062377E-01   2664.55324071    6.81994830E-06   1.78610932E+18   8.25910098E+07   5.12482039E+08   2.68588268E+08   0.13797225      
  78               1.44543977E+01   7.27517949E-01   2701.93799832    7.42736635E-06   1.95026745E+18   6.98757385E+07   5.25192541E+08   2.58688631E+08   0.13520216      
  79               1.73780083E+01   8.05454001E-01   2739.05557094    8.08978049E-06   2.12993200E+18   5.93729321E+07   5.35693452E+08   2.48634042E+08   0.13261194      
  80               2.08929613E+01   8.91561550E-01   2775.90336966    8.81132244E-06   2.32633806E+18   5.06789257E+07   5.44388208E+08   2.38434897E+08   0.1302149       
  81               2.51188643E+01   9.86585862E-01   2812.47584697    9.59641396E-06   2.54080845E+18   4.34466052E+07   5.51623815E+08   2.28100839E+08   0.12806313      
  82               3.01995172E+01   1.09132486E+00   2848.81341181    1.04494913E-05   2.77469904E+18   3.73915061E+07   5.57682463E+08   2.17641185E+08   0.12620009      
  83               3.63078055E+01   1.20663252E+00   2884.94688557    1.13752264E-05   3.02944481E+18   3.22768233E+07   5.62802976E+08   2.07064702E+08   0.12456755      
  84               4.36515832E+01   1.33342769E+00   2920.89651421    1.23786102E-05   3.30658080E+18   2.79287030E+07   5.67159995E+08   1.96379145E+08   0.12311672      
  85               5.24807460E+01   1.47270461E+00   2956.67907393    1.34649990E-05   3.60775716E+18   2.42155657E+07   5.70885761E+08   1.85590915E+08   0.12182208      
  86               6.30957344E+01   1.62554390E+00   2992.31423738    1.46401464E-05   3.93475180E+18   2.10353719E+07   5.74082819E+08   1.74704896E+08   0.12066987      
  87               7.58577575E+01   1.79312223E+00   3027.82400063    1.59102480E-05   4.28948455E+18   1.83005822E+07   5.76839617E+08   1.63724542E+08   0.11963416      
  88               9.12010839E+01   1.97667616E+00   3063.21564648    1.72817091E-05   4.67394710E+18   1.59373541E+07   5.79232893E+08   1.52654704E+08   0.11869413      
  89               1.09647820E+02   2.17754904E+00   3098.50142720    1.87614098E-05   5.09028482E+18   1.38903165E+07   5.81318962E+08   1.41498809E+08   0.11784574      
  90               1.31825674E+02   2.39722599E+00   3133.70055863    2.03569300E-05   5.54086186E+18   1.21157521E+07   5.83142432E+08   1.30257820E+08   0.11709965      
  91               1.58489319E+02   2.63734619E+00   3168.84686987    2.20764806E-05   6.02825655E+18   1.05758591E+07   5.84741870E+08   1.18930784E+08   0.11646093      
  92               1.90546072E+02   2.89971595E+00   3203.97394782    2.39290546E-05   6.55529623E+18   9.23869219E+06   5.86150312E+08   1.07515293E+08   0.11594186      
  93               2.29086765E+02   3.18632124E+00   3239.13140062    2.59242399E-05   7.12503220E+18   8.07511979E+06   5.87397891E+08   9.60079064E+07   0.11552613      
  94               2.75422870E+02   3.49934532E+00   3274.34891012    2.80726938E-05   7.74083277E+18   7.06151042E+06   5.88508539E+08   8.44043575E+07   0.11519328      
  95               3.31131121E+02   3.84119679E+00   3309.66942819    3.03858770E-05   8.40635601E+18   6.17818998E+06   5.89501781E+08   7.26994621E+07   0.11492002      
  96               3.98107171E+02   4.21452831E+00   3345.11284319    3.28766097E-05   9.12565491E+18   5.40643346E+06   5.90395739E+08   6.08874701E+07   0.11469603      
  97               4.78630092E+02   4.62225750E+00   3380.71869795    3.55585111E-05   9.90309489E+18   4.73015761E+06   5.91207264E+08   4.89623076E+07   0.1145084       
  98               5.75439937E+02   5.06759669E+00   3416.50048026    3.84468517E-05   1.07435151E+19   4.13661999E+06   5.91945930E+08   3.69175954E+07   0.11436893      
  99               6.91830971E+02   5.55407971E+00   3452.50681543    4.15575545E-05   1.16520785E+19   3.61541580E+06   5.92619560E+08   2.47467733E+07   0.11427777      
  100              8.31763771E+02   6.08559381E+00   3488.75187878    4.49085706E-05   1.26345191E+19   3.15748224E+06   5.93234534E+08   1.24431585E+07   0.11424082      
  101              1.00000000E+03   6.66641355E+00   3525.28912064    4.85184887E-05   1.36969336E+19   2.94378341E+06   5.93576739E+08   0.00000000E+00   0.11425269      
