# ATMO pressure-temperature profile
# Effective temperature = 1700.0K
# log(g) = 3.5cm/s^2
# M/H = 0.0
# Optical depth grid in band 17 (1.20-1.33microns)
# All parameters in cgs units
#
# Model Level      Optical Depth    Pressure         Temperature      Density          Number Density   Rad Flux         Conv Flux        Radial Extension Adiabatic Gradient
#                                   [Ba]             [K]              [g/cm^3]         [/cm^3]          [ergs/s/cm^2/sr] [ergs/s/cm^2/sr] [cm]             [K/Ba]          
  1                3.00000000E-06   1.00000000E-05   409.20908429     6.92820782E-10   1.77002978E+14   4.73555501E+08   0.00000000E+00   2.19943412E+08   0.29799798      
  2                3.65048058E-06   1.65563932E-05   472.00245489     9.94467057E-10   2.54066447E+14   4.73555501E+08   0.00000000E+00   2.17445598E+08   0.29792816      
  3                4.44200282E-06   2.39631710E-05   503.55445973     1.34916970E-09   3.44686028E+14   4.73555501E+08   0.00000000E+00   2.15423506E+08   0.29782139      
  4                5.40514834E-06   3.26490465E-05   520.84928357     1.77716192E-09   4.54029708E+14   4.73555501E+08   0.00000000E+00   2.13649657E+08   0.29762218      
  5                6.57712968E-06   4.29400648E-05   540.48897919     2.25239290E-09   5.75442179E+14   4.73555501E+08   0.00000000E+00   2.12023087E+08   0.29750752      
  6                8.00322805E-06   5.51847271E-05   552.65253464     2.83096676E-09   7.23256879E+14   4.73555501E+08   0.00000000E+00   2.10489680E+08   0.29726397      
  7                9.73854285E-06   6.97934017E-05   568.92815501     3.47795855E-09   8.88551858E+14   4.73555501E+08   0.00000000E+00   2.09017431E+08   0.29714278      
  8                1.18501205E-05   8.72436694E-05   579.26391224     4.26996583E-09   1.09089585E+15   4.73555501E+08   0.00000000E+00   2.07585481E+08   0.29685756      
  9                1.44195449E-05   1.08105083E-04   594.38776500     5.15634590E-09   1.31735278E+15   4.73555501E+08   0.00000000E+00   2.06179561E+08   0.29706799      
  10               1.75460896E-05   1.33047201E-04   604.24345824     6.24250186E-09   1.59484920E+15   4.73555501E+08   0.00000000E+00   2.04789343E+08   0.29683888      
  11               2.13505531E-05   1.62868603E-04   619.17438017     7.45741243E-09   1.90524237E+15   4.73555501E+08   0.00000000E+00   2.03407193E+08   0.29674356      
  12               2.59799264E-05   1.98522267E-04   628.88408468     8.94955128E-09   2.28646449E+15   4.73555501E+08   0.00000000E+00   2.02027096E+08   0.29649667      
  13               3.16130723E-05   2.41178812E-04   643.57767324     1.06241677E-08   2.71433859E+15   4.73555501E+08   0.00000000E+00   2.00643729E+08   0.29639717      
  14               3.84676354E-05   2.92235645E-04   653.05944393     1.26863565E-08   3.24120361E+15   4.73555501E+08   0.00000000E+00   1.99253013E+08   0.29613233      
  15               4.68084520E-05   3.53368490E-04   667.59450317     1.50059624E-08   3.83390112E+15   4.73555501E+08   0.00000000E+00   1.97851897E+08   0.29602682      
  16               5.69577817E-05   4.26569637E-04   676.97328140     1.78634094E-08   4.56398544E+15   4.73555501E+08   0.00000000E+00   1.96438045E+08   0.29573801      
  17               6.93077586E-05   5.14219606E-04   691.54112965     2.10798789E-08   5.38587731E+15   4.73555501E+08   0.00000000E+00   1.95009692E+08   0.29562678      
  18               8.43355422E-05   6.19143455E-04   700.98420533     2.50390479E-08   6.39747936E+15   4.73555501E+08   0.00000000E+00   1.93565479E+08   0.29531423      
  19               1.02621753E-04   7.44706591E-04   715.75552752     2.94949037E-08   7.53609434E+15   4.73555501E+08   0.00000000E+00   1.92104380E+08   0.29519501      
  20               1.24872905E-04   8.94901625E-04   725.33958775     3.49750220E-08   8.93634146E+15   4.73555501E+08   0.00000000E+00   1.90625602E+08   0.29485534      
  21               1.51948705E-04   1.07447652E-03   740.36096521     4.11405655E-08   1.05118524E+16   4.73555500E+08   0.00000000E+00   1.89128568E+08   0.29472653      
  22               1.84895266E-04   1.28906062E-03   750.07445768     4.87173703E-08   1.24478631E+16   4.73555500E+08   0.00000000E+00   1.87612843E+08   0.29435885      
  23               2.24985526E-04   1.54537545E-03   765.34411056     5.72382668E-08   1.46252434E+16   4.73555500E+08   0.00000000E+00   1.86077912E+08   0.29421846      
  24               2.73768430E-04   1.85160151E-03   775.24599393     6.77042005E-08   1.72995113E+16   4.73555499E+08   0.00000000E+00   1.84522337E+08   0.2938197       
  25               3.33128779E-04   2.21749710E-03   790.92805555     7.94750070E-08   2.03072876E+16   4.73555498E+08   0.00000000E+00   1.82944964E+08   0.29366553      
  26               4.05360046E-04   2.65461929E-03   801.23928401     9.39167411E-08   2.39974918E+16   4.73555497E+08   0.00000000E+00   1.81344978E+08   0.29323165      
  27               4.93252992E-04   3.17661892E-03   817.58471918     1.10137967E-07   2.81422095E+16   4.73555495E+08   0.00000000E+00   1.79721933E+08   0.29306026      
  28               6.00203489E-04   3.79960044E-03   828.55479341     1.29992998E-07   3.32156331E+16   4.73555493E+08   0.00000000E+00   1.78075490E+08   0.29258847      
  29               7.30343727E-04   4.54253423E-03   845.74375074     1.52253043E-07   3.89031933E+16   4.73555491E+08   0.00000000E+00   1.76405524E+08   0.29239436      
  30               8.88701864E-04   5.42759238E-03   857.58019875     1.79406379E-07   4.58414471E+16   4.73555489E+08   0.00000000E+00   1.74712084E+08   0.29187487      
  31               1.08139630E-03   6.48073100E-03   875.94248326     2.09724971E-07   5.35888262E+16   4.73555487E+08   0.00000000E+00   1.72995197E+08   0.29165079      
  32               1.31587206E-03   7.73180439E-03   889.10963001     2.46505194E-07   6.29870667E+16   4.73555485E+08   0.00000000E+00   1.71255216E+08   0.29112608      
  33               1.60118847E-03   9.21531569E-03   909.01616906     2.87366420E-07   7.34284649E+16   4.73555485E+08   0.00000000E+00   1.69492591E+08   0.2912495       
  34               1.94836913E-03   1.09705799E-02   923.78930566     3.36630013E-07   8.60166442E+16   4.73555486E+08   0.00000000E+00   1.67707961E+08   0.29051378      
  35               2.37082789E-03   1.30447096E-02   945.54418024     3.91062475E-07   9.99259827E+16   4.73555487E+08   0.00000000E+00   1.65900219E+08   0.29007635      
  36               2.88488706E-03   1.54935139E-02   962.29457676     4.56388002E-07   1.16618575E+17   4.73555489E+08   0.00000000E+00   1.64067213E+08   0.2891718       
  37               3.51040806E-03   1.83814371E-02   986.14990307     5.28356098E-07   1.35008890E+17   4.73555490E+08   0.00000000E+00   1.62207460E+08   0.28870247      
  38               4.27155881E-03   2.17811245E-02   1005.13756312    6.14248218E-07   1.56956980E+17   4.73555490E+08   0.00000000E+00   1.60320322E+08   0.28773623      
  39               5.19774750E-03   2.57741482E-02   1031.64386945    7.08177303E-07   1.80959071E+17   4.73555491E+08   0.00000000E+00   1.58405806E+08   0.2872243       
  40               6.32475876E-03   3.04495332E-02   1053.65776259    8.19157985E-07   2.09318159E+17   4.73555491E+08   0.00000000E+00   1.56464640E+08   0.28626664      
  41               7.69613634E-03   3.59045073E-02   1083.50477914    9.39298389E-07   2.40018092E+17   4.73555490E+08   0.00000000E+00   1.54498081E+08   0.28574088      
  42               9.36486541E-03   4.22411900E-02   1109.07510645    1.07959272E-06   2.75867809E+17   4.73555489E+08   0.00000000E+00   1.52508185E+08   0.28471597      
  43               1.13954198E-02   4.95683257E-02   1142.86741923    1.22939756E-06   3.14147955E+17   4.73555487E+08   0.00000000E+00   1.50496972E+08   0.28403103      
  44               1.38662528E-02   5.80214183E-02   1172.69549583    1.40244719E-06   3.58367752E+17   4.73555486E+08   0.00000000E+00   1.48461214E+08   0.28273296      
  45               1.68728289E-02   6.77538353E-02   1211.03299382    1.58584514E-06   4.05232014E+17   4.73555485E+08   0.00000000E+00   1.46397511E+08   0.28171803      
  46               2.05313114E-02   7.89205257E-02   1245.69050259    1.79581780E-06   4.58886895E+17   4.73555484E+08   0.00000000E+00   1.44305023E+08   0.27991314      
  47               2.49830512E-02   9.16764269E-02   1289.31979860    2.01548461E-06   5.15018543E+17   4.73555484E+08   0.00000000E+00   1.42184756E+08   0.27865101      
  48               3.04000477E-02   1.06157849E-01   1330.05086109    2.26238796E-06   5.78108959E+17   4.73555485E+08   0.00000000E+00   1.40040195E+08   0.27712889      
  49               3.69915946E-02   1.22482398E-01   1380.69829376    2.51459987E-06   6.42540831E+17   4.73555483E+08   0.00000000E+00   1.37875850E+08   0.27565853      
  50               4.50123658E-02   1.40684381E-01   1434.17309094    2.78078417E-06   7.10509936E+17   4.72540470E+08   1.01566399E+06   1.35699102E+08   0.27316908      
  51               5.47722558E-02   1.60921321E-01   1487.58988678    3.06747693E-06   7.83531051E+17   4.70367447E+08   3.19635894E+06   1.33507840E+08   0.27061738      
  52               6.66483519E-02   1.82902639E-01   1539.75094078    3.36896164E-06   8.60389960E+17   4.67164599E+08   6.38830733E+06   1.31345476E+08   0.26822782      
  53               8.10995048E-02   2.05946375E-01   1589.38371293    3.67619449E-06   9.38536642E+17   4.63049653E+08   1.05022914E+07   1.29274740E+08   0.2661799       
  54               9.86840557E-02   2.28745457E-01   1634.23223981    3.97509603E-06   1.01382861E+18   4.58374569E+08   1.51785864E+07   1.27388518E+08   0.26422096      
  55               1.20081410E-01   2.49695943E-01   1672.40510787    4.23985314E-06   1.08142359E+18   4.53634100E+08   1.99235442E+07   1.25774734E+08   0.26251036      
  56               1.46118284E-01   2.68381523E-01   1704.27669080    4.47604581E-06   1.14061308E+18   4.48963940E+08   2.45965499E+07   1.24418150E+08   0.26101137      
  57               1.77800653E-01   2.83500579E-01   1728.78613845    4.66104005E-06   1.18778686E+18   4.44917543E+08   2.86421820E+07   1.23371417E+08   0.2595485       
  58               2.16352610E-01   3.00748519E-01   1755.42238761    4.86940931E-06   1.24093120E+18   4.40121798E+08   3.34393429E+07   1.22226542E+08   0.25821366      
  59               2.63263667E-01   3.20310976E-01   1784.18021119    5.10230835E-06   1.30034605E+18   4.34321350E+08   3.92416670E+07   1.20985454E+08   0.25694144      
  60               3.20346302E-01   3.42338456E-01   1814.86183997    5.36066308E-06   1.36627448E+18   4.27276571E+08   4.62894822E+07   1.19653550E+08   0.25546491      
  61               3.89805984E-01   3.66885931E-01   1847.18357841    5.64406986E-06   1.43862247E+18   4.18847143E+08   5.47222808E+07   1.18242305E+08   0.25373894      
  62               4.74326391E-01   3.93919192E-01   1880.69988864    5.95134190E-06   1.51709746E+18   4.09292016E+08   6.42781335E+07   1.16767291E+08   0.25170068      
  63               5.77173093E-01   4.23900140E-01   1915.62651790    6.28671428E-06   1.60279714E+18   3.99046171E+08   7.45235899E+07   1.15217306E+08   0.24940595      
  64               7.02319722E-01   4.57611848E-01   1952.38354188    6.65781381E-06   1.69768833E+18   3.87846408E+08   8.57236815E+07   1.13569505E+08   0.24682103      
  65               8.54601502E-01   4.95434397E-01   1990.85103047    7.06735256E-06   1.80249152E+18   3.75258249E+08   9.83106495E+07   1.11825857E+08   0.24385746      
  66               1.03990206E+00   5.37792802E-01   2030.84659800    7.51855811E-06   1.91806670E+18   3.61056552E+08   1.12510249E+08   1.09988274E+08   0.24041681      
  67               1.26538076E+00   5.85166936E-01   2072.20732967    8.01500365E-06   2.04537250E+18   3.45144343E+08   1.28419220E+08   1.08058415E+08   0.23657774      
  68               1.53974930E+00   6.38099747E-01   2114.76893749    8.56074681E-06   2.18550341E+18   3.27523121E+08   1.46036125E+08   1.06037624E+08   0.23236284      
  69               1.87360830E+00   6.97201183E-01   2158.36891880    9.16032070E-06   2.33968977E+18   3.08250228E+08   1.65304257E+08   1.03927093E+08   0.22780092      
  70               2.27985690E+00   7.63155287E-01   2202.84300661    9.81879418E-06   2.50931516E+18   2.87429282E+08   1.86119140E+08   1.01727901E+08   0.22293128      
  71               2.77419111E+00   8.36727439E-01   2248.03301335    1.05417800E-05   2.69592103E+18   2.65198690E+08   2.08342505E+08   9.94410706E+07   0.21774313      
  72               3.37571026E+00   9.18775437E-01   2293.75981180    1.13356349E-05   2.90126418E+18   2.41659783E+08   2.31873963E+08   9.70675363E+07   0.21214358      
  73               4.10765492E+00   1.01011377E+00   2339.74237939    1.22075577E-05   3.12700150E+18   2.17126565E+08   2.56399446E+08   9.46120577E+07   0.20620997      
  74               4.99830483E+00   1.11180962E+00   2385.83894416    1.31631079E-05   3.37532147E+18   1.92465915E+08   2.81052310E+08   9.20750691E+07   0.20028548      
  75               6.08207157E+00   1.22519677E+00   2432.05492199    1.42129538E-05   3.64886926E+18   1.68350541E+08   3.05160153E+08   8.94535560E+07   0.19445483      
  76               7.40082804E+00   1.35156988E+00   2478.25671326    1.53661907E-05   3.95019063E+18   1.45093339E+08   3.28410254E+08   8.67493511E+07   0.18862954      
  77               9.00552635E+00   1.49234456E+00   2524.32500611    1.66325830E-05   4.28202972E+18   1.23340107E+08   3.50156889E+08   8.39646906E+07   0.18305386      
  78               1.09581663E+01   1.64909949E+00   2570.25554585    1.80221863E-05   4.64725380E+18   1.03914160E+08   3.69576818E+08   8.11015103E+07   0.17768498      
  79               1.33341911E+01   1.82355749E+00   2615.92166529    1.95467651E-05   5.04917663E+18   8.72162603E+07   3.86269754E+08   7.81620941E+07   0.17247108      
  80               1.62254019E+01   2.01759835E+00   2661.30010377    2.12182000E-05   5.49119293E+18   7.33048568E+07   4.00177277E+08   7.51489977E+07   0.1676019       
  81               1.97435049E+01   2.23324616E+00   2706.36875827    2.30489863E-05   5.97689277E+18   6.18459992E+07   4.11632860E+08   7.20652665E+07   0.1630373       
  82               2.40244270E+01   2.47267785E+00   2751.09136455    2.50524520E-05   6.51011057E+18   5.23532082E+07   4.21123989E+08   6.89143111E+07   0.15864934      
  83               2.92335681E+01   2.73824456E+00   2795.38704913    2.72433575E-05   7.09506084E+18   4.44721265E+07   4.29004821E+08   6.56996906E+07   0.15465665      
  84               3.55721908E+01   3.03246938E+00   2839.35826057    2.96351521E-05   7.73574367E+18   3.79057171E+07   4.35571998E+08   6.24251014E+07   0.15113754      
  85               4.32851972E+01   3.35805172E+00   2882.98564400    3.22432648E-05   8.43666376E+18   3.23725386E+07   4.41107186E+08   5.90942981E+07   0.14793537      
  86               5.26705906E+01   3.71790985E+00   2926.30545980    3.50834246E-05   9.20248329E+18   2.77050299E+07   4.45778946E+08   5.57107540E+07   0.14502044      
  87               6.40909893E+01   4.11521954E+00   2969.30520468    3.81733143E-05   1.00383887E+19   2.37705197E+07   4.49720777E+08   5.22774758E+07   0.14243532      
  88               7.79876373E+01   4.55340554E+00   3012.06961230    4.15300954E-05   1.09495726E+19   2.04302338E+07   4.53072366E+08   4.87972482E+07   0.14008339      
  89               9.48974517E+01   5.03609986E+00   3054.53809852    4.51739299E-05   1.19419329E+19   1.75702943E+07   4.55949479E+08   4.52730768E+07   0.13794928      
  90               1.15473768E+02   5.56707431E+00   3096.78779383    4.91224500E-05   1.30209122E+19   1.51167677E+07   4.58427707E+08   4.17085683E+07   0.13604845      
  91               1.40511583E+02   6.15048784E+00   3138.78062943    5.33975997E-05   1.41930078E+19   1.30136387E+07   4.60564479E+08   3.81062235E+07   0.13442133      
  92               1.70978268E+02   6.79092638E+00   3180.65263095    5.80196170E-05   1.54645975E+19   1.12095985E+07   4.62412546E+08   3.44675875E+07   0.13299721      
  93               2.08050949E+02   7.49347340E+00   3222.34650969    6.30156607E-05   1.68436718E+19   9.66203706E+06   4.64016047E+08   3.07933021E+07   0.13174771      
  94               2.53161982E+02   8.26379192E+00   3264.00713193    6.84106476E-05   1.83380906E+19   8.33769066E+06   4.65409624E+08   2.70831372E+07   0.1306448       
  95               3.08054300E+02   9.10815095E+00   3305.57521077    7.42378302E-05   1.99576323E+19   7.19825445E+06   4.66632458E+08   2.33363295E+07   0.12969967      
  96               3.74848746E+02   1.00334782E+01   3347.21769579    8.05265296E-05   2.17116781E+19   6.21544524E+06   4.67713355E+08   1.95517136E+07   0.12887508      
  97               4.56126023E+02   1.10474404E+01   3388.85816181    8.73170492E-05   2.36120729E+19   5.36387187E+06   4.68678295E+08   1.57277729E+07   0.12817232      
  98               5.55026396E+02   1.21585186E+01   3430.67538381    9.46441203E-05   2.56700595E+19   4.62683406E+06   4.69543386E+08   1.18627101E+07   0.12757615      
  99               6.75371026E+02   1.33760927E+01   3472.58599929    1.02555971E-04   2.78998648E+19   3.98742894E+06   4.70324362E+08   7.95451477E+06   0.12710232      
  100              8.21809604E+02   1.47105226E+01   3514.78709057    1.11093025E-04   3.03148148E+19   3.43607459E+06   4.71029196E+08   4.00103046E+06   0.12673392      
  101              1.00000000E+03   1.61732479E+01   3557.18416796    1.20312580E-04   3.29318958E+19   3.17788175E+06   4.71408496E+08   0.00000000E+00   0.12646538      
