# ATMO pressure-temperature profile
# Effective temperature = 1500.0K
# log(g) = 4.0cm/s^2
# M/H = 0.0
# Optical depth grid in band 17 (1.20-1.33microns)
# All parameters in cgs units
#
# Model Level      Optical Depth    Pressure         Temperature      Density          Number Density   Rad Flux         Conv Flux        Radial Extension Adiabatic Gradient
#                                   [Ba]             [K]              [g/cm^3]         [/cm^3]          [ergs/s/cm^2/sr] [ergs/s/cm^2/sr] [cm]             [K/Ba]          
  1                1.00000000E-06   1.00000000E-05   392.99630678     7.21003284E-10   1.84305107E+14   2.87036305E+08   0.00000000E+00   6.52790144E+07   0.29757206      
  2                1.23026877E-06   1.93915320E-05   456.57640879     1.20344838E-09   3.07627030E+14   2.87036305E+08   0.00000000E+00   6.42707944E+07   0.29753457      
  3                1.51356125E-06   3.02360185E-05   470.91391066     1.81933177E-09   4.65059930E+14   2.87036305E+08   0.00000000E+00   6.35379035E+07   0.29766069      
  4                1.86208714E-06   4.31985412E-05   495.29513287     2.47134763E-09   6.31729068E+14   2.87036305E+08   0.00000000E+00   6.29265862E+07   0.29769936      
  5                2.29086765E-06   5.87796130E-05   501.83501978     3.31890332E-09   8.48382297E+14   2.87036305E+08   0.00000000E+00   6.23825433E+07   0.29782059      
  6                2.81838293E-06   7.75818387E-05   521.44913597     4.21577057E-09   1.07764063E+15   2.87036305E+08   0.00000000E+00   6.18798843E+07   0.29783997      
  7                3.46736850E-06   1.00309643E-04   526.01499496     5.40347879E-09   1.38124398E+15   2.87036305E+08   0.00000000E+00   6.14036921E+07   0.29887081      
  8                4.26579519E-06   1.27833680E-04   543.88546714     6.65988493E-09   1.70240810E+15   2.87036305E+08   0.00000000E+00   6.09448724E+07   0.29886039      
  9                5.24807460E-06   1.61187152E-04   547.57062180     8.34102121E-09   2.13214199E+15   2.87036305E+08   0.00000000E+00   6.04973672E+07   0.29873812      
  10               6.45654229E-06   2.01642695E-04   564.51112022     1.01213610E-08   2.58723472E+15   2.87036304E+08   0.00000000E+00   6.00570669E+07   0.2987314       
  11               7.94328235E-06   2.50725486E-04   567.61619621     1.25162059E-08   3.19940738E+15   2.87036304E+08   0.00000000E+00   5.96209796E+07   0.29860147      
  12               9.77237221E-06   3.10300792E-04   584.14638123     1.50518593E-08   3.84757446E+15   2.87036304E+08   0.00000000E+00   5.91869345E+07   0.29859693      
  13               1.20226443E-05   3.82607608E-04   587.01163002     1.84686836E-08   4.72098625E+15   2.87036304E+08   0.00000000E+00   5.87532577E+07   0.29845386      
  14               1.47910839E-05   4.70368238E-04   603.61625715     2.20803726E-08   5.64420656E+15   2.87036304E+08   0.00000000E+00   5.83186688E+07   0.29844983      
  15               1.81970086E-05   5.76858000E-04   606.45365155     2.69526115E-08   6.88964975E+15   2.87036304E+08   0.00000000E+00   5.78821487E+07   0.29828928      
  16               2.23872114E-05   7.06056369E-04   623.25961895     3.20995989E-08   8.20533326E+15   2.87036304E+08   0.00000000E+00   5.74429037E+07   0.29828555      
  17               2.75422870E-05   8.62797424E-04   625.98659536     3.90546835E-08   9.98319711E+15   2.87036303E+08   0.00000000E+00   5.70002170E+07   0.29810683      
  18               3.38844156E-05   1.05302685E-03   642.90800901     4.64111517E-08   1.18635987E+16   2.87036303E+08   0.00000000E+00   5.65533991E+07   0.29810538      
  19               4.16869383E-05   1.28394576E-03   645.43661797     5.63670239E-08   1.44085049E+16   2.87036302E+08   0.00000000E+00   5.61019220E+07   0.29790671      
  20               5.12861384E-05   1.56430770E-03   662.49105935     6.69072831E-08   1.71028309E+16   2.87036302E+08   0.00000000E+00   5.56453915E+07   0.29790796      
  21               6.30957344E-05   1.90470171E-03   664.88107227     8.11735548E-08   2.07495576E+16   2.87036301E+08   0.00000000E+00   5.51835021E+07   0.29768783      
  22               7.76247117E-05   2.31797019E-03   682.18228450     9.62810036E-08   2.46112261E+16   2.87036300E+08   0.00000000E+00   5.47160305E+07   0.29769082      
  23               9.54992586E-05   2.81965163E-03   684.43070351     1.16734643E-07   2.98395184E+16   2.87036299E+08   0.00000000E+00   5.42428162E+07   0.29744422      
  24               1.17489755E-04   3.42852221E-03   702.10610549     1.38368303E-07   3.53695926E+16   2.87036298E+08   0.00000000E+00   5.37637376E+07   0.29744911      
  25               1.44543977E-04   4.16729289E-03   704.28515980     1.67663557E-07   4.28579435E+16   2.87036296E+08   0.00000000E+00   5.32787038E+07   0.29717401      
  26               1.77827941E-04   5.06336423E-03   722.37198003     1.98613948E-07   5.07696438E+16   2.87036294E+08   0.00000000E+00   5.27876621E+07   0.29718125      
  27               2.18776162E-04   6.14976059E-03   724.54857046     2.40504484E-07   6.14775490E+16   2.87036291E+08   0.00000000E+00   5.22905872E+07   0.29687236      
  28               2.69153480E-04   7.46608057E-03   743.36713843     2.84590014E-07   7.27470109E+16   2.87036286E+08   0.00000000E+00   5.17874457E+07   0.29687735      
  29               3.31131121E-04   9.05979385E-03   745.89457893     3.44169517E-07   8.79765049E+16   2.87036279E+08   0.00000000E+00   5.12782155E+07   0.29645597      
  30               4.07380278E-04   1.09875798E-02   765.76002182     4.06572732E-07   1.03928628E+17   2.87036270E+08   0.00000000E+00   5.07628641E+07   0.29651616      
  31               5.01187234E-04   1.33183520E-02   768.97488527     4.90759315E-07   1.25448125E+17   2.87036257E+08   0.00000000E+00   5.02410733E+07   0.29607926      
  32               6.16595002E-04   1.61349161E-02   790.26235248     5.78525263E-07   1.47884023E+17   2.87036240E+08   0.00000000E+00   4.97124768E+07   0.29603774      
  33               7.58577575E-04   1.95359511E-02   794.46613659     6.96766873E-07   1.78108649E+17   2.87036218E+08   0.00000000E+00   4.91767959E+07   0.29556314      
  34               9.33254301E-04   2.36386217E-02   817.39505026     8.19435047E-07   2.09467180E+17   2.87036192E+08   0.00000000E+00   4.86338385E+07   0.29554849      
  35               1.14815362E-03   2.85806147E-02   823.11555076     9.83867026E-07   2.51499194E+17   2.87036161E+08   0.00000000E+00   4.80834407E+07   0.29503973      
  36               1.41253754E-03   3.45235486E-02   848.40318341     1.15301466E-06   2.94739933E+17   2.87036127E+08   0.00000000E+00   4.75254647E+07   0.29495608      
  37               1.73780083E-03   4.16546426E-02   856.06700692     1.37872647E-06   3.52436997E+17   2.87036091E+08   0.00000000E+00   4.69598773E+07   0.29424396      
  38               2.13796209E-03   5.01903199E-02   883.93483750     1.60886346E-06   4.11268600E+17   2.87036054E+08   0.00000000E+00   4.63867648E+07   0.29404995      
  39               2.63026799E-03   6.03738667E-02   894.27929360     1.91294884E-06   4.88991890E+17   2.87036020E+08   0.00000000E+00   4.58062836E+07   0.2932575       
  40               3.23593657E-03   7.24859350E-02   925.32892438     2.21959267E-06   5.67392313E+17   2.87035988E+08   0.00000000E+00   4.52184829E+07   0.29304032      
  41               3.98107171E-03   8.68427640E-02   938.75374021     2.62117422E-06   6.70050903E+17   2.87035958E+08   0.00000000E+00   4.46232678E+07   0.2920684       
  42               4.89778819E-03   1.03829001E-01   973.61628455     3.02155635E-06   7.72425648E+17   2.87035925E+08   0.00000000E+00   4.40196888E+07   0.29164914      
  43               6.02559586E-03   1.23864782E-01   991.25748650     3.54044263E-06   9.05080488E+17   2.87035881E+08   0.00000000E+00   4.34071097E+07   0.29041817      
  44               7.41310241E-03   1.47423187E-01   1030.62547477    4.05272516E-06   1.03607397E+18   2.87035816E+08   0.00000000E+00   4.27851764E+07   0.28988023      
  45               9.12010839E-03   1.74984298E-01   1052.95040288    4.70835190E-06   1.20369652E+18   2.87035726E+08   0.00000000E+00   4.21542354E+07   0.28853293      
  46               1.12201845E-02   2.07057789E-01   1097.35460447    5.34578104E-06   1.36669128E+18   2.87035608E+08   0.00000000E+00   4.15149327E+07   0.28783788      
  47               1.38038426E-02   2.44128636E-01   1125.06787097    6.14755782E-06   1.57168620E+18   2.87035479E+08   0.00000000E+00   4.08682732E+07   0.28623982      
  48               1.69824365E-02   2.86815507E-01   1174.68307454    6.91731424E-06   1.76851096E+18   2.87035339E+08   0.00000000E+00   4.02136755E+07   0.28529636      
  49               2.08929613E-02   3.35850321E-01   1207.68502102    7.87852840E-06   2.01427113E+18   2.87035198E+08   0.00000000E+00   3.95494535E+07   0.2833448       
  50               2.57039578E-02   3.92019409E-01   1262.34508616    8.79789576E-06   2.24934108E+18   2.87035060E+08   0.00000000E+00   3.88747925E+07   0.28209598      
  51               3.16227766E-02   4.56046658E-01   1300.36146910    9.93557104E-06   2.54021821E+18   2.87034940E+08   0.00000000E+00   3.81899683E+07   0.27977545      
  52               3.89045145E-02   5.28773320E-01   1359.44609103    1.10192937E-05   2.81730187E+18   2.87034849E+08   0.00000000E+00   3.74949104E+07   0.27847754      
  53               4.78630092E-02   6.10977088E-01   1401.49791168    1.23503539E-05   3.15760869E+18   2.87033801E+08   0.00000000E+00   3.67902561E+07   0.2764032       
  54               5.88843655E-02   7.03784247E-01   1464.34532824    1.36164539E-05   3.48114309E+18   2.86904585E+08   1.56317511E+05   3.60745805E+07   0.27473471      
  55               7.24435960E-02   8.06919127E-01   1512.80205053    1.51138584E-05   3.86343620E+18   2.85348638E+08   1.66826022E+06   3.53556352E+07   0.27222914      
  56               8.91250938E-02   9.18558093E-01   1574.46385090    1.65361334E-05   4.22571082E+18   2.82043806E+08   4.96764292E+06   3.46494377E+07   0.27057078      
  57               1.09647820E-01   1.03303181E+00   1617.38000586    1.81072605E-05   4.62623260E+18   2.77110302E+08   9.89784945E+06   3.39878785E+07   0.26819331      
  58               1.34896288E-01   1.14557293E+00   1670.55012530    1.94554096E-05   4.96694180E+18   2.70441336E+08   1.65622901E+07   3.33882303E+07   0.26686918      
  59               1.65958691E-01   1.24798584E+00   1701.07714711    2.08292048E-05   5.31387689E+18   2.63459091E+08   2.35316769E+07   3.28794697E+07   0.26472334      
  60               2.04173794E-01   1.33888425E+00   1740.96337738    2.18417883E-05   5.57030835E+18   2.56603526E+08   3.03782647E+07   3.24532863E+07   0.26385262      
  61               2.51188643E-01   1.41733170E+00   1759.16960377    2.28822648E-05   5.83565528E+18   2.50796949E+08   3.62475498E+07   3.21023847E+07   0.26202985      
  62               3.09029543E-01   1.50803531E+00   1796.10224816    2.38444361E-05   6.08143814E+18   2.44015551E+08   4.31037627E+07   3.17140717E+07   0.26122906      
  63               3.80189396E-01   1.58251021E+00   1810.57599205    2.48436881E-05   6.33075641E+18   2.38232488E+08   4.88805274E+07   3.14080445E+07   0.2594757       
  64               4.67735141E-01   1.64025645E+00   1835.71026681    2.53969282E-05   6.47192471E+18   2.33185193E+08   5.38797866E+07   3.11781517E+07   0.25932105      
  65               5.75439937E-01   1.70807901E+00   1846.79307541    2.62880365E-05   6.69908608E+18   2.27669433E+08   5.94036196E+07   3.09156666E+07   0.25763805      
  66               7.07945784E-01   1.78723441E+00   1876.75938986    2.70659481E-05   6.89761199E+18   2.21658920E+08   6.54247568E+07   3.06189169E+07   0.25723213      
  67               8.70963590E-01   1.87897010E+00   1892.66341080    2.82154632E-05   7.19071906E+18   2.14592860E+08   7.25015787E+07   3.02869589E+07   0.25511487      
  68               1.07151931E+00   1.98472392E+00   1927.63184552    2.92610217E-05   7.45764750E+18   2.06707891E+08   8.03900041E+07   2.99189074E+07   0.25441863      
  69               1.31825674E+00   2.10497756E+00   1948.16883943    3.07056563E-05   7.82612388E+18   1.97572562E+08   8.95065923E+07   2.95177225E+07   0.25186473      
  70               1.62181010E+00   2.24187967E+00   1987.71669535    3.20489006E-05   8.16927758E+18   1.88339341E+08   9.87209940E+07   2.90813117E+07   0.25085133      
  71               1.99526231E+00   2.39843381E+00   2013.02368743    3.38536601E-05   8.62987872E+18   1.78539918E+08   1.08514997E+08   2.86060250E+07   0.2475966       
  72               2.45470892E+00   2.57681626E+00   2057.45909778    3.55806676E-05   9.07147861E+18   1.68346542E+08   1.18703543E+08   2.80920476E+07   0.24619384      
  73               3.01995172E+00   2.77929479E+00   2087.42788814    3.78214205E-05   9.64381725E+18   1.57134091E+08   1.29910771E+08   2.75400924E+07   0.2422522       
  74               3.71535229E+00   3.00853635E+00   2136.15455235    3.99980203E-05   1.02011335E+19   1.45632675E+08   1.41407021E+08   2.69506953E+07   0.24046085      
  75               4.57088190E+00   3.26732177E+00   2170.25344026    4.27486492E-05   1.09045386E+19   1.33102668E+08   1.53931562E+08   2.63248591E+07   0.23583394      
  76               5.62341325E+00   3.55898788E+00   2222.52541641    4.54541666E-05   1.15986011E+19   1.20846393E+08   1.66184712E+08   2.56631882E+07   0.23371039      
  77               6.91830971E+00   3.88703185E+00   2260.18155607    4.88038459E-05   1.24566314E+19   1.07766630E+08   1.79262279E+08   2.49666896E+07   0.22814805      
  78               8.51138038E+00   4.25571907E+00   2315.08332619    5.21402434E-05   1.33147239E+19   9.57953793E+07   1.91230158E+08   2.42358028E+07   0.22557578      
  79               1.04712855E+01   4.66907261E+00   2355.62902473    5.62038790E-05   1.43565329E+19   8.31989791E+07   2.03824639E+08   2.34722001E+07   0.2192636       
  80               1.28824955E+01   5.13244214E+00   2412.17489571    6.02928584E-05   1.54113651E+19   7.29213886E+07   2.14096924E+08   2.26761899E+07   0.21653441      
  81               1.58489319E+01   5.65156859E+00   2455.10768608    6.51949261E-05   1.66734049E+19   6.23406257E+07   2.24673874E+08   2.18481767E+07   0.20978761      
  82               1.94984460E+01   6.23313819E+00   2512.55576217    7.01972164E-05   1.79687094E+19   5.44230416E+07   2.32583752E+08   2.09884832E+07   0.2070476       
  83               2.39883292E+01   6.88390865E+00   2557.47693367    7.61089047E-05   1.94961659E+19   4.59646433E+07   2.41037262E+08   2.00981447E+07   0.20018582      
  84               2.95120923E+01   7.61218811E+00   2615.14873698    8.22119489E-05   2.10833179E+19   4.02784006E+07   2.46714246E+08   1.91774345E+07   0.19750151      
  85               3.63078055E+01   8.42628318E+00   2661.68264310    8.93289120E-05   2.29300825E+19   3.39459453E+07   2.53042507E+08   1.82274475E+07   0.19075971      
  86               4.46683592E+01   9.33635112E+00   2719.03064445    9.67561697E-05   2.48707518E+19   2.98368551E+07   2.57140984E+08   1.72485223E+07   0.18820116      
  87               5.49540874E+01   1.03522069E+01   2766.84026020    1.05306414E-04   2.71003372E+19   2.50882021E+07   2.61883142E+08   1.62421184E+07   0.18165147      
  88               6.76082975E+01   1.14858283E+01   2823.33893473    1.14316391E-04   2.94662685E+19   2.19963554E+07   2.64962096E+08   1.52088864E+07   0.1793713       
  89               8.31763771E+01   1.27485662E+01   2872.14972270    1.24552076E-04   3.21499355E+19   1.85135695E+07   2.68438390E+08   1.41506291E+07   0.17361642      
  90               1.02329299E+02   1.41542228E+01   2927.63315149    1.35418478E-04   3.50183122E+19   1.61526136E+07   2.70789485E+08   1.30682577E+07   0.17155859      
  91               1.25892541E+02   1.57159215E+01   2977.14754383    1.47616704E-04   3.82353732E+19   1.36322362E+07   2.73307901E+08   1.19636732E+07   0.16655963      
  92               1.54881662E+02   1.74496982E+01   3031.51235388    1.60641568E-04   4.16921620E+19   1.18585551E+07   2.75080991E+08   1.08377528E+07   0.16469108      
  93               1.90546072E+02   1.93697634E+01   3081.43961677    1.75103704E-04   4.55298788E+19   1.00252628E+07   2.76924976E+08   9.69290400E+06   0.16032296      
  94               2.34422882E+02   2.14929053E+01   3134.52306330    1.90599165E-04   4.96648920E+19   8.66374541E+06   2.78307630E+08   8.53070231E+06   0.15858819      
  95               2.88403150E+02   2.38352978E+01   3184.51610949    2.07630713E-04   5.42129415E+19   7.32381660E+06   2.79687327E+08   7.35319867E+06   0.15506791      
  96               3.54813389E+02   2.64170302E+01   3236.42294400    2.25922074E-04   5.91213797E+19   6.28186316E+06   2.80788992E+08   6.16114425E+06   0.15342479      
  97               4.36515832E+02   2.92582855E+01   3286.27505276    2.45888974E-04   6.44867966E+19   5.30483692E+06   2.81849130E+08   4.95563606E+06   0.15054641      
  98               5.37031796E+02   3.23836226E+01   3337.19057705    2.67379869E-04   7.02862319E+19   4.53127049E+06   2.82732968E+08   3.73672421E+06   0.14899348      
  99               6.60693448E+02   3.58184334E+01   3386.84426321    2.90737456E-04   7.66014869E+19   3.83805405E+06   2.83562133E+08   2.50476463E+06   0.14671958      
  100              8.12830516E+02   3.95929441E+01   3437.07891902    3.15922126E-04   8.34361261E+19   3.27116413E+06   2.84292944E+08   1.25930728E+06   0.14520627      
  101              1.00000000E+03   4.37397623E+01   3486.54810509    3.43243867E-04   9.08670850E+19   2.98537208E+06   2.84686849E+08   0.00000000E+00   0.1434567       
