# ATMO pressure-temperature profile
# Effective temperature = 1100.0K
# log(g) = 5.5cm/s^2
# M/H = 0.0
# Optical depth grid in band 17 (1.20-1.33microns)
# All parameters in cgs units
#
# Model Level      Optical Depth    Pressure         Temperature      Density          Number Density   Rad Flux         Conv Flux        Radial Extension Adiabatic Gradient
#                                   [Ba]             [K]              [g/cm^3]         [/cm^3]          [ergs/s/cm^2/sr] [ergs/s/cm^2/sr] [cm]             [K/Ba]          
  1                8.00000000E-07   1.00000000E-05   314.17517676     9.01814482E-10   2.30544078E+14   8.30127812E+07   0.00000000E+00   1.89343801E+06   0.30211573      
  2                9.86413681E-07   8.65431946E-05   340.41180749     7.20310537E-09   1.84142547E+15   8.30127812E+07   0.00000000E+00   1.79846759E+06   0.29974813      
  3                1.21626494E-06   1.76986595E-04   359.98854678     1.39297304E-08   3.56104556E+15   8.30127812E+07   0.00000000E+00   1.76991499E+06   0.30119873      
  4                1.49967547E-06   2.86128449E-04   364.34890041     2.22502706E-08   5.68812873E+15   8.30127812E+07   0.00000000E+00   1.75031065E+06   0.30080909      
  5                1.84912550E-06   4.18581205E-04   378.24535232     3.13543085E-08   8.01552482E+15   8.30127812E+07   0.00000000E+00   1.73445278E+06   0.30074672      
  6                2.28000336E-06   5.79508806E-04   381.19278867     4.30734975E-08   1.10113661E+16   8.30127812E+07   0.00000000E+00   1.72060509E+06   0.30049788      
  7                2.81128314E-06   7.75333450E-04   393.57973222     5.58148943E-08   1.42686089E+16   8.30127812E+07   0.00000000E+00   1.70797556E+06   0.30045915      
  8                3.46636019E-06   1.01364897E-03   396.22470867     7.24837691E-08   1.85298485E+16   8.30127812E+07   0.00000000E+00   1.69612724E+06   0.30027147      
  9                4.27408139E-06   1.30390522E-03   407.83092259     9.05858163E-08   2.31575021E+16   8.30127812E+07   0.00000000E+00   1.68479981E+06   0.30024048      
  10               5.27001545E-06   1.65742938E-03   410.23410206     1.14471664E-07   2.92636917E+16   8.30127812E+07   0.00000000E+00   1.67382139E+06   0.30009515      
  11               6.49801917E-06   2.08822545E-03   421.35852622     1.40416988E-07   3.58964447E+16   8.30127812E+07   0.00000000E+00   1.66307623E+06   0.30007024      
  12               8.01216876E-06   2.61324072E-03   423.57956422     1.74802124E-07   4.46858740E+16   8.30127812E+07   0.00000000E+00   1.65247906E+06   0.29995276      
  13               9.87914110E-06   3.25338276E-03   434.44730471     2.12177902E-07   5.42405261E+16   8.30127812E+07   0.00000000E+00   1.64196785E+06   0.29993354      
  14               1.21811499E-05   4.03388456E-03   436.68279452     2.61733793E-07   6.69087975E+16   8.30127812E+07   0.00000000E+00   1.63149430E+06   0.29983845      
  15               1.50195662E-05   4.98560334E-03   447.62455794     3.15578101E-07   8.06732694E+16   8.30127812E+07   0.00000000E+00   1.62102240E+06   0.29982458      
  16               1.85193820E-05   6.14563535E-03   450.17221294     3.86804362E-07   9.88812489E+16   8.30127812E+07   0.00000000E+00   1.61052284E+06   0.29975713      
  17               2.28347147E-05   7.55938419E-03   461.39944988     4.64208730E-07   1.18668427E+17   8.30127812E+07   0.00000000E+00   1.59997241E+06   0.29972808      
  18               2.81555937E-05   9.28143212E-03   464.35507285     5.66364424E-07   1.44774021E+17   8.30127812E+07   0.00000000E+00   1.58935192E+06   0.29967055      
  19               3.47163285E-05   1.13798132E-02   475.21100824     6.78546439E-07   1.73450070E+17   8.30127812E+07   0.00000000E+00   1.57864791E+06   0.29964372      
  20               4.28058268E-05   1.39358079E-02   478.31509403     8.25561295E-07   2.11029858E+17   8.30127812E+07   0.00000000E+00   1.56784861E+06   0.29959061      
  21               5.27803164E-05   1.70482881E-02   489.49985016     9.86868408E-07   2.52263288E+17   8.30127812E+07   0.00000000E+00   1.55694420E+06   0.29963689      
  22               6.50790328E-05   2.08368111E-02   492.74125955     1.19823965E-06   3.06293771E+17   8.30127812E+07   0.00000000E+00   1.54592707E+06   0.29959635      
  23               8.02435604E-05   2.54461280E-02   504.24315586     1.42992363E-06   3.65516962E+17   8.30127812E+07   0.00000000E+00   1.53479161E+06   0.29948954      
  24               9.89416822E-05   3.10505588E-02   507.84735974     1.73247783E-06   4.42855518E+17   8.30127812E+07   0.00000000E+00   1.52353153E+06   0.29938524      
  25               1.21996786E-04   3.78612952E-02   520.01086864     2.06307155E-06   5.27362065E+17   8.30127812E+07   0.00000000E+00   1.51213945E+06   0.29938647      
  26               1.50424124E-04   4.61319378E-02   524.31336994     2.49311491E-06   6.37289268E+17   8.30127812E+07   0.00000000E+00   1.50060728E+06   0.29938667      
  27               1.85475517E-04   5.61666046E-02   537.56182400     2.96060886E-06   7.56790359E+17   8.30127812E+07   0.00000000E+00   1.48892733E+06   0.29936731      
  28               2.28694484E-04   6.83293160E-02   542.95348946     3.56595587E-06   9.11528568E+17   8.30127812E+07   0.00000000E+00   1.47709005E+06   0.29930273      
  29               2.81984210E-04   8.30558160E-02   557.43049028     4.22192562E-06   1.07920803E+18   8.30127812E+07   0.00000000E+00   1.46508797E+06   0.29925987      
  30               3.47691354E-04   1.00862273E-01   563.89931597     5.06825694E-06   1.29554655E+18   8.30127812E+07   0.00000000E+00   1.45291511E+06   0.29918599      
  31               4.28709385E-04   1.22368824E-01   579.53607684     5.98303405E-06   1.52938262E+18   8.30127812E+07   0.00000000E+00   1.44056471E+06   0.29912085      
  32               5.28606003E-04   1.48306942E-01   587.31260527     7.15522774E-06   1.82901807E+18   8.30127812E+07   0.00000000E+00   1.42802851E+06   0.29902225      
  33               6.51780242E-04   1.79541956E-01   604.44197543     8.41671004E-06   2.15147932E+18   8.30127812E+07   0.00000000E+00   1.41530055E+06   0.29895111      
  34               8.03656185E-04   2.17074746E-01   613.92513295     1.00190144E-05   2.56105985E+18   8.30127812E+07   0.00000000E+00   1.40237565E+06   0.29884563      
  35               9.90921819E-04   2.62101232E-01   632.87980015     1.17348799E-05   2.99967129E+18   8.30127812E+07   0.00000000E+00   1.38924410E+06   0.29871491      
  36               1.22182355E-03   3.16045681E-01   644.40749841     1.38969700E-05   3.55234481E+18   8.30127811E+07   0.00000000E+00   1.37588591E+06   0.29853534      
  37               1.50652933E-03   3.80596189E-01   665.50728275     1.62047449E-05   4.14226102E+18   8.30127811E+07   0.00000000E+00   1.36228342E+06   0.29840203      
  38               1.85757643E-03   4.57690208E-01   679.39655252     1.90888089E-05   4.87948652E+18   8.30127811E+07   0.00000000E+00   1.34842192E+06   0.29822563      
  39               2.29042351E-03   5.49630666E-01   702.90195755     2.21567783E-05   5.66372349E+18   8.30127811E+07   0.00000000E+00   1.33428470E+06   0.29800727      
  40               2.82413135E-03   6.58999859E-01   719.53156051     2.59516988E-05   6.63378380E+18   8.30127810E+07   0.00000000E+00   1.31986160E+06   0.29768574      
  41               3.48220225E-03   7.88750685E-01   745.72365448     2.99704155E-05   7.66103894E+18   8.30127811E+07   0.00000000E+00   1.30514928E+06   0.29732914      
  42               4.29361493E-03   9.42142953E-01   765.45066202     3.48762961E-05   8.91508403E+18   8.30127810E+07   0.00000000E+00   1.29014580E+06   0.29690287      
  43               5.29410063E-03   1.12333462E+00   794.83841488     4.00463877E-05   1.02366095E+19   8.30127810E+07   0.00000000E+00   1.27481405E+06   0.29648275      
  44               6.52771662E-03   1.33699357E+00   818.26397636     4.62989848E-05   1.18348219E+19   8.30127809E+07   0.00000000E+00   1.25912292E+06   0.29595744      
  45               8.04878622E-03   1.58829245E+00   851.27005107     5.28686840E-05   1.35141569E+19   8.30127809E+07   0.00000000E+00   1.24306070E+06   0.29533566      
  46               9.92429106E-03   1.88271235E+00   878.62043198     6.07180762E-05   1.55206002E+19   8.30127808E+07   0.00000000E+00   1.22662800E+06   0.29456082      
  47               1.22368206E-02   2.22672981E+00   915.35593434     6.89307559E-05   1.76198969E+19   8.30127808E+07   0.00000000E+00   1.20981230E+06   0.29374329      
  48               1.50882091E-02   2.62705876E+00   946.59702089     7.86395521E-05   2.01015938E+19   8.30127808E+07   0.00000000E+00   1.19261778E+06   0.29284014      
  49               1.86040198E-02   3.09188011E+00   986.90289719     8.87745897E-05   2.26920672E+19   8.30127806E+07   0.00000000E+00   1.17502551E+06   0.29183842      
  50               2.29390746E-02   3.63001100E+00   1021.59070897    1.00689006E-04   2.57369362E+19   8.30127808E+07   0.00000000E+00   1.15702630E+06   0.29068367      
  51               2.82842712E-02   4.25253209E+00   1064.77862237    1.13171791E-04   2.89277141E+19   8.30127805E+07   0.00000000E+00   1.13858490E+06   0.28942727      
  52               3.48749902E-02   4.97203222E+00   1101.97365431    1.27853230E-04   3.26804902E+19   8.30127807E+07   0.00000000E+00   1.11966991E+06   0.28806714      
  53               4.30014593E-02   5.80226631E+00   1147.23231360    1.43315916E-04   3.66329697E+19   8.30127805E+07   0.00000000E+00   1.10027457E+06   0.286639        
  54               5.30215347E-02   6.75915045E+00   1186.14531530    1.61475128E-04   4.12743322E+19   8.30127807E+07   0.00000000E+00   1.08038344E+06   0.28514659      
  55               6.53764590E-02   7.86167355E+00   1233.02837925    1.80678608E-04   4.61814722E+19   8.30127805E+07   0.00000000E+00   1.05997161E+06   0.28360711      
  56               8.06102920E-02   9.13486920E+00   1273.55363254    2.03275681E-04   5.19530363E+19   8.30127807E+07   0.00000000E+00   1.03896287E+06   0.28202848      
  57               9.93938685E-02   1.06104721E+01   1322.28665735    2.27441346E-04   5.81212479E+19   8.30127805E+07   0.00000000E+00   1.01726106E+06   0.28039776      
  58               1.22554340E-01   1.23326060E+01   1364.47825311    2.56195113E-04   6.54657397E+19   8.30127809E+07   0.00000000E+00   9.94700425E+05   0.27876473      
  59               1.51111597E-01   1.43663228E+01   1414.77925766    2.87825289E-04   7.35500166E+19   8.30127803E+07   0.00000000E+00   9.71016806E+05   0.27709639      
  60               1.86323183E-01   1.67768816E+01   1458.06673064    3.26124073E-04   8.33411862E+19   8.30127817E+07   0.00000000E+00   9.46135930E+05   0.2753775       
  61               2.29739671E-01   1.96341110E+01   1509.31697134    3.68683365E-04   9.42229346E+19   8.30127800E+07   0.00000000E+00   9.20078424E+05   0.27356299      
  62               2.83272943E-01   2.29822576E+01   1553.09379799    4.19374794E-04   1.07181750E+20   8.30127815E+07   0.00000000E+00   8.93151972E+05   0.27173587      
  63               3.49280383E-01   2.68406535E+01   1605.07995259    4.73938582E-04   1.21121783E+20   8.30127808E+07   0.00000000E+00   8.65783123E+05   0.26979726      
  64               4.30668686E-01   3.12009105E+01   1649.75843492    5.35990724E-04   1.36984917E+20   8.30127800E+07   0.00000000E+00   8.38425715E+05   0.26782458      
  65               5.31021855E-01   3.60354421E+01   1703.33684503    5.99795498E-04   1.53234005E+20   8.30127819E+07   0.00000000E+00   8.11460516E+05   0.26558628      
  66               6.54759028E-01   4.13051169E+01   1750.57168257    6.68953369E-04   1.70903043E+20   8.30127810E+07   0.00000000E+00   7.85152593E+05   0.26396189      
  67               8.07329079E-01   4.69061473E+01   1808.10608803    7.35587920E-04   1.87902126E+20   8.30112319E+07   0.00000000E+00   7.59902519E+05   0.26175857      
  68               9.95450561E-01   5.25218508E+01   1863.58083154    7.99489326E-04   2.04135072E+20   7.78948492E+07   5.11789443E+06   7.36744651E+05   0.26035304      
  69               1.22740757E+00   5.78085757E+01   1909.21271038    8.59960468E-04   2.19312705E+20   7.07220167E+07   1.22910549E+07   7.16580427E+05   0.25834169      
  70               1.51341452E+00   6.25693715E+01   1949.79065777    9.11377792E-04   2.32433995E+20   6.38343080E+07   1.91793666E+07   6.99574827E+05   0.25732772      
  71               1.86606598E+00   6.79348358E+01   1990.18404820    9.69399722E-04   2.47243640E+20   5.65171829E+07   2.65020148E+07   6.81523575E+05   0.25554069      
  72               2.30089127E+00   7.24066101E+01   2023.92145821    1.01626794E-03   2.59125647E+20   4.84400670E+07   3.46066618E+07   6.67275842E+05   0.2547832       
  73               2.83703828E+00   7.58369827E+01   2046.77035067    1.05250970E-03   2.68372349E+20   4.23920270E+07   4.07034886E+07   6.56787078E+05   0.25313618      
  74               3.49811672E+00   7.98336053E+01   2074.57286037    1.09309657E-03   2.78729471E+20   3.84724509E+07   4.46662687E+07   6.45004206E+05   0.25256906      
  75               4.31323774E+00   8.44628703E+01   2103.22475850    1.14069209E-03   2.90874728E+20   3.49655069E+07   4.82239212E+07   6.31894321E+05   0.25122789      
  76               5.31829590E+00   8.97919596E+01   2136.75387161    1.19354236E-03   3.04374867E+20   3.02884722E+07   5.29064467E+07   6.17451556E+05   0.25105628      
  77               6.55754979E+00   9.38109105E+01   2159.38904372    1.23496305E-03   3.14664897E+20   2.49676309E+07   5.81275291E+07   6.06982189E+05   0.24978482      
  78               8.08557104E+00   9.67570895E+01   2177.00277872    1.26341211E-03   3.21921255E+20   2.18560635E+07   6.11511364E+07   5.99523547E+05   0.24967226      
  79               9.96964736E+00   1.00263141E+02   2195.55100067    1.29810002E-03   3.30768097E+20   2.04500646E+07   6.25553035E+07   5.90866061E+05   0.24832217      
  80               1.22927457E+01   1.04415780E+02   2218.57666710    1.33778803E-03   3.40892569E+20   1.95278189E+07   6.34754428E+07   5.80901076E+05   0.2479611       
  81               1.51571657E+01   1.09309790E+02   2243.08958224    1.38513392E-03   3.52970394E+20   1.84591564E+07   6.45418118E+07   5.69531990E+05   0.24635589      
  82               1.86890445E+01   1.15049480E+02   2272.22192565    1.43910306E-03   3.66741243E+20   1.75093061E+07   6.54891544E+07   5.56676253E+05   0.24576082      
  83               2.30439114E+01   1.21747981E+02   2303.29232704    1.50226095E-03   3.82858723E+20   1.63375817E+07   6.66582391E+07   5.42269723E+05   0.24379734      
  84               2.84135369E+01   1.29529154E+02   2338.84970304    1.57402061E-03   4.01135460E+20   1.52619502E+07   6.77310768E+07   5.26267452E+05   0.24255446      
  85               3.50343769E+01   1.38529293E+02   2376.57578916    1.65652998E-03   4.22197629E+20   1.40948095E+07   6.88954477E+07   5.08641806E+05   0.24061622      
  86               4.31979859E+01   1.48899820E+02   2418.61199658    1.74941329E-03   4.45916776E+20   1.30140695E+07   6.99734567E+07   4.89377388E+05   0.23896776      
  87               5.32638553E+01   1.60807922E+02   2462.79811118    1.85519981E-03   4.72938280E+20   1.18766510E+07   7.11082100E+07   4.68474706E+05   0.23684866      
  88               6.56752445E+01   1.74441428E+02   2511.02503298    1.97353985E-03   5.03181227E+20   1.08031803E+07   7.21793447E+07   4.45943181E+05   0.23484651      
  89               8.09786996E+01   1.90018401E+02   2561.25381030    2.10724401E-03   5.37364387E+20   9.72487236E+06   7.32560533E+07   4.21788336E+05   0.23249205      
  90               9.98481215E+01   2.07794779E+02   2615.27370883    2.25630100E-03   5.75497343E+20   8.72563608E+06   7.42543476E+07   3.96007958E+05   0.23019896      
  91               1.23114441E+02   2.28068371E+02   2671.16394735    2.42402417E-03   6.18429726E+20   7.75065049E+06   7.52292086E+07   3.68594368E+05   0.22754821      
  92               1.51802212E+02   2.51189783E+02   2730.61125395    2.61087099E-03   6.66297117E+20   6.87574088E+06   7.61048764E+07   3.39530338E+05   0.2249971       
  93               1.87174723E+02   2.77570800E+02   2791.86837265    2.82080576E-03   7.20119677E+20   6.07790150E+06   7.69045315E+07   3.08789530E+05   0.22212323      
  94               2.30789634E+02   3.07695049E+02   2856.49338607    3.05495338E-03   7.80212898E+20   5.38274254E+06   7.76027319E+07   2.76338316E+05   0.21933335      
  95               2.84567566E+02   3.42126350E+02   2922.89602831    3.31808903E-03   8.47810901E+20   4.74424904E+06   7.82459107E+07   2.42139495E+05   0.21651383      
  96               3.50876675E+02   3.81525820E+02   2992.65402111    3.61197376E-03   9.23407214E+20   4.16459796E+06   7.88316848E+07   2.06149748E+05   0.21355984      
  97               4.32636941E+02   4.26657890E+02   3064.02610906    3.94272438E-03   1.00858652E+21   3.61927746E+06   7.93837527E+07   1.68329887E+05   0.21045177      
  98               5.33448747E+02   4.78284510E+02   3138.44913468    4.31192490E-03   1.10381696E+21   3.11546642E+06   7.98974765E+07   1.28734389E+05   0.20739393      
  99               6.57751428E+02   5.37264343E+02   3214.06332261    4.72597418E-03   1.21076380E+21   2.64904850E+06   8.03762673E+07   8.74174075E+04   0.20439556      
  100              8.11018759E+02   6.04567224E+02   3292.41182700    5.18681376E-03   1.33001422E+21   2.26048036E+06   8.07773790E+07   4.44296572E+04   0.20148366      
  101              1.00000000E+03   6.80960541E+02   3371.27392673    5.70005128E-03   1.46303173E+21   2.07477198E+06   8.09717540E+07   0.00000000E+00   0.19892351      
