# ATMO pressure-temperature profile
# Effective temperature = 1800.0K
# log(g) = 5.0cm/s^2
# M/H = 0.0
# Optical depth grid in band 17 (1.20-1.33microns)
# All parameters in cgs units
#
# Model Level      Optical Depth    Pressure         Temperature      Density          Number Density   Rad Flux         Conv Flux        Radial Extension Adiabatic Gradient
#                                   [Ba]             [K]              [g/cm^3]         [/cm^3]          [ergs/s/cm^2/sr] [ergs/s/cm^2/sr] [cm]             [K/Ba]          
  1                1.00000000E-07   1.00000000E-05   534.64807950     5.29931593E-10   1.35474585E+14   5.95204229E+08   0.00000000E+00   8.07723149E+06   0.29800689      
  2                1.25892541E-07   1.87429660E-05   565.81066830     9.38530102E-10   2.39934680E+14   5.95204229E+08   0.00000000E+00   7.95325913E+06   0.29796305      
  3                1.58489319E-07   2.93886856E-05   582.18047937     1.43021375E-09   3.65635507E+14   5.95204229E+08   0.00000000E+00   7.86137287E+06   0.29785533      
  4                1.99526231E-07   4.25097631E-05   596.00258267     2.02076311E-09   5.16614251E+14   5.95204229E+08   0.00000000E+00   7.78419169E+06   0.2978101       
  5                2.51188643E-07   5.87249882E-05   608.30364155     2.73512084E-09   6.99243377E+14   5.95204229E+08   0.00000000E+00   7.71521898E+06   0.29765145      
  6                3.16227766E-07   7.87891547E-05   620.07714631     3.59990940E-09   9.20336307E+14   5.95204229E+08   0.00000000E+00   7.65127684E+06   0.29760214      
  7                3.98107171E-07   1.03638645E-04   631.10724478     4.65250188E-09   1.18944510E+15   5.95204229E+08   0.00000000E+00   7.59055731E+06   0.29739551      
  8                5.01187234E-07   1.34446096E-04   642.01121445     5.93297331E-09   1.51681083E+15   5.95204229E+08   0.00000000E+00   7.53191965E+06   0.2975612       
  9                6.30957344E-07   1.72663620E-04   652.51409732     7.49678720E-09   1.91662339E+15   5.95204229E+08   0.00000000E+00   7.47461514E+06   0.29735221      
  10               7.94328235E-07   2.20089520E-04   663.13384609     9.40283882E-09   2.40394213E+15   5.95204230E+08   0.00000000E+00   7.41812814E+06   0.29730924      
  11               1.00000000E-06   2.78948322E-04   673.56317379     1.17328577E-08   2.99965465E+15   5.95204230E+08   0.00000000E+00   7.36209048E+06   0.29708273      
  12               1.25892541E-06   3.51990512E-04   684.26549450     1.45734166E-08   3.72590825E+15   5.95204230E+08   0.00000000E+00   7.30623173E+06   0.29703539      
  13               1.58489319E-06   4.42614760E-04   694.87443615     1.80456401E-08   4.61365799E+15   5.95204230E+08   0.00000000E+00   7.25034900E+06   0.29678662      
  14               1.99526231E-06   5.55020473E-04   705.79719600     2.22781253E-08   5.69580240E+15   5.95204230E+08   0.00000000E+00   7.19428774E+06   0.29673173      
  15               2.51188643E-06   6.94393309E-04   716.62554874     2.74511621E-08   7.01841557E+15   5.95204230E+08   0.00000000E+00   7.13792936E+06   0.29645631      
  16               3.16227766E-06   8.67136656E-04   727.75929469     3.37554886E-08   8.63029466E+15   5.95204231E+08   0.00000000E+00   7.08118159E+06   0.29639367      
  17               3.98107171E-06   1.08114759E-03   738.80136710     4.14572281E-08   1.05994451E+16   5.95204231E+08   0.00000000E+00   7.02397269E+06   0.2960906       
  18               5.01187234E-06   1.34616190E-03   750.14589034     5.08384128E-08   1.29980259E+16   5.95204232E+08   0.00000000E+00   6.96624645E+06   0.29601798      
  19               6.30957344E-06   1.67418471E-03   761.41915623     6.22900913E-08   1.59259524E+16   5.95204232E+08   0.00000000E+00   6.90795584E+06   0.29568317      
  20               7.94328235E-06   2.08024311E-03   772.99229768     7.62388068E-08   1.94923753E+16   5.95204233E+08   0.00000000E+00   6.84903201E+06   0.29559977      
  21               1.00000000E-05   2.58296636E-03   784.47101029     9.32779514E-08   2.38488636E+16   5.95204234E+08   0.00000000E+00   6.78941756E+06   0.295234        
  22               1.25892541E-05   3.20541078E-03   796.18741329     1.14052203E-07   2.91604502E+16   5.95204235E+08   0.00000000E+00   6.72907007E+06   0.29514025      
  23               1.58489319E-05   3.97607482E-03   807.79082419     1.39441621E-07   3.56518009E+16   5.95204236E+08   0.00000000E+00   6.66795938E+06   0.29474193      
  24               1.99526231E-05   4.93019234E-03   819.55938822     1.70419292E-07   4.35721783E+16   5.95204238E+08   0.00000000E+00   6.60606570E+06   0.29463891      
  25               2.51188643E-05   6.11123491E-03   831.16110409     2.08297023E-07   5.32561303E+16   5.95204240E+08   0.00000000E+00   6.54338052E+06   0.29421038      
  26               3.16227766E-05   7.57286029E-03   842.99514798     2.54491304E-07   6.50669889E+16   5.95204242E+08   0.00000000E+00   6.47989742E+06   0.29409953      
  27               3.98107171E-05   9.38101922E-03   854.70685909     3.10942238E-07   7.94984528E+16   5.95204245E+08   0.00000000E+00   6.41561966E+06   0.29363697      
  28               5.01187234E-05   1.16169042E-02   866.68268196     3.79731423E-07   9.70858930E+16   5.95204249E+08   0.00000000E+00   6.35055108E+06   0.29351637      
  29               6.30957344E-05   1.43804470E-02   878.68394633     4.63645335E-07   1.18540167E+17   5.95204254E+08   0.00000000E+00   6.28468907E+06   0.29320398      
  30               7.94328235E-05   1.77935582E-02   891.17009296     5.65650000E-07   1.44619894E+17   5.95204260E+08   0.00000000E+00   6.21804161E+06   0.29309929      
  31               1.00000000E-04   2.20048858E-02   903.75997875     6.89781482E-07   1.76356655E+17   5.95204267E+08   0.00000000E+00   6.15062151E+06   0.29257427      
  32               1.25892541E-04   2.71951298E-02   916.97524561     8.40191588E-07   2.14812408E+17   5.95204275E+08   0.00000000E+00   6.08244373E+06   0.29239382      
  33               1.58489319E-04   3.35844551E-02   930.58641127     1.02241224E-06   2.61401117E+17   5.95204285E+08   0.00000000E+00   6.01350666E+06   0.29182038      
  34               1.99526231E-04   4.14446053E-02   944.95871954     1.24250621E-06   3.17673517E+17   5.95204297E+08   0.00000000E+00   5.94376881E+06   0.29158697      
  35               2.51188643E-04   5.11050738E-02   959.89521194     1.50828299E-06   3.85625757E+17   5.95204310E+08   0.00000000E+00   5.87320086E+06   0.29083108      
  36               3.16227766E-04   6.29638339E-02   975.99344653     1.82761768E-06   4.67272371E+17   5.95204324E+08   0.00000000E+00   5.80177504E+06   0.29054399      
  37               3.98107171E-04   7.74986169E-02   992.88584060     2.21123256E-06   5.65354007E+17   5.95204340E+08   0.00000000E+00   5.72947331E+06   0.2898264       
  38               5.01187234E-04   9.52762858E-02   1011.18020286    2.66927901E-06   6.82467697E+17   5.95204356E+08   0.00000000E+00   5.65629867E+06   0.28958038      
  39               6.30957344E-04   1.16964882E-01   1030.65812399    3.21496789E-06   8.21990304E+17   5.95204373E+08   0.00000000E+00   5.58226212E+06   0.28874294      
  40               7.94328235E-04   1.43349581E-01   1052.05798600    3.86002248E-06   9.86921456E+17   5.95204389E+08   0.00000000E+00   5.50736434E+06   0.28833328      
  41               1.00000000E-03   1.75330254E-01   1075.00509028    4.62037113E-06   1.18133258E+18   5.95204403E+08   0.00000000E+00   5.43163672E+06   0.28740866      
  42               1.25892541E-03   2.13919982E-01   1100.32662624    5.50753253E-06   1.40817157E+18   5.95204412E+08   0.00000000E+00   5.35513789E+06   0.28698523      
  43               1.58489319E-03   2.60266629E-01   1127.71899960    6.53795521E-06   1.67164259E+18   5.95204416E+08   0.00000000E+00   5.27790205E+06   0.28595946      
  44               1.99526231E-03   3.15711637E-01   1157.88962161    7.72403946E-06   1.97491891E+18   5.95204409E+08   0.00000000E+00   5.19987965E+06   0.28531833      
  45               2.51188643E-03   3.81826855E-01   1190.54361959    9.08529966E-06   2.32298817E+18   5.95204395E+08   0.00000000E+00   5.12095556E+06   0.28396571      
  46               3.16227766E-03   4.60343217E-01   1226.37936140    1.06333969E-05   2.71883439E+18   5.95204366E+08   0.00000000E+00   5.04107252E+06   0.28305744      
  47               3.98107171E-03   5.53224010E-01   1264.98289307    1.23887867E-05   3.16768660E+18   5.95204332E+08   0.00000000E+00   4.96014884E+06   0.28137695      
  48               5.01187234E-03   6.62578596E-01   1306.93523434    1.43612662E-05   3.67205498E+18   5.95204280E+08   0.00000000E+00   4.87816536E+06   0.28017721      
  49               6.30957344E-03   7.90689199E-01   1351.53271252    1.65723795E-05   4.23745485E+18   5.95204225E+08   0.00000000E+00   4.79512361E+06   0.27841145      
  50               7.94328235E-03   9.40189585E-01   1398.80507868    1.90397051E-05   4.86837558E+18   5.95204151E+08   0.00000000E+00   4.71096072E+06   0.27723148      
  51               1.00000000E-02   1.11475023E+00   1447.76885664    2.18111264E-05   5.57704540E+18   5.95204077E+08   0.00000000E+00   4.62530059E+06   0.27520453      
  52               1.25892541E-02   1.31709368E+00   1498.92008636    2.48922021E-05   6.36449614E+18   5.95203988E+08   0.00000000E+00   4.53845958E+06   0.2735779       
  53               1.58489319E-02   1.54548866E+00   1551.28086076    2.82330119E-05   7.21607813E+18   5.95203921E+08   0.00000000E+00   4.45229967E+06   0.27124045      
  54               1.99526231E-02   1.79442433E+00   1605.20332136    3.16829679E-05   8.09694035E+18   5.95207160E+08   0.00000000E+00   4.36906549E+06   0.26951803      
  55               2.51188643E-02   2.04595240E+00   1662.68727917    3.48868322E-05   8.91273086E+18   5.93507649E+08   1.70601814E+06   4.29340719E+06   0.26720154      
  56               3.16227766E-02   2.27956372E+00   1711.19683873    3.78019801E-05   9.64889557E+18   5.89376241E+08   5.83606553E+06   4.22907366E+06   0.26515557      
  57               3.98107171E-02   2.48430964E+00   1750.51914334    4.02953585E-05   1.02793274E+19   5.84600862E+08   1.05993679E+07   4.17661235E+06   0.263441        
  58               5.01187234E-02   2.67162921E+00   1784.26188529    4.25260250E-05   1.08453463E+19   5.79754699E+08   1.54396783E+07   4.13135953E+06   0.26180661      
  59               6.30957344E-02   2.83389756E+00   1811.91434834    4.44196620E-05   1.13284977E+19   5.75189277E+08   2.00038791E+07   4.09402428E+06   0.26034139      
  60               7.94328235E-02   3.02476925E+00   1842.87707937    4.66118969E-05   1.18883538E+19   5.69382462E+08   2.58146738E+07   4.05207681E+06   0.2591213       
  61               1.00000000E-01   3.17718013E+00   1866.40658586    4.83854475E-05   1.23299529E+19   5.63905069E+08   3.12994960E+07   4.01997986E+06   0.25824092      
  62               1.25892541E-01   3.29317921E+00   1883.78973852    4.96882424E-05   1.26621886E+19   5.59226641E+08   3.59829308E+07   3.99632227E+06   0.25737428      
  63               1.58489319E-01   3.43239396E+00   1903.89719899    5.12405352E-05   1.30580845E+19   5.53794497E+08   4.14155361E+07   3.96873227E+06   0.25639046      
  64               1.99526231E-01   3.59820946E+00   1927.06880657    5.30683420E-05   1.35243082E+19   5.47269950E+08   4.79404576E+07   3.93693420E+06   0.25521754      
  65               2.51188643E-01   3.79402394E+00   1953.20406838    5.52053694E-05   1.40694878E+19   5.39350370E+08   5.58603023E+07   3.90075685E+06   0.2538788       
  66               3.16227766E-01   4.02290400E+00   1982.44038822    5.76695157E-05   1.46982413E+19   5.29918207E+08   6.52925813E+07   3.86019249E+06   0.25227112      
  67               3.98107171E-01   4.28949865E+00   2014.63902794    6.05043748E-05   1.54218023E+19   5.19090672E+08   7.61201846E+07   3.81506039E+06   0.250431        
  68               5.01187234E-01   4.60054912E+00   2050.19409375    6.37608868E-05   1.62532619E+19   5.06575526E+08   8.86355279E+07   3.76498076E+06   0.24829939      
  69               6.30957344E-01   4.96154727E+00   2088.79065332    6.74859775E-05   1.72047377E+19   4.91812936E+08   1.03398460E+08   3.70994789E+06   0.24590712      
  70               7.94328235E-01   5.37854225E+00   2130.51107378    7.17150391E-05   1.82854911E+19   4.74366795E+08   1.20844994E+08   3.65000738E+06   0.24314815      
  71               1.00000000E+00   5.85825792E+00   2174.91094626    7.65029773E-05   1.95098014E+19   4.53900167E+08   1.41312077E+08   3.58524221E+06   0.24016836      
  72               1.25892541E+00   6.40820939E+00   2222.06763558    8.18902300E-05   2.08884041E+19   4.30129315E+08   1.65083601E+08   3.51576034E+06   0.23678795      
  73               1.58489319E+00   7.03685792E+00   2271.41164559    8.79454144E-05   2.24392726E+19   4.02953962E+08   1.92259807E+08   3.44168251E+06   0.23300723      
  74               1.99526231E+00   7.75383698E+00   2323.00118160    9.47207242E-05   2.41764803E+19   3.72452578E+08   2.22762282E+08   3.36312621E+06   0.22885391      
  75               2.51188643E+00   8.56960184E+00   2376.21422570    1.02308737E-04   2.61216672E+19   3.39051775E+08   2.56164532E+08   3.28025512E+06   0.22454378      
  76               3.16227766E+00   9.49651710E+00   2431.21920496    1.10752999E-04   2.82921581E+19   3.03710727E+08   2.91507127E+08   3.19317660E+06   0.21998946      
  77               3.98107171E+00   1.05489926E+01   2487.39017707    1.20176285E-04   3.07179982E+19   2.67501159E+08   3.27718713E+08   3.10194806E+06   0.21529238      
  78               5.01187234E+00   1.17431304E+01   2544.96899318    1.30659617E-04   3.34215993E+19   2.31496096E+08   3.63725998E+08   3.00665065E+06   0.21050875      
  79               6.30957344E+00   1.30968793E+01   2603.31561882    1.42337832E-04   3.64390328E+19   1.97311894E+08   3.97912656E+08   2.90738141E+06   0.2055403       
  80               7.94328235E+00   1.46304920E+01   2662.62825811    1.55314505E-04   3.97991899E+19   1.66492982E+08   4.28734130E+08   2.80423414E+06   0.20074395      
  81               1.00000000E+01   1.63666874E+01   2722.45895454    1.69743228E-04   4.35436957E+19   1.39784317E+08   4.55444838E+08   2.69730274E+06   0.19581936      
  82               1.25892541E+01   1.83308865E+01   2782.84983762    1.85762418E-04   4.77111116E+19   1.17446637E+08   4.77783701E+08   2.58668625E+06   0.19113138      
  83               1.58489319E+01   2.05510215E+01   2843.56060342    2.03539516E-04   5.23475987E+19   9.89778702E+07   4.96253035E+08   2.47250728E+06   0.18675892      
  84               1.99526231E+01   2.30575700E+01   2904.69019202    2.23226089E-04   5.74962548E+19   8.35867292E+07   5.11644584E+08   2.35491201E+06   0.18256786      
  85               2.51188643E+01   2.58837453E+01   2965.90770536    2.45018198E-04   6.32113876E+19   7.06027452E+07   5.24629382E+08   2.23406433E+06   0.17866534      
  86               3.16227766E+01   2.90655969E+01   3027.40256507    2.69077234E-04   6.95400361E+19   5.95742771E+07   5.35659864E+08   2.11014088E+06   0.17499148      
  87               3.98107171E+01   3.26398359E+01   3088.76903378    2.95609958E-04   7.65399848E+19   5.01851608E+07   5.45052960E+08   1.98340578E+06   0.17151611      
  88               5.01187234E+01   3.66431430E+01   3150.13590373    3.24756138E-04   8.42537551E+19   4.22603438E+07   5.52985385E+08   1.85419697E+06   0.16838169      
  89               6.30957344E+01   4.11156174E+01   3211.21409014    3.56718955E-04   9.27392105E+19   3.55129525E+07   5.59746378E+08   1.72279028E+06   0.16554939      
  90               7.94328235E+01   4.61015439E+01   3272.20276201    3.91664625E-04   1.02047202E+20   2.97719947E+07   5.65509215E+08   1.58939608E+06   0.16295051      
  91               1.00000000E+02   5.16503188E+01   3332.83521981    4.29847583E-04   1.12249652E+20   2.48985934E+07   5.70415774E+08   1.45415960E+06   0.16066325      
  92               1.25892541E+02   5.78171641E+01   3393.45093601    4.71462985E-04   1.23407357E+20   2.08027431E+07   5.74559074E+08   1.31716826E+06   0.158646        
  93               1.58489319E+02   6.46638780E+01   3453.80084174    5.16827327E-04   1.35609556E+20   1.73911215E+07   5.78035358E+08   1.17846186E+06   0.15685117      
  94               1.99526231E+02   7.22591618E+01   3514.24219942    5.66182183E-04   1.48931674E+20   1.45858856E+07   5.80925228E+08   1.03804993E+06   0.15527929      
  95               2.51188643E+02   8.06805953E+01   3574.55437620    6.19915067E-04   1.63483161E+20   1.22519194E+07   5.83365628E+08   8.95898114E+05   0.15390626      
  96               3.16227766E+02   9.00162664E+01   3635.12792093    6.78335199E-04   1.79360637E+20   1.03025147E+07   5.85444474E+08   7.51929490E+05   0.15266909      
  97               3.98107171E+02   1.00366532E+02   3695.71864669    7.41944564E-04   1.96705207E+20   8.65877570E+06   5.87241001E+08   6.06029925E+05   0.1515939       
  98               5.01187234E+02   1.11845671E+02   3756.77842153    8.11134412E-04   2.15640057E+20   7.27362422E+06   5.88801056E+08   4.58055172E+05   0.15069816      
  99               6.30957344E+02   1.24583483E+02   3818.08813737    8.86529092E-04   2.36341702E+20   6.10399710E+06   5.90162214E+08   3.07840522E+05   0.14993627      
  100              7.94328235E+02   1.38726495E+02   3880.08612854    9.68625126E-04   2.58966678E+20   5.13216036E+06   5.91338022E+08   1.55214694E+05   0.14929694      
  101              1.00000000E+03   1.54440342E+02   3942.53945375    1.05819233E-03   2.83733455E+20   4.68360333E+06   5.91952979E+08   0.00000000E+00   0.14880223      
