# ATMO pressure-temperature profile
# Effective temperature = 250.0K
# log(g) = 2.5cm/s^2
# M/H = 0.0
# Optical depth grid in band 17 (1.20-1.33microns)
# All parameters in cgs units
#
# Model Level      Optical Depth    Pressure         Temperature      Density          Number Density   Rad Flux         Conv Flux        Radial Extension Adiabatic Gradient
#                                   [Ba]             [K]              [g/cm^3]         [/cm^3]          [ergs/s/cm^2/sr] [ergs/s/cm^2/sr] [cm]             [K/Ba]          
  1                5.00000000E-04   1.00000000E-05   34.56858918      8.19934837E-09   2.09529021E+15   2.21420402E+05   0.00000000E+00   6.26332266E+08   0.34574466      
  2                5.78069831E-04   6.16736722E-05   42.15344385      4.14693990E-08   1.05972355E+16   2.21420402E+05   0.00000000E+00   6.17470592E+08   0.34574466      
  3                6.68329458E-04   1.21351327E-04   46.82153478      7.34615146E-08   1.87726128E+16   2.21420402E+05   0.00000000E+00   6.14051443E+08   0.31479364      
  4                7.72682194E-04   1.90275897E-04   49.75642740      1.08391589E-07   2.76987664E+16   2.21420402E+05   0.00000000E+00   6.11608877E+08   0.31480892      
  5                8.93328530E-04   2.69875993E-04   52.67950364      1.45205669E-07   3.71063655E+16   2.21420402E+05   0.00000000E+00   6.09602447E+08   0.3148213       
  6                1.03281254E-03   3.61790515E-04   54.89542561      1.86802212E-07   4.77360917E+16   2.21420402E+05   0.00000000E+00   6.07837623E+08   0.31483206      
  7                1.19407555E-03   4.67914922E-04   57.46915300      2.30777303E-07   5.89736406E+16   2.21420402E+05   0.00000000E+00   6.06221302E+08   0.31484178      
  8                1.38051810E-03   5.90428459E-04   59.47691209      2.81371344E-07   7.19026190E+16   2.21420402E+05   0.00000000E+00   6.04700938E+08   0.31485082      
  9                1.59607173E-03   7.31823611E-04   62.01774666      3.34465579E-07   8.54705059E+16   2.21420402E+05   0.00000000E+00   6.03243403E+08   0.31485938      
  10               1.84528182E-03   8.94991517E-04   64.02095417      3.96239503E-07   1.01256431E+17   2.21420403E+05   0.00000000E+00   6.01826043E+08   0.31486761      
  11               2.13340350E-03   1.08324895E-03   66.60278897      4.60995679E-07   1.17804451E+17   2.21420403E+05   0.00000000E+00   6.00433128E+08   0.3148756       
  12               2.46651240E-03   1.30038091E-03   68.67386782      5.36710474E-07   1.37152875E+17   2.21420403E+05   0.00000000E+00   5.99052727E+08   0.31488343      
  13               2.85163282E-03   1.55072839E-03   71.41661565      6.15456648E-07   1.57275948E+17   2.21420403E+05   0.00000000E+00   5.97675281E+08   0.31489115      
  14               3.29688580E-03   1.83832339E-03   73.62921253      7.07673206E-07   1.80841291E+17   2.21420403E+05   0.00000000E+00   5.96297227E+08   0.31489882      
  15               3.81166043E-03   2.16669322E-03   76.59637993      8.01770686E-07   2.04887290E+17   2.21420403E+05   0.00000000E+00   5.94918679E+08   0.31490646      
  16               4.40681180E-03   2.53973598E-03   79.11433051      9.09901559E-07   2.32519433E+17   2.21420403E+05   0.00000000E+00   5.93537544E+08   0.3149141       
  17               5.09488990E-03   2.96177713E-03   82.62020384      1.01607814E-06   2.59652168E+17   2.21420951E+05   0.00000000E+00   5.92149529E+08   0.31492172      
  18               5.89040429E-03   3.43674520E-03   86.60067509      1.12483042E-06   2.87443106E+17   2.21415241E+05   5.12530837E+00   5.90744591E+08   0.31492933      
  19               6.81013002E-03   3.97166995E-03   90.61807507      1.24227948E-06   3.17456452E+17   2.21401335E+05   1.90372537E+01   5.89313591E+08   0.31493693      
  20               7.87346142E-03   4.57523085E-03   94.76701312      1.36841181E-06   3.49688749E+17   2.21378546E+05   4.18304655E+01   5.87849719E+08   0.31494452      
  21               9.10282102E-03   5.25714875E-03   98.98467545      1.50536961E-06   3.84687559E+17   2.21345631E+05   7.47472271E+01   5.86347262E+08   0.31495214      
  22               1.05241324E-02   6.02849793E-03   103.36829596     1.65303543E-06   4.22423041E+17   2.21301710E+05   1.18669450E+02   5.84800981E+08   0.3149598       
  23               1.21673669E-02   6.90209601E-03   107.84649685     1.81398534E-06   4.63554491E+17   2.21246883E+05   1.73496419E+02   5.83205640E+08   0.31496756      
  24               1.40671754E-02   7.89269960E-03   112.52367798     1.98808693E-06   5.08051215E+17   2.21181039E+05   2.39340214E+02   5.81556090E+08   0.31497544      
  25               1.62636194E-02   9.01692027E-03   117.31882758     2.17825901E-06   5.56693762E+17   2.21105864E+05   3.14513666E+02   5.79847731E+08   0.31733782      
  26               1.88030155E-02   1.02933429E-02   122.41735019     2.38327911E-06   6.09030868E+17   2.21023613E+05   3.96762161E+02   5.78076186E+08   0.31985521      
  27               2.17389119E-02   1.17428568E-02   127.66160409     2.60720318E-06   6.66253199E+17   2.20939230E+05   4.81141789E+02   5.76237331E+08   0.32219599      
  28               2.51332183E-02   1.33891547E-02   133.24070646     2.84824468E-06   7.27850312E+17   2.20858910E+05   5.61457706E+02   5.74326895E+08   0.3237653       
  29               2.90575105E-02   1.52593359E-02   138.96091617     3.11246461E-06   7.95369263E+17   2.20785143E+05   6.35221470E+02   5.72340605E+08   0.32539564      
  30               3.35945403E-02   1.73841374E-02   145.05643792     3.39685957E-06   8.68044472E+17   2.20716404E+05   7.03956840E+02   5.70274143E+08   0.32603667      
  31               3.88399805E-02   1.97987337E-02   151.27536522     3.70963048E-06   9.47970982E+17   2.20652892E+05   7.67464720E+02   5.68123143E+08   0.32530129      
  32               4.49044419E-02   2.25431344E-02   157.85236440     4.04785197E-06   1.03440128E+18   2.20600833E+05   8.19519243E+02   5.65883546E+08   0.32500644      
  33               5.19158062E-02   2.56633172E-02   164.58438392     4.41962532E-06   1.12940578E+18   2.20562283E+05   8.58063877E+02   5.63550759E+08   0.32474096      
  34               6.00219227E-02   2.92114782E-02   171.71070424     4.82188680E-06   1.23220227E+18   2.20521737E+05   8.98607961E+02   5.61120223E+08   0.32437256      
  35               6.93937253E-02   3.32458730E-02   179.00137277     5.26430093E-06   1.34526307E+18   2.20435018E+05   9.85330434E+02   5.58588014E+08   0.32348227      
  36               8.02288381E-02   3.78313950E-02   186.69135426     5.74358330E-06   1.46775642E+18   2.20232274E+05   1.18808367E+03   5.55950912E+08   0.32235213      
  37               9.27557418E-02   4.30396864E-02   194.53704086     6.27058177E-06   1.60248005E+18   2.19879868E+05   1.54046463E+03   5.53206496E+08   0.3206645       
  38               1.07238592E-01   4.89503709E-02   202.77196124     6.84152373E-06   1.74853337E+18   2.19519015E+05   1.90128085E+03   5.50352802E+08   0.31898902      
  39               1.23982789E-01   5.56518291E-02   211.15674524     7.46598830E-06   1.90897536E+18   2.19116813E+05   2.30345467E+03   5.47387635E+08   0.31704678      
  40               1.43341420E-01   6.32449851E-02   219.93072966     8.15087859E-06   2.08288849E+18   2.18431540E+05   2.98870843E+03   5.44309579E+08   0.31540106      
  41               1.65722701E-01   7.18456838E-02   228.87050740     8.89763841E-06   2.27371847E+18   2.17038924E+05   4.38129162E+03   5.41115879E+08   0.31353989      
  42               1.91598587E-01   8.15854946E-02   238.20975052     9.70768525E-06   2.48072861E+18   2.14491258E+05   6.92890001E+03   5.37801858E+08   0.31200819      
  43               2.21514726E-01   9.26104250E-02   247.73757645     1.05957679E-05   2.70765815E+18   2.10517290E+05   1.09028118E+04   5.34364286E+08   0.31037032      
  44               2.56101960E-01   1.05085575E-01   257.67894416     1.15592222E-05   2.95386070E+18   2.05094271E+05   1.63257676E+04   5.30799649E+08   0.30908146      
  45               2.96089634E-01   1.19201217E-01   267.83914401     1.26145298E-05   3.22353567E+18   1.98413110E+05   2.30068281E+04   5.27103063E+08   0.30771185      
  46               3.42320969E-01   1.35166504E-01   278.43273179     1.37598354E-05   3.51620859E+18   1.90622752E+05   3.07970396E+04   5.23270983E+08   0.30659978      
  47               3.95770849E-01   1.53215154E-01   289.26798832     1.50129415E-05   3.83642919E+18   1.81813630E+05   3.96060123E+04   5.19299935E+08   0.3054094       
  48               4.57566375E-01   1.73617872E-01   300.55680788     1.63731525E-05   4.18401949E+18   1.72169690E+05   4.92498400E+04   5.15184753E+08   0.30446977      
  49               5.29010634E-01   1.96679525E-01   312.12096841     1.78607895E-05   4.56417246E+18   1.61868167E+05   5.95512753E+04   5.10920196E+08   0.30356566      
  50               6.11610175E-01   2.22739457E-01   324.17071502     1.94754646E-05   4.97678888E+18   1.51353224E+05   7.00661325E+04   5.06501653E+08   0.30293304      
  51               7.07106781E-01   2.52173286E-01   336.52869259     2.12393600E-05   5.42753732E+18   1.41187361E+05   8.02318959E+04   5.01925167E+08   0.30234072      
  52               8.17514195E-01   2.85392053E-01   349.39745553     2.31518980E-05   5.91626989E+18   1.31859493E+05   8.95596014E+04   4.97187992E+08   0.30189018      
  53               9.45160584E-01   3.22863419E-01   362.59469337     2.52384017E-05   6.44945827E+18   1.23633776E+05   9.77851284E+04   4.92285969E+08   0.301399        
  54               1.09273764E+00   3.65106998E-01   376.32530769     2.74992884E-05   7.02720417E+18   1.16421864E+05   1.04996914E+05   4.87215255E+08   0.30101686      
  55               1.26335732E+00   4.12688209E-01   390.40136139     2.99623215E-05   7.65661089E+18   1.09965812E+05   1.11452907E+05   4.81973375E+08   0.30068134      
  56               1.46061751E+00   4.66233659E-01   405.03382826     3.26269931E-05   8.33754453E+18   1.04022344E+05   1.17396374E+05   4.76557779E+08   0.30048112      
  57               1.68867783E+00   5.26431298E-01   420.02828225     3.55244764E-05   9.07797552E+18   9.81385178E+04   1.23280079E+05   4.70966295E+08   0.30030796      
  58               1.95234742E+00   5.94042485E-01   435.60041926     3.86543795E-05   9.87768237E+18   9.20026275E+04   1.29415628E+05   4.65196546E+08   0.30015797      
  59               2.25718628E+00   6.69929746E-01   451.54572825     4.20530025E-05   1.07461615E+19   8.49962531E+04   1.36421504E+05   4.59244435E+08   0.29998522      
  60               2.60962258E+00   7.55023478E-01   468.09069681     4.57193558E-05   1.16830514E+19   7.53990019E+04   1.46017890E+05   4.53107534E+08   0.29985014      
  61               3.01708817E+00   8.50328400E-01   485.01347146     4.96941575E-05   1.26986842E+19   6.30557306E+04   1.58359983E+05   4.46784678E+08   0.29973851      
  62               3.48817529E+00   9.56990181E-01   502.55955868     5.39747944E-05   1.37925886E+19   5.42180052E+04   1.67197328E+05   4.40271984E+08   0.29966231      
  63               4.03281780E+00   1.07631344E+00   520.50533243     5.86162319E-05   1.49775032E+19   4.99290600E+04   1.71486642E+05   4.33563439E+08   0.29956811      
  64               4.66250061E+00   1.20979440E+00   539.11956462     6.36107761E-05   1.62537029E+19   4.64964188E+04   1.74919152E+05   4.26650781E+08   0.29946356      
  65               5.39050188E+00   1.35903482E+00   558.15994181     6.90202126E-05   1.76359054E+19   4.34511597E+04   1.77964026E+05   4.19528273E+08   0.29932296      
  66               6.23217301E+00   1.52572958E+00   577.89231672     7.48401783E-05   1.91230203E+19   4.06719005E+04   1.80743107E+05   4.12193843E+08   0.29919247      
  67               7.20526240E+00   1.71165464E+00   598.04471903     8.11309128E-05   2.07304305E+19   3.81054906E+04   1.83309676E+05   4.04648528E+08   0.29904416      
  68               8.33028963E+00   1.91882351E+00   618.89818731     8.78859214E-05   2.24564788E+19   3.58301100E+04   1.85584901E+05   3.96890137E+08   0.29890706      
  69               9.63097823E+00   2.14953628E+00   640.18327390     9.51795116E-05   2.43201527E+19   3.38807747E+04   1.87533278E+05   3.88913125E+08   0.29873248      
  70               1.11347559E+01   2.40645453E+00   662.21273214     1.03010755E-04   2.63212174E+19   3.22956308E+04   1.89117582E+05   3.80708062E+08   0.29852956      
  71               1.28733329E+01   2.69232057E+00   684.69207477     1.11463654E-04   2.84811360E+19   3.09921195E+04   1.90420789E+05   3.72271711E+08   0.29825614      
  72               1.48833708E+01   3.00993110E+00   707.91624423     1.20524635E-04   3.07964400E+19   2.99536014E+04   1.91459409E+05   3.63606276E+08   0.29796435      
  73               1.72072553E+01   3.36215426E+00   731.55380959     1.30278240E-04   3.32887279E+19   2.91602843E+04   1.92253296E+05   3.54717457E+08   0.29762296      
  74               1.98939903E+01   3.75218197E+00   755.91446730     1.40705569E-04   3.59531606E+19   2.86411180E+04   1.92771470E+05   3.45607761E+08   0.29728144      
  75               2.30002312E+01   4.18420670E+00   780.70468856     1.51924096E-04   3.88197007E+19   2.84095972E+04   1.93000015E+05   3.36263610E+08   0.296865        
  76               2.65914795E+01   4.66326547E+00   806.30373648     1.63942606E-04   4.18906700E+19   2.84996927E+04   1.92908045E+05   3.26664528E+08   0.29643423      
  77               3.07434641E+01   5.19441015E+00   832.39393546     1.76892341E-04   4.51994521E+19   2.89110624E+04   1.92496780E+05   3.16801446E+08   0.29589406      
  78               3.55437382E+01   5.78261433E+00   859.30106794     1.90757948E-04   4.87421539E+19   2.96471778E+04   1.91762495E+05   3.06675567E+08   0.29534038      
  79               4.10935254E+01   6.43271252E+00   886.65297611     2.05657187E-04   5.25492239E+19   3.06738144E+04   1.90739523E+05   2.96296324E+08   0.29465769      
  80               4.75098546E+01   7.14935310E+00   914.73632392     2.21551153E-04   5.66104571E+19   3.19561983E+04   1.89460697E+05   2.85679552E+08   0.29392621      
  81               5.49280272E+01   7.93833443E+00   943.19082017     2.38579467E-04   6.09615029E+19   3.34965225E+04   1.87921085E+05   2.74827466E+08   0.29314962      
  82               6.35044707E+01   8.80732039E+00   972.40819934     2.56743276E-04   6.56025956E+19   3.51696155E+04   1.86247210E+05   2.63724302E+08   0.29233171      
  83               7.34200373E+01   9.76409649E+00   1002.03068513    2.76221128E-04   7.05792243E+19   3.68144226E+04   1.84602212E+05   2.52362884E+08   0.29144293      
  84               8.48838171E+01   1.08163067E+01   1032.41814718    2.96984643E-04   7.58838234E+19   3.82949506E+04   1.83121740E+05   2.40745524E+08   0.29051033      
  85               9.81375475E+01   1.19714448E+01   1063.15220526    3.19205273E-04   8.15599524E+19   3.98332142E+04   1.81583237E+05   2.28881491E+08   0.28953934      
  86               1.13460711E+02   1.32372730E+01   1094.59617358    3.42817710E-04   8.75932094E+19   4.16301680E+04   1.79785004E+05   2.16780857E+08   0.28852151      
  87               1.31176428E+02   1.46221167E+01   1126.30891246    3.68020084E-04   9.40326260E+19   4.36021308E+04   1.77808031E+05   2.04451699E+08   0.28744357      
  88               1.51658271E+02   1.61381300E+01   1158.75020981    3.94805682E-04   1.00876318E+20   4.55886906E+04   1.75814190E+05   1.91874741E+08   0.28629484      
  89               1.75338142E+02   1.78003625E+01   1191.55050692    4.23486821E-04   1.08203729E+20   4.75877653E+04   1.73810174E+05   1.79019499E+08   0.2851417       
  90               2.02715380E+02   1.96234275E+01   1225.19314614    4.54047374E-04   1.16010192E+20   4.94492657E+04   1.71946360E+05   1.65872339E+08   0.28393388      
  91               2.34367291E+02   2.16215225E+01   1259.19446589    4.86784125E-04   1.24371051E+20   5.11146996E+04   1.70280689E+05   1.52432376E+08   0.28269589      
  92               2.70961321E+02   2.38087468E+01   1294.01765465    5.21620547E-04   1.33266863E+20   5.24943752E+04   1.68903440E+05   1.38706222E+08   0.28148312      
  93               3.13269130E+02   2.62000027E+01   1329.14621810    5.58856737E-04   1.42775739E+20   5.35520015E+04   1.67855537E+05   1.24700678E+08   0.28016389      
  94               3.62182865E+02   2.88121873E+01   1365.05110873    5.98418554E-04   1.52880874E+20   5.43557577E+04   1.67064982E+05   1.10416574E+08   0.27892954      
  95               4.18733975E+02   3.16694876E+01   1401.32784929    6.40729797E-04   1.63691875E+20   5.50715081E+04   1.66372560E+05   9.58244622E+07   0.27758163      
  96               4.84114957E+02   3.48116223E+01   1438.63861827    6.86018968E-04   1.75266288E+20   5.57744815E+04   1.65731829E+05   8.08372122E+07   0.27631862      
  97               5.59704502E+02   3.82749528E+01   1476.63617639    7.34837833E-04   1.87744403E+20   5.62597663E+04   1.65360799E+05   6.54119313E+07   0.27478768      
  98               6.47096573E+02   4.20899548E+01   1515.68560496    7.87235805E-04   2.01138484E+20   5.64586975E+04   1.65309160E+05   4.95502261E+07   0.27338961      
  99               7.48134013E+02   4.62782335E+01   1555.31299702    8.43486340E-04   2.15518627E+20   5.62193683E+04   1.65683648E+05   3.32967052E+07   0.27200533      
  100              8.64947405E+02   5.08484021E+01   1595.66038597    9.03345763E-04   2.30814286E+20   5.54270934E+04   1.66467045E+05   1.67400676E+07   0.27061927      
  101              1.00000000E+03   5.57949900E+01   1636.05193168    9.66604276E-04   2.47015360E+20   5.47512176E+04   1.67098527E+05   0.00000000E+00   0.26927538      
