# ATMO pressure-temperature profile
# Effective temperature = 1300.0K
# log(g) = 4.0cm/s^2
# M/H = 0.0
# Optical depth grid in band 17 (1.20-1.33microns)
# All parameters in cgs units
#
# Model Level      Optical Depth    Pressure         Temperature      Density          Number Density   Rad Flux         Conv Flux        Radial Extension Adiabatic Gradient
#                                   [Ba]             [K]              [g/cm^3]         [/cm^3]          [ergs/s/cm^2/sr] [ergs/s/cm^2/sr] [cm]             [K/Ba]          
  1                1.00000000E-06   1.00000000E-05   362.70019859     7.81177342E-10   1.99699991E+14   1.61937628E+08   0.00000000E+00   5.90700874E+07   0.29748267      
  2                1.23026877E-06   1.97607286E-05   404.41220419     1.38444562E-09   3.53919540E+14   1.61937628E+08   0.00000000E+00   5.81315113E+07   0.29742822      
  3                1.51356125E-06   3.11108670E-05   426.35933765     2.06745778E-09   5.28520911E+14   1.61937628E+08   0.00000000E+00   5.74606295E+07   0.29748363      
  4                1.86208714E-06   4.46636386E-05   439.66352562     2.87828619E-09   7.35799524E+14   1.61937628E+08   0.00000000E+00   5.69050544E+07   0.29751266      
  5                2.29086765E-06   6.10035315E-05   451.93549354     3.82453670E-09   9.77697187E+14   1.61937628E+08   0.00000000E+00   5.64125696E+07   0.29759142      
  6                2.81838293E-06   8.07672404E-05   461.61528559     4.95741605E-09   1.26730428E+15   1.61937628E+08   0.00000000E+00   5.59586788E+07   0.29761658      
  7                3.46736850E-06   1.04714103E-04   471.89872069     6.28719135E-09   1.60724549E+15   1.61937628E+08   0.00000000E+00   5.55297427E+07   0.29769177      
  8                4.26579519E-06   1.33757196E-04   480.42612963     7.88843471E-09   2.01658426E+15   1.61937628E+08   0.00000000E+00   5.51173423E+07   0.29771314      
  9                5.24807460E-06   1.69004611E-04   489.89669506     9.77449526E-09   2.49873318E+15   1.61937628E+08   0.00000000E+00   5.47159355E+07   0.29777829      
  10               6.45654229E-06   2.11800377E-04   497.81878747     1.20546815E-08   3.08163562E+15   1.61937628E+08   0.00000000E+00   5.43216819E+07   0.29779563      
  11               7.94328235E-06   2.63780377E-04   506.77561804     1.47477940E-08   3.77009776E+15   1.61937628E+08   0.00000000E+00   5.39318342E+07   0.29784553      
  12               9.77237221E-06   3.26934488E-04   514.28288736     1.80118763E-08   4.60452148E+15   1.61937627E+08   0.00000000E+00   5.35443459E+07   0.2978576       
  13               1.20226443E-05   4.03699904E-04   522.95149927     2.18724545E-08   5.59143234E+15   1.61937627E+08   0.00000000E+00   5.31575896E+07   0.29788779      
  14               1.47910839E-05   4.97036238E-04   530.33103179     2.65546944E-08   6.78839106E+15   1.61937627E+08   0.00000000E+00   5.27703041E+07   0.29865731      
  15               1.81970086E-05   6.10536879E-04   539.01822415     3.20928836E-08   8.20416324E+15   1.61937627E+08   0.00000000E+00   5.23815067E+07   0.2985626       
  16               2.23872114E-05   7.48561254E-04   546.48198489     3.88107273E-08   9.92149993E+15   1.61937627E+08   0.00000000E+00   5.19904178E+07   0.29853592      
  17               2.75422870E-05   9.16403709E-04   555.31928403     4.67567551E-08   1.19528074E+16   1.61937627E+08   0.00000000E+00   5.15964110E+07   0.29843374      
  18               3.38844156E-05   1.12049647E-03   562.86609032     5.64034530E-08   1.44188707E+16   1.61937627E+08   0.00000000E+00   5.11989883E+07   0.29840508      
  19               4.16869383E-05   1.36866015E-03   571.75218600     6.78247288E-08   1.73385840E+16   1.61937627E+08   0.00000000E+00   5.07977602E+07   0.29829338      
  20               5.12861384E-05   1.67039358E-03   579.30891465     8.16975201E-08   2.08849981E+16   1.61937627E+08   0.00000000E+00   5.03924151E+07   0.29826218      
  21               6.30957344E-05   2.03722957E-03   588.25460764     9.81239287E-08   2.50842126E+16   1.61937627E+08   0.00000000E+00   4.99827018E+07   0.29814057      
  22               7.76247117E-05   2.48316958E-03   595.80321956     1.18087472E-07   3.01876547E+16   1.61937627E+08   0.00000000E+00   4.95684284E+07   0.29810765      
  23               9.54992586E-05   3.02521617E-03   604.73892523     1.41738805E-07   3.62338372E+16   1.61937627E+08   0.00000000E+00   4.91494513E+07   0.29797413      
  24               1.17489755E-04   3.68396800E-03   612.34919801     1.70457866E-07   4.35755157E+16   1.61937626E+08   0.00000000E+00   4.87256435E+07   0.29793707      
  25               1.44543977E-04   4.48438813E-03   621.39119248     2.04474165E-07   5.22713769E+16   1.61937626E+08   0.00000000E+00   4.82969072E+07   0.29778765      
  26               1.77827941E-04   5.45689705E-03   629.09211241     2.45771687E-07   6.28285968E+16   1.61937626E+08   0.00000000E+00   4.78630883E+07   0.29774566      
  27               2.18776162E-04   6.63849673E-03   638.38190699     2.94638671E-07   7.53208159E+16   1.61937626E+08   0.00000000E+00   4.74239922E+07   0.29757972      
  28               2.69153480E-04   8.07393037E-03   646.48014432     3.53859105E-07   9.04598053E+16   1.61937625E+08   0.00000000E+00   4.69794397E+07   0.29753009      
  29               3.31131121E-04   9.81723903E-03   656.25635445     4.23854089E-07   1.08353185E+17   1.61937624E+08   0.00000000E+00   4.65292963E+07   0.29734193      
  30               4.07380278E-04   1.19334388E-02   664.95490437     5.08480921E-07   1.29986801E+17   1.61937624E+08   0.00000000E+00   4.60734575E+07   0.29728183      
  31               5.01187234E-04   1.45005317E-02   675.67239596     6.08063557E-07   1.55443867E+17   1.61937623E+08   0.00000000E+00   4.56117895E+07   0.29706881      
  32               6.16595002E-04   1.76119184E-02   685.44239737     7.28009160E-07   1.86106499E+17   1.61937622E+08   0.00000000E+00   4.51441501E+07   0.29699292      
  33               7.58577575E-04   2.13790702E-02   697.32050565     8.68680855E-07   2.22066075E+17   1.61937620E+08   0.00000000E+00   4.46704375E+07   0.29674615      
  34               9.33254301E-04   2.59342249E-02   708.39805045     1.03728898E-06   2.65168392E+17   1.61937619E+08   0.00000000E+00   4.41905680E+07   0.29664695      
  35               1.14815362E-03   3.14339371E-02   721.99715040     1.23357914E-06   3.15347314E+17   1.61937617E+08   0.00000000E+00   4.37043774E+07   0.29635699      
  36               1.41253754E-03   3.80623668E-02   734.85879504     1.46756725E-06   3.75161042E+17   1.61937614E+08   0.00000000E+00   4.32117387E+07   0.29622621      
  37               1.73780083E-03   4.60341052E-02   750.45345133     1.73804888E-06   4.44305599E+17   1.61937611E+08   0.00000000E+00   4.27125979E+07   0.29581127      
  38               2.13796209E-03   5.55982675E-02   765.58324879     2.05766540E-06   5.26010818E+17   1.61937608E+08   0.00000000E+00   4.22068564E+07   0.29565392      
  39               2.63026799E-03   6.70564578E-02   783.86562765     2.42384422E-06   6.19619143E+17   1.61937603E+08   0.00000000E+00   4.16937868E+07   0.29521022      
  40               3.23593657E-03   8.07593401E-02   801.90730753     2.85347512E-06   7.29448155E+17   1.61937598E+08   0.00000000E+00   4.11727450E+07   0.2949735       
  41               3.98107171E-03   9.71064858E-02   823.48623362     3.34115792E-06   8.54117723E+17   1.61937592E+08   0.00000000E+00   4.06433176E+07   0.29452045      
  42               4.89778819E-03   1.16547197E-01   845.32215647     3.90646824E-06   9.98631869E+17   1.61937584E+08   0.00000000E+00   4.01052070E+07   0.29423109      
  43               6.02559586E-03   1.39584490E-01   871.12060073     4.54007652E-06   1.16060576E+18   1.61937575E+08   0.00000000E+00   3.95581812E+07   0.29356736      
  44               7.41310241E-03   1.66755964E-01   897.39999352     5.26501717E-06   1.34592591E+18   1.61937564E+08   0.00000000E+00   3.90024280E+07   0.29304699      
  45               9.12010839E-03   1.98617996E-01   927.96106155     6.06459413E-06   1.55029620E+18   1.61937551E+08   0.00000000E+00   3.84385644E+07   0.29225561      
  46               1.12201845E-02   2.35814010E-01   959.28551230     6.96510881E-06   1.78052288E+18   1.61937541E+08   0.00000000E+00   3.78662540E+07   0.29169298      
  47               1.38038426E-02   2.79149165E-01   994.90663573     7.94967609E-06   2.03226270E+18   1.61937532E+08   0.00000000E+00   3.72838802E+07   0.29065979      
  48               1.69824365E-02   3.29440671E-01   1031.33557347    9.05024826E-06   2.31367874E+18   1.61937527E+08   0.00000000E+00   3.66909687E+07   0.28979475      
  49               2.08929613E-02   3.87510592E-01   1071.89529377    1.02423537E-05   2.61852698E+18   1.61937523E+08   0.00000000E+00   3.60878242E+07   0.28859113      
  50               2.57039578E-02   4.54178604E-01   1112.95307696    1.15612674E-05   2.95580416E+18   1.61937523E+08   0.00000000E+00   3.54751704E+07   0.2876278       
  51               3.16227766E-02   5.30388254E-01   1157.61128513    1.29799981E-05   3.31861587E+18   1.61937525E+08   0.00000000E+00   3.48530561E+07   0.28616451      
  52               3.89045145E-02   6.17476400E-01   1202.37493516    1.45483939E-05   3.71968608E+18   1.61937526E+08   0.00000000E+00   3.42193113E+07   0.28486348      
  53               4.78630092E-02   7.16900747E-01   1250.48774700    1.62407732E-05   4.15245975E+18   1.61937525E+08   0.00000000E+00   3.35724934E+07   0.28302373      
  54               5.88843655E-02   8.30229327E-01   1298.26921026    1.81156602E-05   4.63189976E+18   1.61937519E+08   0.00000000E+00   3.29117860E+07   0.2814174       
  55               7.24435960E-02   9.59452117E-01   1348.75131734    2.01513544E-05   5.15249125E+18   1.61937512E+08   0.00000000E+00   3.22354535E+07   0.27938439      
  56               8.91250938E-02   1.10724786E+00   1398.05163052    2.24348934E-05   5.73650634E+18   1.61937514E+08   0.00000000E+00   3.15403516E+07   0.27793543      
  57               1.09647820E-01   1.27712950E+00   1449.37350712    2.49603572E-05   6.38234766E+18   1.61937535E+08   0.00000000E+00   3.08224562E+07   0.27604284      
  58               1.34896288E-01   1.47063859E+00   1499.62334410    2.77806396E-05   7.10312739E+18   1.61937563E+08   0.00000000E+00   3.00875855E+07   0.27426915      
  59               1.65958691E-01   1.68510579E+00   1552.61231399    3.07570171E-05   7.86122063E+18   1.61937663E+08   0.00000000E+00   2.93538342E+07   0.27202725      
  60               2.04173794E-01   1.91521500E+00   1607.63701941    3.37640509E-05   8.62889880E+18   1.60212346E+08   1.72581171E+06   2.86397652E+07   0.27014094      
  61               2.51188643E-01   2.14777023E+00   1657.77613638    3.67280322E-05   9.38399512E+18   1.56070593E+08   5.86901948E+06   2.79793621E+07   0.26785763      
  62               3.09029543E-01   2.37060812E+00   1702.17446569    3.95077240E-05   1.00874533E+19   1.50077526E+08   1.18630490E+07   2.73943415E+07   0.26582549      
  63               3.80189396E-01   2.57186946E+00   1739.12622091    4.19877835E-05   1.07113364E+19   1.43320867E+08   1.86194051E+07   2.69001695E+07   0.26411252      
  64               4.67735141E-01   2.74319074E+00   1769.08730775    4.40396566E-05   1.12313660E+19   1.37087416E+08   2.48527616E+07   2.65017421E+07   0.26258461      
  65               5.75439937E-01   2.88370644E+00   1792.18742736    4.56981774E-05   1.16544950E+19   1.31960333E+08   2.99805085E+07   2.61885192E+07   0.26114688      
  66               7.07945784E-01   3.04695118E+00   1818.28246271    4.75912600E-05   1.21375208E+19   1.26582050E+08   3.53592767E+07   2.58384722E+07   0.25985164      
  67               8.70963590E-01   3.23547665E+00   1846.60589186    4.97576650E-05   1.26908261E+19   1.20191146E+08   4.17496129E+07   2.54510570E+07   0.25892995      
  68               1.07151931E+00   3.38169096E+00   1868.03140063    5.14553938E-05   1.31122006E+19   1.14157633E+08   4.77798912E+07   2.51620554E+07   0.25827649      
  69               1.31825674E+00   3.48952462E+00   1883.01613979    5.26727732E-05   1.34226437E+19   1.09322122E+08   5.26125632E+07   2.49549240E+07   0.25746813      
  70               1.62181010E+00   3.61683927E+00   1900.64965071    5.40868964E-05   1.37832927E+19   1.04548814E+08   5.73856862E+07   2.47163960E+07   0.25657266      
  71               1.99526231E+00   3.76617336E+00   1920.24456968    5.57439425E-05   1.42059277E+19   9.94805019E+07   6.24539335E+07   2.44444302E+07   0.25551641      
  72               2.45470892E+00   3.94018697E+00   1942.69897938    5.76436146E-05   1.46905196E+19   9.40100637E+07   6.79244787E+07   2.41374510E+07   0.2543388       
  73               3.01995172E+00   4.14144705E+00   1967.20697967    5.98308101E-05   1.52485271E+19   8.81004041E+07   7.38345127E+07   2.37947464E+07   0.25295389      
  74               3.71535229E+00   4.37256914E+00   1994.55402008    6.23005649E-05   1.58787650E+19   8.20092083E+07   7.99264098E+07   2.34161875E+07   0.25137519      
  75               4.57088190E+00   4.63771892E+00   2023.98666894    6.51134103E-05   1.65967333E+19   7.60624662E+07   8.58739594E+07   2.29998835E+07   0.24957288      
  76               5.62341325E+00   4.94201839E+00   2056.44493635    6.82851083E-05   1.74065664E+19   7.02804214E+07   9.16567537E+07   2.25435276E+07   0.24756863      
  77               6.91830971E+00   5.28977504E+00   2091.00050174    7.18751576E-05   1.83235200E+19   6.45181698E+07   9.74196943E+07   2.20471365E+07   0.24528574      
  78               8.51138038E+00   5.68569937E+00   2128.39523638    7.58880077E-05   1.93489523E+19   5.88380506E+07   1.03100333E+08   2.15110470E+07   0.24278053      
  79               1.04712855E+01   6.13496854E+00   2167.63199608    8.03900261E-05   2.04999417E+19   5.32750559E+07   1.08663605E+08   2.09358450E+07   0.24000962      
  80               1.28824955E+01   6.64331711E+00   2209.42682163    8.53883041E-05   2.17786623E+19   4.79336101E+07   1.14005037E+08   2.03222764E+07   0.23700667      
  81               1.58489319E+01   7.21712046E+00   2252.73030953    9.09595986E-05   2.32049476E+19   4.28381587E+07   1.19100130E+08   1.96711853E+07   0.23358511      
  82               1.94984460E+01   7.86358798E+00   2298.20539116    9.71187897E-05   2.47832211E+19   3.80601569E+07   1.23877486E+08   1.89833674E+07   0.22998432      
  83               2.39883292E+01   8.59032659E+00   2344.81683281    1.03961331E-04   2.65354582E+19   3.35778021E+07   1.28358916E+08   1.82600873E+07   0.22605563      
  84               2.95120923E+01   9.40636750E+00   2393.19763371    1.11491516E-04   2.84688037E+19   2.95780209E+07   1.32357624E+08   1.75021056E+07   0.22207904      
  85               3.63078055E+01   1.03221801E+01   2442.44382054    1.19824058E-04   3.06106597E+19   2.59644759E+07   1.35970007E+08   1.67097543E+07   0.21787594      
  86               4.46683592E+01   1.13489763E+01   2493.13143315    1.28994731E-04   3.29713975E+19   2.26871894E+07   1.39246120E+08   1.58838476E+07   0.21360278      
  87               5.49540874E+01   1.24995846E+01   2544.38118878    1.39124337E-04   3.55827282E+19   1.97184330E+07   1.42213805E+08   1.50249426E+07   0.20927757      
  88               6.76082975E+01   1.37881285E+01   2596.81635572    1.50259278E-04   3.84582859E+19   1.71076271E+07   1.44823884E+08   1.41337270E+07   0.20482592      
  89               8.31763771E+01   1.52304122E+01   2649.48428187    1.62546458E-04   4.16366855E+19   1.48131444E+07   1.47118099E+08   1.32108422E+07   0.20048706      
  90               1.02329299E+02   1.68441012E+01   2703.17264326    1.76037100E-04   4.51335920E+19   1.28319066E+07   1.49099932E+08   1.22568698E+07   0.19613033      
  91               1.25892541E+02   1.86487156E+01   2756.83065478    1.90911902E-04   4.89964569E+19   1.10926084E+07   1.50841046E+08   1.12724669E+07   0.19184186      
  92               1.54881662E+02   2.06657121E+01   2811.32650612    2.07227495E-04   5.32432952E+19   9.59437861E+06   1.52343083E+08   1.02583860E+07   0.1878557       
  93               1.90546072E+02   2.29184215E+01   2865.70343559    2.25183407E-04   5.79267680E+19   8.27509773E+06   1.53669098E+08   9.21553780E+06   0.18405899      
  94               2.34422882E+02   2.54322336E+01   2920.80475553    2.44843312E-04   6.30678197E+19   7.12975259E+06   1.54825862E+08   8.14493395E+06   0.18041719      
  95               2.88403150E+02   2.82347045E+01   2975.62309786    2.66439337E-04   6.87275980E+19   6.12662175E+06   1.55847377E+08   7.04768256E+06   0.17705661      
  96               3.54813389E+02   3.13556094E+01   3031.12232037    2.90028079E-04   7.49268756E+19   5.26276490E+06   1.56740087E+08   5.92496613E+06   0.17377306      
  97               4.36515832E+02   3.48247595E+01   3086.10324930    3.15872091E-04   8.17341430E+19   4.51167301E+06   1.57534446E+08   4.77877771E+06   0.17074247      
  98               5.37031796E+02   3.86725315E+01   3141.64288571    3.43982195E-04   8.91603213E+19   3.86765070E+06   1.58241856E+08   3.61144510E+06   0.16797251      
  99               6.60693448E+02   4.29319435E+01   3196.52920763    3.74650046E-04   9.72809296E+19   3.30454761E+06   1.58894797E+08   2.42491877E+06   0.16545012      
  100              8.12830516E+02   4.76391950E+01   3251.92862377    4.07882824E-04   1.06108274E+20   2.82086633E+06   1.59502881E+08   1.22072701E+06   0.16308539      
  101              1.00000000E+03   5.28342325E+01   3306.57984930    4.44039656E-04   1.15734337E+20   2.57933143E+06   1.59839463E+08   0.00000000E+00   0.16101334      
