# ATMO pressure-temperature profile
# Effective temperature = 700.0K
# log(g) = 5.5cm/s^2
# M/H = 0.0
# Optical depth grid in band 17 (1.20-1.33microns)
# All parameters in cgs units
#
# Model Level      Optical Depth    Pressure         Temperature      Density          Number Density   Rad Flux         Conv Flux        Radial Extension Adiabatic Gradient
#                                   [Ba]             [K]              [g/cm^3]         [/cm^3]          [ergs/s/cm^2/sr] [ergs/s/cm^2/sr] [cm]             [K/Ba]          
  1                8.00000000E-07   1.00000000E-05   113.66049116     2.49417863E-09   6.37259489E+14   1.36132619E+07   0.00000000E+00   1.35067019E+06   0.34156702      
  2                9.86413681E-07   8.52877582E-05   137.16171253     1.76275022E-08   4.50380563E+15   1.36132619E+07   0.00000000E+00   1.31476434E+06   0.32837787      
  3                1.21626494E-06   1.73865378E-04   148.49223154     3.31929353E-08   8.48076863E+15   1.36132619E+07   0.00000000E+00   1.30318441E+06   0.3257235       
  4                1.49967547E-06   2.80357875E-04   158.83710618     5.00373256E-08   1.27845849E+16   1.36132619E+07   0.00000000E+00   1.29492120E+06   0.32340727      
  5                1.84912550E-06   4.09052691E-04   167.17242168     6.93654356E-08   1.77231315E+16   1.36132619E+07   0.00000000E+00   1.28801335E+06   0.323609        
  6                2.28000336E-06   5.65212906E-04   174.65925287     9.17254974E-08   2.34393903E+16   1.36132619E+07   0.00000000E+00   1.28182245E+06   0.3206535       
  7                2.81128314E-06   7.55196844E-04   180.98450450     1.18291639E-07   3.02234901E+16   1.36132619E+07   0.00000000E+00   1.27605486E+06   0.32119577      
  8                3.46636019E-06   9.86490313E-04   187.39302357     1.49149323E-07   3.81298631E+16   1.36132619E+07   0.00000000E+00   1.27054836E+06   0.31828333      
  9                4.27408139E-06   1.26813328E-03   193.11497419     1.86161164E-07   4.75636080E+16   1.36132619E+07   0.00000000E+00   1.26520341E+06   0.31882913      
  10               5.27001545E-06   1.61148259E-03   199.13309014     2.29415269E-07   5.86148995E+16   1.36132619E+07   0.00000000E+00   1.25994952E+06   0.31600966      
  11               6.49801917E-06   2.03018661E-03   204.73742871     2.81111653E-07   7.18231673E+16   1.36132619E+07   0.00000000E+00   1.25473570E+06   0.31646415      
  12               8.01216876E-06   2.54083056E-03   210.68310906     3.41889782E-07   8.73517934E+16   1.36132619E+07   0.00000000E+00   1.24952692E+06   0.31382222      
  13               9.87914110E-06   3.16351853E-03   216.30598130     4.14612115E-07   1.05932127E+17   1.36132619E+07   0.00000000E+00   1.24429686E+06   0.3142054       
  14               1.21811499E-05   3.92280187E-03   222.24850611     5.00377367E-07   1.27844887E+17   1.36132619E+07   0.00000000E+00   1.23902536E+06   0.3118095       
  15               1.50195662E-05   4.84846420E-03   227.87736369     6.03174734E-07   1.54109299E+17   1.36132619E+07   0.00000000E+00   1.23369714E+06   0.31214109      
  16               1.85193820E-05   5.97653745E-03   233.89173693     7.24394094E-07   1.85080475E+17   1.36132619E+07   0.00000000E+00   1.22830044E+06   0.30998459      
  17               2.28347147E-05   7.35086000E-03   239.73134486     8.69267544E-07   2.22095198E+17   1.36132619E+07   0.00000000E+00   1.22282367E+06   0.31025954      
  18               2.81555937E-05   9.02477448E-03   245.95536417     1.04020801E-06   2.65769965E+17   1.36132619E+07   0.00000000E+00   1.21725699E+06   0.3083256       
  19               3.47163285E-05   1.10627123E-02   252.03394856     1.24435045E-06   3.17927733E+17   1.36132619E+07   0.00000000E+00   1.21159252E+06   0.30851759      
  20               4.28058268E-05   1.35424784E-02   258.58925359     1.48466276E-06   3.79326793E+17   1.36132619E+07   0.00000000E+00   1.20582319E+06   0.30683818      
  21               5.27803164E-05   1.65584497E-02   265.09227210     1.77077238E-06   4.52426927E+17   1.36132619E+07   0.00000000E+00   1.19994109E+06   0.30699424      
  22               6.50790328E-05   2.02246904E-02   272.05100594     2.10751988E-06   5.38464882E+17   1.36132619E+07   0.00000000E+00   1.19393968E+06   0.30552129      
  23               8.02435604E-05   2.46788271E-02   278.90946769     2.50842658E-06   6.40895318E+17   1.36132619E+07   0.00000000E+00   1.18781368E+06   0.30553497      
  24               9.89416822E-05   3.00878808E-02   286.16346298     2.98069509E-06   7.61558478E+17   1.36132619E+07   0.00000000E+00   1.18155818E+06   0.30427829      
  25               1.21996786E-04   3.66550262E-02   293.23436456     3.54371515E-06   9.05408379E+17   1.36132619E+07   0.00000000E+00   1.17516836E+06   0.30426991      
  26               1.50424124E-04   4.46255028E-02   300.72127381     4.20687013E-06   1.07484245E+18   1.36132619E+07   0.00000000E+00   1.16864044E+06   0.30328488      
  27               1.85475517E-04   5.42941814E-02   308.12739427     4.99531770E-06   1.27628839E+18   1.36132619E+07   0.00000000E+00   1.16197074E+06   0.30325429      
  28               2.28694484E-04   6.60166978E-02   316.09634846     5.92071907E-06   1.51272560E+18   1.36132619E+07   0.00000000E+00   1.15515439E+06   0.30246713      
  29               2.81984210E-04   8.02211735E-02   324.09906357     7.01699831E-06   1.79282159E+18   1.36132619E+07   0.00000000E+00   1.14818552E+06   0.30243218      
  30               3.47691354E-04   9.74229082E-02   332.73421997     8.30049061E-06   2.12074993E+18   1.36132619E+07   0.00000000E+00   1.14105790E+06   0.30178877      
  31               4.28709385E-04   1.18241120E-01   341.47337418     9.81639056E-06   2.50805773E+18   1.36132619E+07   0.00000000E+00   1.13376474E+06   0.30169698      
  32               5.28606003E-04   1.43422225E-01   350.87631636     1.15878416E-05   2.96065798E+18   1.36132619E+07   0.00000000E+00   1.12629857E+06   0.30117899      
  33               6.51780242E-04   1.73868071E-01   360.43103581     1.36753295E-05   3.49400479E+18   1.36132619E+07   0.00000000E+00   1.11865040E+06   0.3011454       
  34               8.03656185E-04   2.10655241E-01   370.78629244     1.61060471E-05   4.11504357E+18   1.36132619E+07   0.00000000E+00   1.11081189E+06   0.30080351      
  35               9.90921819E-04   2.55066646E-01   381.48548272     1.89546610E-05   4.84285532E+18   1.36132619E+07   0.00000000E+00   1.10277401E+06   0.3007282       
  36               1.22182355E-03   3.08620856E-01   393.16671280     2.22530168E-05   5.68557470E+18   1.36132619E+07   0.00000000E+00   1.09452805E+06   0.30038641      
  37               1.50652933E-03   3.73104623E-01   405.27331108     2.60989475E-05   6.66819767E+18   1.36132619E+07   0.00000000E+00   1.08606660E+06   0.30031496      
  38               1.85757643E-03   4.50619637E-01   418.43841163     3.05294365E-05   7.80017611E+18   1.36132619E+07   0.00000000E+00   1.07738270E+06   0.30013412      
  39               2.29042351E-03   5.43670577E-01   432.21227682     3.56600994E-05   9.11096904E+18   1.36132619E+07   0.00000000E+00   1.06846462E+06   0.30009011      
  40               2.82413135E-03   6.55222626E-01   447.25698700     4.15313040E-05   1.06110312E+19   1.36132619E+07   0.00000000E+00   1.05929823E+06   0.29989705      
  41               3.48220225E-03   7.88693708E-01   463.17437385     4.82733811E-05   1.23335953E+19   1.36132619E+07   0.00000000E+00   1.04987184E+06   0.29981669      
  42               4.29361493E-03   9.48018052E-01   480.77283609     5.59012134E-05   1.42824438E+19   1.36132619E+07   0.00000000E+00   1.04017304E+06   0.29969278      
  43               5.29410063E-03   1.13782962E+00   499.76764823     6.45437910E-05   1.64905422E+19   1.36132619E+07   0.00000000E+00   1.03018029E+06   0.29964657      
  44               6.52771662E-03   1.36347774E+00   519.87055171     7.43588860E-05   1.89967224E+19   1.36132619E+07   0.00000000E+00   1.01988005E+06   0.29948609      
  45               8.04878622E-03   1.63122121E+00   541.11404827     8.54681589E-05   2.18348338E+19   1.36132619E+07   0.00000000E+00   1.00925942E+06   0.29937713      
  46               9.92429106E-03   1.94815184E+00   564.19699003     9.78976472E-05   2.50102410E+19   1.36132619E+07   0.00000000E+00   9.98302821E+05   0.29919071      
  47               1.22368206E-02   2.32285872E+00   588.50949784     1.11904978E-04   2.85887496E+19   1.36132619E+07   0.00000000E+00   9.86981924E+05   0.29908265      
  48               1.50882091E-02   2.76457074E+00   614.59217354     1.27532407E-04   3.25811584E+19   1.36132619E+07   0.00000000E+00   9.75289508E+05   0.29883489      
  49               1.86040198E-02   3.28302957E+00   641.79315563     1.45030479E-04   3.70514794E+19   1.36132619E+07   0.00000000E+00   9.63234310E+05   0.29861347      
  50               2.29390746E-02   3.88980106E+00   670.55788528     1.64463778E-04   4.20162178E+19   1.36132619E+07   0.00000000E+00   9.50810340E+05   0.29824914      
  51               2.82842712E-02   4.59975533E+00   700.21530655     1.86243766E-04   4.75804966E+19   1.36132619E+07   0.00000000E+00   9.37982475E+05   0.29797561      
  52               3.48749902E-02   5.42873842E+00   731.20739862     2.10492365E-04   5.37754655E+19   1.36132619E+07   0.00000000E+00   9.24742516E+05   0.29747064      
  53               4.30014593E-02   6.39305496E+00   763.00642164     2.37551441E-04   6.06884554E+19   1.36132619E+07   0.00000000E+00   9.11105398E+05   0.29702947      
  54               5.30215347E-02   7.51122586E+00   796.26022883     2.67443948E-04   6.83253141E+19   1.36132619E+07   0.00000000E+00   8.97076840E+05   0.29631011      
  55               6.53764590E-02   8.81018745E+00   830.77019892     3.00665286E-04   7.68121779E+19   1.36132619E+07   0.00000000E+00   8.82591158E+05   0.29570511      
  56               8.06102920E-02   1.03188837E+01   867.37029644     3.37294672E-04   8.61695869E+19   1.36132619E+07   0.00000000E+00   8.67609629E+05   0.2947449       
  57               9.93938685E-02   1.20639463E+01   905.69615940     3.77648386E-04   9.64789811E+19   1.36132619E+07   0.00000000E+00   8.52147742E+05   0.29390573      
  58               1.22554340E-01   1.40683806E+01   946.17218914     4.21555096E-04   1.07696048E+20   1.36132619E+07   0.00000000E+00   8.36261511E+05   0.29265831      
  59               1.51111597E-01   1.63610201E+01   988.05782486     4.69471043E-04   1.19937186E+20   1.36132619E+07   0.00000000E+00   8.19964636E+05   0.29158303      
  60               1.86323183E-01   1.89855522E+01   1031.51740193    5.21831066E-04   1.33313004E+20   1.36132619E+07   0.00000000E+00   8.03196574E+05   0.29008037      
  61               2.29739671E-01   2.19834370E+01   1075.49911774    5.79537844E-04   1.48051010E+20   1.36132619E+07   0.00000000E+00   7.85957636E+05   0.28876794      
  62               2.83272943E-01   2.53950674E+01   1119.81917508    6.42979833E-04   1.64258295E+20   1.36132619E+07   0.00000000E+00   7.68284140E+05   0.28707045      
  63               3.49280383E-01   2.92671605E+01   1163.48758014    7.13206239E-04   1.82198449E+20   1.36132619E+07   0.00000000E+00   7.50202425E+05   0.28567824      
  64               4.30668686E-01   3.36646106E+01   1206.90420891    7.90859112E-04   2.02035010E+20   1.36132619E+07   0.00000000E+00   7.31686560E+05   0.28394932      
  65               5.31021855E-01   3.86777900E+01   1249.29631253    8.77805677E-04   2.24244620E+20   1.36132619E+07   0.00000000E+00   7.12659799E+05   0.28258839      
  66               6.54759028E-01   4.43890688E+01   1291.29836919    9.74667415E-04   2.48986197E+20   1.36132619E+07   0.00000000E+00   6.93134107E+05   0.28087637      
  67               8.07329079E-01   5.08712231E+01   1332.38200628    1.08256466E-03   2.76547196E+20   1.36132619E+07   0.00000000E+00   6.73178508E+05   0.27955221      
  68               9.95450561E-01   5.81873692E+01   1373.52380570    1.20116639E-03   3.06844519E+20   1.36132619E+07   0.00000000E+00   6.52889795E+05   0.27787893      
  69               1.22740757E+00   6.64226523E+01   1414.48609896    1.33145319E-03   3.40128771E+20   1.36132619E+07   0.00000000E+00   6.32297028E+05   0.27658025      
  70               1.51341452E+00   7.57466391E+01   1456.58400113    1.47445914E-03   3.76663617E+20   1.36132619E+07   0.00000000E+00   6.11253276E+05   0.27483978      
  71               1.86606598E+00   8.62992489E+01   1499.68590178    1.63157623E-03   4.16804642E+20   1.36132619E+07   0.00000000E+00   5.89738303E+05   0.27345734      
  72               2.30089127E+00   9.81733277E+01   1545.03046187    1.80157401E-03   4.60237821E+20   1.36132618E+07   0.00000000E+00   5.67836925E+05   0.27165602      
  73               2.83703828E+00   1.11404163E+02   1592.27797787    1.98368363E-03   5.06767054E+20   1.36132618E+07   0.00000000E+00   5.45704621E+05   0.27019618      
  74               3.49811672E+00   1.25963093E+02   1642.46652091    2.17436533E-03   5.55485378E+20   1.36132743E+07   0.00000000E+00   5.23536470E+05   0.26832256      
  75               4.31323774E+00   1.41839410E+02   1695.79023412    2.37140356E-03   6.05829793E+20   1.31513248E+07   4.61936285E+05   5.01426674E+05   0.26674849      
  76               5.31829590E+00   1.59037129E+02   1747.85827074    2.58092518E-03   6.59049680E+20   1.22847920E+07   1.32846929E+06   4.79441699E+05   0.26489713      
  77               6.55754979E+00   1.77630903E+02   1799.94123990    2.79921200E-03   7.14802455E+20   1.13455013E+07   2.26776009E+06   4.57565862E+05   0.26337457      
  78               8.08557104E+00   1.97675996E+02   1850.90188463    3.02933018E-03   7.73564225E+20   1.03205494E+07   3.29271208E+06   4.35797806E+05   0.2615358       
  79               9.96964736E+00   2.18969600E+02   1901.17849151    3.26724316E-03   8.34231862E+20   9.19892532E+06   4.41433612E+06   4.14393963E+05   0.26004309      
  80               1.22927457E+01   2.41020346E+02   1948.82609021    3.50918658E-03   8.95790515E+20   8.24825041E+06   5.36501107E+06   3.93800117E+05   0.25823889      
  81               1.51571657E+01   2.65287535E+02   1997.75743895    3.76985195E-03   9.61833563E+20   7.37416545E+06   6.23909618E+06   3.72700818E+05   0.25690542      
  82               1.86890445E+01   2.90141834E+02   2043.94197368    4.03355199E-03   1.02817640E+21   6.33197724E+06   7.28144589E+06   3.52544168E+05   0.25505027      
  83               2.30439114E+01   3.14832728E+02   2086.93586761    4.28646957E-03   1.09268909E+21   5.66130612E+06   7.95221911E+06   3.33766394E+05   0.25397593      
  84               2.84135369E+01   3.42912389E+02   2132.55552554    4.56867572E-03   1.16468550E+21   4.97126211E+06   8.64199918E+06   3.13701004E+05   0.25227133      
  85               3.50343769E+01   3.68628457E+02   2171.66078219    4.82404635E-03   1.22948351E+21   4.00043198E+06   9.61282948E+06   2.96377952E+05   0.25121801      
  86               4.31979859E+01   3.90082530E+02   2202.73312200    5.03260651E-03   1.28268631E+21   3.42073213E+06   1.01925294E+07   2.82608771E+05   0.2491774       
  87               5.32638553E+01   4.15094033E+02   2236.86106459    5.27342375E-03   1.34410538E+21   3.22566290E+06   1.03880370E+07   2.67255628E+05   0.24846086      
  88               6.56752445E+01   4.44241734E+02   2275.04880642    5.54879367E-03   1.41434213E+21   3.01497311E+06   1.05988868E+07   2.50216037E+05   0.24661154      
  89               8.09786996E+01   4.78071510E+02   2316.15575483    5.86487404E-03   1.49503356E+21   2.57944020E+06   1.10338209E+07   2.31463028E+05   0.24603031      
  90               9.98481215E+01   5.05005325E+02   2347.95015880    6.11735272E-03   1.55787613E+21   1.96663580E+06   1.16466254E+07   2.17241017E+05   0.24391733      
  91               1.23114441E+02   5.25066392E+02   2369.73849461    6.30161334E-03   1.60486918E+21   1.65561173E+06   1.19576496E+07   2.07023467E+05   0.24274589      
  92               1.51802212E+02   5.48898636E+02   2395.93684647    6.51535782E-03   1.65936767E+21   1.57860158E+06   1.20365722E+07   1.95261765E+05   0.24200733      
  93               1.87174723E+02   5.77294254E+02   2424.75035294    6.77069298E-03   1.72447159E+21   1.48354493E+06   1.21425269E+07   1.81742100E+05   0.24031404      
  94               2.30789634E+02   6.11004185E+02   2458.45629362    7.06742126E-03   1.80014518E+21   1.39215657E+06   1.22330312E+07   1.66331793E+05   0.238308        
  95               2.84567566E+02   6.50870096E+02   2495.06694569    7.41761864E-03   1.88946110E+21   1.28937021E+06   1.23397836E+07   1.48920162E+05   0.23593651      
  96               3.50876675E+02   6.97835914E+02   2536.75312253    7.82156878E-03   1.99251203E+21   1.19259244E+06   1.24360087E+07   1.29421564E+05   0.23323151      
  97               4.32636941E+02   7.52960778E+02   2581.31292750    8.29300774E-03   2.11279586E+21   1.09435894E+06   1.25396085E+07   1.07777173E+05   0.23013395      
  98               5.33448747E+02   8.17410202E+02   2630.78511546    8.83258583E-03   2.25050777E+21   1.00540587E+06   1.26285749E+07   8.39638442E+04   0.22672611      
  99               6.57751428E+02   8.92434274E+02   2682.71135284    9.45544421E-03   2.40950667E+21   9.19921196E+05   1.27210626E+07   5.80031140E+04   0.22295495      
  100              8.11018759E+02   9.79327238E+02   2738.95336539    1.01615128E-02   2.58981675E+21   8.51414617E+05   1.27903446E+07   2.99703505E+04   0.22068527      
  101              1.00000000E+03   1.07935538E+03   2797.69246404    1.09624026E-02   2.79441130E+21   8.13513783E+05   1.28018005E+07   0.00000000E+00   0.21818325      
