# ATMO pressure-temperature profile
# Effective temperature = 500.0K
# log(g) = 3.5cm/s^2
# M/H = 0.0
# Optical depth grid in band 17 (1.20-1.33microns)
# All parameters in cgs units
#
# Model Level      Optical Depth    Pressure         Temperature      Density          Number Density   Rad Flux         Conv Flux        Radial Extension Adiabatic Gradient
#                                   [Ba]             [K]              [g/cm^3]         [/cm^3]          [ergs/s/cm^2/sr] [ergs/s/cm^2/sr] [cm]             [K/Ba]          
  1                5.00000000E-05   1.00000000E-05   70.49741246      4.01846891E-09   1.02743099E+15   3.54356485E+06   0.00000000E+00   9.84487469E+07   0.34574545      
  2                5.91534807E-05   1.00439998E-04   94.03213194      3.02561649E-08   7.73670881E+15   3.54356485E+06   0.00000000E+00   9.58550256E+07   0.34574535      
  3                6.99826855E-05   1.95006675E-04   107.51866540     5.13806446E-08   1.31368564E+16   3.54356485E+06   0.00000000E+00   9.50965678E+07   0.31479369      
  4                8.27943887E-05   3.00274121E-04   120.28957198     7.07170526E-08   1.80807218E+16   3.54356485E+06   0.00000000E+00   9.45443223E+07   0.3150729       
  5                9.79515255E-05   4.19856173E-04   128.40604689     9.26294947E-08   2.36832286E+16   3.54356485E+06   0.00000000E+00   9.40770938E+07   0.32119559      
  6                1.15883473E-04   5.56954641E-04   138.28969599     1.14094373E-07   2.91713041E+16   3.54356485E+06   0.00000000E+00   9.36553722E+07   0.32296356      
  7                1.37098216E-04   7.14911184E-04   144.76177816     1.39904694E-07   3.57704185E+16   3.54356485E+06   0.00000000E+00   9.32600153E+07   0.32522826      
  8                1.62196734E-04   8.97492574E-04   153.86775255     1.65240763E-07   4.22482859E+16   3.54356485E+06   0.00000000E+00   9.28802793E+07   0.32566405      
  9                1.91890027E-04   1.10902477E-03   159.53762192     1.96927653E-07   5.03505214E+16   3.54356485E+06   0.00000000E+00   9.25094581E+07   0.32586729      
  10               2.27019260E-04   1.35464468E-03   168.18485744     2.28177468E-07   5.83397203E+16   3.54356485E+06   0.00000000E+00   9.21430426E+07   0.32570711      
  11               2.68579588E-04   1.64015044E-03   173.61377422     2.67599473E-07   6.84266608E+16   3.54356485E+06   0.00000000E+00   9.17776701E+07   0.32474277      
  12               3.17748350E-04   1.97231253E-03   182.16131890     3.06728380E-07   7.84233540E+16   3.54356485E+06   0.00000000E+00   9.14110380E+07   0.32432328      
  13               3.75918418E-04   2.35867503E-03   187.56999668     3.56006045E-07   9.10815848E+16   3.54356485E+06   0.00000000E+00   9.10413041E+07   0.32269475      
  14               4.44737657E-04   2.80819255E-03   196.30582022     4.05254952E-07   1.03614264E+17   3.54356485E+06   0.00000000E+00   9.06670610E+07   0.3221192       
  15               5.26155608E-04   3.33123297E-03   201.96288704     4.67272795E-07   1.19470113E+17   3.54356485E+06   0.00000000E+00   9.02869716E+07   0.3201415       
  16               6.22478712E-04   3.93987978E-03   210.74287165     5.29623367E-07   1.35411614E+17   3.54356485E+06   0.00000000E+00   8.99000735E+07   0.3194652       
  17               7.36435649E-04   4.64835223E-03   216.40983668     6.08497921E-07   1.55577888E+17   3.54356485E+06   0.00000000E+00   8.95054256E+07   0.31737335      
  18               8.71254639E-04   5.47305357E-03   225.17025136     6.88582139E-07   1.76053444E+17   3.54356485E+06   0.00000000E+00   8.91025330E+07   0.31664577      
  19               1.03075489E-03   6.43274833E-03   230.85296076     7.89401904E-07   2.01830572E+17   3.54356485E+06   0.00000000E+00   8.86909038E+07   0.31460425      
  20               1.21945479E-03   7.54967999E-03   239.51460339     8.92963329E-07   2.28308660E+17   3.54356485E+06   0.00000000E+00   8.82702152E+07   0.31389476      
  21               1.44269991E-03   8.84962592E-03   245.15334976     1.02264327E-06   2.61464614E+17   3.54356485E+06   0.00000000E+00   8.78400390E+07   0.31202493      
  22               1.70681442E-03   1.03626822E-02   253.84637417     1.15648047E-06   2.95683476E+17   3.54356485E+06   0.00000000E+00   8.74000682E+07   0.3113682       
  23               2.01928028E-03   1.21231287E-02   259.72906744     1.32230381E-06   3.38080404E+17   3.54356485E+06   0.00000000E+00   8.69498863E+07   0.30971774      
  24               2.38894914E-03   1.41712473E-02   268.64271342     1.49441118E-06   3.82084001E+17   3.54356485E+06   0.00000000E+00   8.64891479E+07   0.30913247      
  25               2.82629313E-03   1.65534124E-02   274.77652001     1.70665217E-06   4.36348771E+17   3.54356485E+06   0.00000000E+00   8.60174496E+07   0.30773428      
  26               3.34370152E-03   1.93236314E-02   283.97908173     1.92770023E-06   4.92865289E+17   3.54356485E+06   0.00000000E+00   8.55344777E+07   0.30723307      
  27               3.95583167E-03   2.25436503E-02   290.57003309     2.19791315E-06   5.61952045E+17   3.54356485E+06   0.00000000E+00   8.50397874E+07   0.30611315      
  28               4.68002425E-03   2.62855246E-02   300.26753069     2.47996410E-06   6.34065490E+17   3.54356485E+06   0.00000000E+00   8.45329587E+07   0.30567964      
  29               5.53679448E-03   3.06323169E-02   307.35024141     2.82347152E-06   7.21891830E+17   3.54356485E+06   0.00000000E+00   8.40134958E+07   0.30467998      
  30               6.55041330E-03   3.56806576E-02   317.49361547     3.18372087E-06   8.13998666E+17   3.54356485E+06   0.00000000E+00   8.34810328E+07   0.30426411      
  31               7.74959494E-03   4.15405124E-02   325.13456737     3.61947721E-06   9.25410758E+17   3.54356485E+06   0.00000000E+00   8.29351537E+07   0.30343371      
  32               9.16831029E-03   4.83382226E-02   335.99480969     4.07563476E-06   1.04203894E+18   3.54356485E+06   0.00000000E+00   8.23754708E+07   0.30309093      
  33               1.08467493E-02   5.62167811E-02   344.57868833     4.62183816E-06   1.18168957E+18   3.54356485E+06   0.00000000E+00   8.18014313E+07   0.30246177      
  34               1.28324595E-02   6.53430427E-02   356.50218904     5.19247390E-06   1.32758700E+18   3.54356485E+06   0.00000000E+00   8.12123186E+07   0.30216549      
  35               1.51816929E-02   7.59073067E-02   366.34043182     5.86997380E-06   1.50080604E+18   3.54356485E+06   0.00000000E+00   8.06072089E+07   0.30165614      
  36               1.79609996E-02   8.81256755E-02   379.67718698     6.57544875E-06   1.68117838E+18   3.54356485E+06   0.00000000E+00   7.99852919E+07   0.30140188      
  37               2.12491128E-02   1.02237472E-01   391.13379395     7.40495137E-06   1.89326149E+18   3.54356485E+06   0.00000000E+00   7.93457655E+07   0.30098878      
  38               2.51391797E-02   1.18512496E-01   406.24850219     8.26436814E-06   2.11299375E+18   3.54356485E+06   0.00000000E+00   7.86878718E+07   0.30076222      
  39               2.97413996E-02   1.37242650E-01   419.84991762     9.26054227E-06   2.36766831E+18   3.54356485E+06   0.00000000E+00   7.80108237E+07   0.30044447      
  40               3.51861462E-02   1.58749349E-01   437.70054221     1.02748676E-05   2.62700385E+18   3.54356485E+06   0.00000000E+00   7.73136075E+07   0.30029185      
  41               4.16276604E-02   1.83352878E-01   456.21480501     1.13856965E-05   2.91101335E+18   3.53035433E+06   1.32105154E+04   7.65942753E+07   0.30010173      
  42               4.92484201E-02   2.11428449E-01   477.00772165     1.25568493E-05   3.21043480E+18   3.49766155E+06   4.59032999E+04   7.58517532E+07   0.2999775       
  43               5.82643093E-02   2.43421057E-01   496.69316536     1.38850208E-05   3.54973391E+18   3.44986961E+06   9.36952334E+04   7.50855490E+07   0.29978508      
  44               6.89307339E-02   2.79829781E-01   518.82279443     1.52809797E-05   3.90661599E+18   3.38292565E+06   1.60639197E+05   7.42951314E+07   0.29966014      
  45               8.15498567E-02   3.21237328E-01   539.74475029     1.68621564E-05   4.31085502E+18   3.29702551E+06   2.46539335E+05   7.34793997E+07   0.29953782      
  46               9.64791575E-02   3.68313887E-01   563.32902497     1.85238186E-05   4.73567408E+18   3.19169553E+06   3.51869320E+05   7.26370684E+07   0.29945327      
  47               1.14141560E-01   4.21781971E-01   585.60325169     2.04060068E-05   5.21687429E+18   3.07147691E+06   4.72087940E+05   7.17674067E+07   0.29930022      
  48               1.35037411E-01   4.82442417E-01   610.73036768     2.23804299E-05   5.72165686E+18   2.94062932E+06   6.02935524E+05   7.08697870E+07   0.29915776      
  49               1.59758657E-01   5.51169461E-01   634.40415581     2.46144796E-05   6.29281503E+18   2.80983126E+06   7.33733587E+05   6.99438145E+07   0.29894942      
  50               1.89005613E-01   6.29040028E-01   661.14936439     2.69556263E-05   6.89135364E+18   2.68545553E+06   8.58109321E+05   6.89878246E+07   0.29877222      
  51               2.23606798E-01   7.17240630E-01   686.34233942     2.96069849E-05   7.56919916E+18   2.57312493E+06   9.70439917E+05   6.80005232E+07   0.29849988      
  52               2.64542408E-01   8.17002340E-01   714.81558052     3.23816463E-05   8.27856627E+18   2.47495628E+06   1.06860857E+06   6.69816565E+07   0.2982211       
  53               3.12972084E-01   9.29640195E-01   741.54343820     3.55179373E-05   9.08038236E+18   2.39382224E+06   1.14974261E+06   6.59313620E+07   0.29778503      
  54               3.70267763E-01   1.05661105E+00   771.71207703     3.87910710E-05   9.91712277E+18   2.33270678E+06   1.21085806E+06   6.48496418E+07   0.29739918      
  55               4.38052539E-01   1.19976617E+00   799.98903837     4.24898180E-05   1.08627158E+19   2.29281413E+06   1.25075072E+06   6.37345806E+07   0.29685446      
  56               5.18246648E-01   1.36116808E+00   831.97302221     4.63529022E-05   1.18502729E+19   2.27435937E+06   1.26920548E+06   6.25845005E+07   0.29636055      
  57               6.13121862E-01   1.54288968E+00   861.90385584     5.07166270E-05   1.29658768E+19   2.27620005E+06   1.26736479E+06   6.13992970E+07   0.29558231      
  58               7.25365844E-01   1.74701603E+00   895.66738426     5.52617376E-05   1.41278466E+19   2.29986425E+06   1.24370060E+06   6.01799938E+07   0.29485864      
  59               8.58158289E-01   1.97582779E+00   927.11056940     6.03799411E-05   1.54363067E+19   2.34793032E+06   1.19563453E+06   5.89273723E+07   0.29384869      
  60               1.01526100E+00   2.23199868E+00   962.52497023     6.56991216E-05   1.67960736E+19   2.41953956E+06   1.12402528E+06   5.76411857E+07   0.29300761      
  61               1.20112443E+00   2.51875163E+00   995.46429342     7.16885249E-05   1.83267517E+19   2.51592884E+06   1.02763601E+06   5.63198761E+07   0.29184298      
  62               1.42101382E+00   2.83947163E+00   1032.57776901    7.79118738E-05   1.99177650E+19   2.63238976E+06   9.11175089E+05   5.49628148E+07   0.29071178      
  63               1.68115827E+00   3.19775891E+00   1066.99246701    8.49125228E-05   2.17075197E+19   2.76898075E+06   7.74584093E+05   5.35698384E+07   0.28934139      
  64               1.98892727E+00   3.59743861E+00   1105.74401394    9.21773597E-05   2.35648476E+19   2.91889704E+06   6.24667801E+05   5.21412268E+07   0.28807361      
  65               2.35303941E+00   4.04317265E+00   1141.58838619    1.00345151E-04   2.56530250E+19   3.08589217E+06   4.57672676E+05   5.06756265E+07   0.28652274      
  66               2.78380943E+00   4.54069996E+00   1182.03584971    1.08836866E-04   2.78238996E+19   3.25632417E+06   2.87240676E+05   4.91701263E+07   0.28516423      
  67               3.29344035E+00   5.09643052E+00   1219.49818904    1.18406641E-04   3.02698861E+19   3.42817311E+06   1.15391741E+05   4.76220641E+07   0.28353289      
  68               3.89636920E+00   5.71771681E+00   1261.86327641    1.28387874E-04   3.28198189E+19   3.54356485E+06   0.00000000E+00   4.60286005E+07   0.2822748       
  69               4.60967600E+00   6.41495577E+00   1299.90420255    1.39841590E-04   3.57444121E+19   3.54356485E+06   0.00000000E+00   4.43830822E+07   0.2807729       
  70               5.45356761E+00   7.20608342E+00   1339.48079538    1.52460639E-04   3.89662519E+19   3.54356485E+06   0.00000000E+00   4.26697069E+07   0.27955359      
  71               6.45195012E+00   8.11722026E+00   1377.26238222    1.67029910E-04   4.26890495E+19   3.54356485E+06   0.00000000E+00   4.08641480E+07   0.27804205      
  72               7.63310614E+00   9.18195155E+00   1417.98807503    1.83505144E-04   4.69016647E+19   3.54356485E+06   0.00000000E+00   3.89409510E+07   0.27676003      
  73               9.03049593E+00   1.04299280E+01   1458.09061337    2.02702690E-04   5.18110789E+19   3.54356485E+06   0.00000000E+00   3.68947115E+07   0.27513676      
  74               1.06837053E+01   1.18849791E+01   1501.90053460    2.24231299E-04   5.73169523E+19   3.54356485E+06   0.00000000E+00   3.47364472E+07   0.27372833      
  75               1.26395671E+01   1.35616285E+01   1545.75553070    2.48597236E-04   6.35472663E+19   3.54356485E+06   0.00000000E+00   3.24907563E+07   0.27201256      
  76               1.49534878E+01   1.54630191E+01   1593.70945537    2.74917020E-04   7.02766390E+19   3.54356485E+06   0.00000000E+00   3.01907552E+07   0.27049804      
  77               1.76910170E+01   1.75676604E+01   1641.76936949    3.03322003E-04   7.75046249E+19   3.54356485E+06   0.00000000E+00   2.78857911E+07   0.26869174      
  78               2.09297047E+01   1.98403130E+01   1693.80260218    3.32030309E-04   8.48421298E+19   3.54356485E+06   0.00000000E+00   2.56211692E+07   0.2670714       
  79               2.47612977E+01   2.22309227E+01   1745.67929393    3.61011770E-04   9.22399092E+19   3.29833244E+06   2.45235970E+05   2.34376052E+07   0.26519172      
  80               2.92943389E+01   2.46183139E+01   1793.55163188    3.89216974E-04   9.94191992E+19   2.86093493E+06   6.82629924E+05   2.14235223E+07   0.26358479      
  81               3.46572422E+01   2.67982134E+01   1833.80848049    4.14655768E-04   1.05846793E+20   2.35000721E+06   1.19355763E+06   1.97075147E+07   0.26201314      
  82               4.10019301E+01   2.85870712E+01   1865.18348291    4.35236231E-04   1.11013026E+20   2.02593592E+06   1.51781538E+06   1.83758809E+07   0.26079949      
  83               4.85081376E+01   3.05379258E+01   1897.36175612    4.57043817E-04   1.16577633E+20   1.91541018E+06   1.62839194E+06   1.69926849E+07   0.25959027      
  84               5.73885036E+01   3.26910923E+01   1931.28015700    4.80659422E-04   1.22605512E+20   1.69814502E+06   1.84541981E+06   1.55399703E+07   0.25849538      
  85               6.78945948E+01   3.44133831E+01   1956.87440153    4.99507354E-04   1.27376777E+20   1.37759170E+06   2.16597314E+06   1.44283972E+07   0.25746248      
  86               8.03240320E+01   3.56684488E+01   1975.11097011    5.12933989E-04   1.30803258E+20   1.20473021E+06   2.33883467E+06   1.36443089E+07   0.25682664      
  87               9.50289215E+01   3.70836814E+01   1994.79564862    5.28015040E-04   1.34651213E+20   1.15851015E+06   2.38605038E+06   1.27843572E+07   0.25592541      
  88               1.12425830E+02   3.86840585E+01   2016.56554808    5.44845730E-04   1.38945833E+20   1.11270428E+06   2.43217270E+06   1.18408123E+07   0.25513769      
  89               1.33007583E+02   4.04850339E+01   2039.96242877    5.63659910E-04   1.43746798E+20   1.06059576E+06   2.48413837E+06   1.08131212E+07   0.25402525      
  90               1.57357229E+02   4.25034104E+01   2065.37975223    5.84442468E-04   1.49056082E+20   9.33799778E+05   2.60976506E+06   9.70107484E+06   0.25308456      
  91               1.86164557E+02   4.39607577E+01   2082.93252809    5.99905560E-04   1.52867727E+20   7.57239993E+05   2.78632496E+06   8.92267264E+06   0.25212151      
  92               2.20245630E+02   4.49741014E+01   2095.01277292    6.10181953E-04   1.55489712E+20   6.70665108E+05   2.87289980E+06   8.39302653E+06   0.25160364      
  93               2.60565913E+02   4.61320547E+01   2108.35240844    6.21921465E-04   1.58484004E+20   6.50085915E+05   2.89816973E+06   7.79860619E+06   0.25075284      
  94               3.08267614E+02   4.74613814E+01   2123.48288757    6.35270271E-04   1.61889040E+20   6.31376160E+05   2.91876474E+06   7.12982386E+06   0.25011812      
  95               3.64702046E+02   4.89826412E+01   2140.20883480    6.50492776E-04   1.65772271E+20   6.10226889E+05   2.94033557E+06   6.38147695E+06   0.2494159       
  96               4.31467909E+02   5.07178940E+01   2158.92305779    6.67679429E-04   1.70157026E+20   5.88142909E+05   2.96284285E+06   5.54883619E+06   0.24862329      
  97               5.10456573E+02   5.26907617E+01   2179.39332751    6.87113172E-04   1.75115545E+20   5.63961721E+05   2.98766426E+06   4.62775061E+06   0.24774418      
  98               6.03905660E+02   5.49264964E+01   2201.98454157    7.08891537E-04   1.80673090E+20   5.38897399E+05   3.01339261E+06   3.61473425E+06   0.24675096      
  99               7.14462436E+02   5.74520942E+01   2226.41655236    7.33316564E-04   1.86906877E+20   5.12235445E+05   3.03391359E+06   2.50701725E+06   0.24565096      
  100              8.45258798E+02   6.02964699E+01   2253.02294147    7.60491766E-04   1.93843888E+20   4.85280117E+05   3.06890832E+06   1.30255200E+06   0.24443996      
  101              1.00000000E+03   6.34906433E+01   2281.47698623    7.90738937E-04   2.01567020E+20   4.70194136E+05   3.08348120E+06   0.00000000E+00   0.24313058      
