# ATMO pressure-temperature profile
# Effective temperature = 1500.0K
# log(g) = 5.5cm/s^2
# M/H = 0.0
# Optical depth grid in band 17 (1.20-1.33microns)
# All parameters in cgs units
#
# Model Level      Optical Depth    Pressure         Temperature      Density          Number Density   Rad Flux         Conv Flux        Radial Extension Adiabatic Gradient
#                                   [Ba]             [K]              [g/cm^3]         [/cm^3]          [ergs/s/cm^2/sr] [ergs/s/cm^2/sr] [cm]             [K/Ba]          
  1                1.00000000E-07   1.00000000E-05   479.49065590     5.90945754E-10   1.51058682E+14   2.87034472E+08   0.00000000E+00   2.36696448E+06   0.2975624       
  2                1.25892541E-07   2.49689003E-05   503.17703027     1.40606814E-09   3.59421826E+14   2.87034472E+08   0.00000000E+00   2.31503513E+06   0.29762808      
  3                1.58489319E-07   4.32420898E-05   516.47473038     2.37238607E-09   6.06433852E+14   2.87034472E+08   0.00000000E+00   2.28339644E+06   0.29775168      
  4                1.99526231E-07   6.58858700E-05   522.43071902     3.57348013E-09   9.13459756E+14   2.87034472E+08   0.00000000E+00   2.25880350E+06   0.29772423      
  5                2.51188643E-07   9.40258855E-05   532.54532903     5.00286339E-09   1.27884141E+15   2.87034472E+08   0.00000000E+00   2.23775751E+06   0.29781383      
  6                3.16227766E-07   1.29018722E-04   537.80273985     6.79763012E-09   1.73762303E+15   2.87034472E+08   0.00000000E+00   2.21878210E+06   0.29778907      
  7                3.98107171E-07   1.72551951E-04   547.51624188     8.92998399E-09   2.28269931E+15   2.87034472E+08   0.00000000E+00   2.20111291E+06   0.2978582       
  8                5.01187234E-07   2.26704574E-04   552.90830229     1.16180969E-08   2.96983972E+15   2.87034472E+08   0.00000000E+00   2.18430062E+06   0.29881153      
  9                6.30957344E-07   2.94069807E-04   562.63265070     1.48099406E-08   3.78574489E+15   2.87034472E+08   0.00000000E+00   2.16806041E+06   0.29868517      
  10               7.94328235E-07   3.77848237E-04   568.31755628     1.88388393E-08   4.81561953E+15   2.87034472E+08   0.00000000E+00   2.15219949E+06   0.29872332      
  11               1.00000000E-06   4.82033890E-04   578.10799092     2.36263412E-08   6.03940897E+15   2.87034471E+08   0.00000000E+00   2.13658303E+06   0.29858846      
  12               1.25892541E-06   6.11562462E-04   584.02998844     2.96710932E-08   7.58457958E+15   2.87034471E+08   0.00000000E+00   2.12111266E+06   0.29862233      
  13               1.58489319E-06   7.72586994E-04   593.86349518     3.68628253E-08   9.42294383E+15   2.87034471E+08   0.00000000E+00   2.10571585E+06   0.29847688      
  14               1.99526231E-06   9.72708000E-04   600.00745559     4.59360567E-08   1.17422597E+16   2.87034470E+08   0.00000000E+00   2.09033708E+06   0.29850529      
  15               2.51188643E-06   1.22137199E-03   609.98949134     5.67353441E-08   1.45027861E+16   2.87034470E+08   0.00000000E+00   2.07493394E+06   0.29834848      
  16               3.16227766E-06   1.53023363E-03   616.42596089     7.03404119E-08   1.79805371E+16   2.87034469E+08   0.00000000E+00   2.05947304E+06   0.29837123      
  17               3.98107171E-06   1.91378076E-03   626.66563269     8.65335401E-08   2.21198484E+16   2.87034468E+08   0.00000000E+00   2.04392685E+06   0.29820102      
  18               5.01187234E-06   2.39005099E-03   633.37869829     1.06923178E-07   2.73318830E+16   2.87034467E+08   0.00000000E+00   2.02826925E+06   0.29821519      
  19               6.30957344E-06   2.98149555E-03   643.80844095     1.31221862E-07   3.35431109E+16   2.87034465E+08   0.00000000E+00   2.01247950E+06   0.29803452      
  20               7.94328235E-06   3.71594388E-03   650.69046356     1.61816719E-07   4.13638110E+16   2.87034464E+08   0.00000000E+00   1.99654104E+06   0.2980412       
  21               1.00000000E-05   4.62800305E-03   661.22257029     1.98323783E-07   5.06957797E+16   2.87034461E+08   0.00000000E+00   1.98044111E+06   0.29784651      
  22               1.25892541E-05   5.76055152E-03   668.15920845     2.44295240E-07   6.24467653E+16   2.87034458E+08   0.00000000E+00   1.96417019E+06   0.29784721      
  23               1.58489319E-05   7.16684564E-03   678.74584169     2.99193202E-07   7.64797938E+16   2.87034455E+08   0.00000000E+00   1.94772106E+06   0.2976402       
  24               1.99526231E-05   8.91279041E-03   685.76394086     3.68273649E-07   9.41379829E+16   2.87034450E+08   0.00000000E+00   1.93108811E+06   0.29763575      
  25               2.51188643E-05   1.10801355E-02   696.40566731     4.50831589E-07   1.15241423E+17   2.87034444E+08   0.00000000E+00   1.91426774E+06   0.29741281      
  26               3.16227766E-05   1.37699788E-02   703.46306677     5.54655783E-07   1.41780926E+17   2.87034437E+08   0.00000000E+00   1.89725759E+06   0.29740432      
  27               3.98107171E-05   1.71074889E-02   714.27246898     6.78662446E-07   1.73479514E+17   2.87034428E+08   0.00000000E+00   1.88005539E+06   0.29716497      
  28               5.01187234E-05   2.12470460E-02   721.47427278     8.34471296E-07   2.13306235E+17   2.87034417E+08   0.00000000E+00   1.86266051E+06   0.29711922      
  29               6.30957344E-05   2.63789531E-02   732.54085645     1.02037399E-06   2.60826397E+17   2.87034404E+08   0.00000000E+00   1.84507344E+06   0.29691216      
  30               7.94328235E-05   3.27371624E-02   740.18225430     1.25324528E-06   3.20352563E+17   2.87034388E+08   0.00000000E+00   1.82729322E+06   0.29688824      
  31               1.00000000E-04   4.06081772E-02   751.93130950     1.53027330E-06   3.91166061E+17   2.87034369E+08   0.00000000E+00   1.80931991E+06   0.29655995      
  32               1.25892541E-04   5.03414747E-02   760.35615293     1.87604196E-06   4.79550898E+17   2.87034346E+08   0.00000000E+00   1.79115412E+06   0.2965319       
  33               1.58489319E-04   6.23684677E-02   773.19957077     2.28563631E-06   5.84250792E+17   2.87034318E+08   0.00000000E+00   1.77278738E+06   0.2962316       
  34               1.99526231E-04   7.72148946E-02   783.00504081     2.79428156E-06   7.14269926E+17   2.87034286E+08   0.00000000E+00   1.75421004E+06   0.29621761      
  35               2.51188643E-04   9.55164459E-02   797.58406950     3.39340209E-06   8.67416188E+17   2.87034250E+08   0.00000000E+00   1.73541536E+06   0.29586252      
  36               3.16227766E-04   1.18038653E-01   809.37763992     4.13244055E-06   1.05632822E+18   2.87034214E+08   0.00000000E+00   1.71639625E+06   0.29574104      
  37               3.98107171E-04   1.45708593E-01   826.19684782     4.99729884E-06   1.27740164E+18   2.87034184E+08   0.00000000E+00   1.69714153E+06   0.29527368      
  38               5.01187234E-04   1.79628371E-01   840.39182911     6.05656865E-06   1.54817108E+18   2.87034156E+08   0.00000000E+00   1.67764434E+06   0.29514458      
  39               6.30957344E-04   2.21105088E-01   859.81972168     7.28659980E-06   1.86258960E+18   2.87034145E+08   0.00000000E+00   1.65790064E+06   0.2946588       
  40               7.94328235E-04   2.71689795E-01   876.96080114     8.77863391E-06   2.24398001E+18   2.87034156E+08   0.00000000E+00   1.63790002E+06   0.29444404      
  41               1.00000000E-03   3.33195690E-01   899.58888398     1.04951767E-05   2.68275575E+18   2.87034231E+08   0.00000000E+00   1.61763680E+06   0.29381385      
  42               1.25892541E-03   4.07689836E-01   920.16622543     1.25545006E-05   3.20914570E+18   2.87034380E+08   0.00000000E+00   1.59711442E+06   0.29345186      
  43               1.58489319E-03   4.97597636E-01   946.46061247     1.48975759E-05   3.80804089E+18   2.87034669E+08   0.00000000E+00   1.57632511E+06   0.29264948      
  44               1.99526231E-03   6.05842011E-01   971.21945515     1.76761505E-05   4.51822498E+18   2.87035124E+08   0.00000000E+00   1.55523135E+06   0.29214165      
  45               2.51188643E-03   7.35749081E-01   1002.02612005    2.08062355E-05   5.31834523E+18   2.87035809E+08   0.00000000E+00   1.53381022E+06   0.29119369      
  46               3.16227766E-03   8.91005136E-01   1031.70039497    2.44718052E-05   6.25536204E+18   2.87036650E+08   0.00000000E+00   1.51205223E+06   0.29052632      
  47               3.98107171E-03   1.07592828E+00   1067.70324115    2.85539815E-05   7.29891995E+18   2.87037627E+08   0.00000000E+00   1.48993020E+06   0.28941081      
  48               5.01187234E-03   1.29529416E+00   1102.86656887    3.32792056E-05   8.50689899E+18   2.87038485E+08   0.00000000E+00   1.46742673E+06   0.28854102      
  49               6.30957344E-03   1.55426705E+00   1144.24303149    3.84880670E-05   9.83859774E+18   2.87039109E+08   0.00000000E+00   1.44454416E+06   0.28715863      
  50               7.94328235E-03   1.85889372E+00   1184.76188935    4.44563519E-05   1.13644736E+19   2.87039249E+08   0.00000000E+00   1.42125584E+06   0.2859622       
  51               1.00000000E-02   2.21705573E+00   1231.19727676    5.10212702E-05   1.30429192E+19   2.87039015E+08   0.00000000E+00   1.39747446E+06   0.28422568      
  52               1.25892541E-02   2.63849913E+00   1276.51185614    5.85639768E-05   1.49712459E+19   2.87038494E+08   0.00000000E+00   1.37309362E+06   0.2826935       
  53               1.58489319E-02   3.13763259E+00   1327.14172222    6.69852122E-05   1.71242131E+19   2.87037988E+08   0.00000000E+00   1.34789293E+06   0.28069112      
  54               1.99526231E-02   3.73884454E+00   1375.99251086    7.69840076E-05   1.96810007E+19   2.87037694E+08   0.00000000E+00   1.32141769E+06   0.27896842      
  55               2.51188643E-02   4.48069096E+00   1429.43402715    8.88045866E-05   2.27042267E+19   2.87037591E+08   0.00000000E+00   1.29304504E+06   0.27686181      
  56               3.16227766E-02   5.39897951E+00   1480.86221100    1.03285207E-04   2.64072312E+19   2.87037753E+08   0.00000000E+00   1.26272386E+06   0.27494583      
  57               3.98107171E-02   6.51396545E+00   1536.79620572    1.20078834E-04   3.07011760E+19   2.87037842E+08   0.00000000E+00   1.23106309E+06   0.27264178      
  58               5.01187234E-02   7.82488829E+00   1590.70123244    1.39369573E-04   3.56299627E+19   2.87037592E+08   0.00000000E+00   1.19901745E+06   0.27063985      
  59               6.30957344E-02   9.30268432E+00   1648.35229652    1.59952398E-04   4.08774773E+19   2.87037288E+08   0.00000000E+00   1.16771665E+06   0.26843465      
  60               7.94328235E-02   1.09040175E+01   1702.66276845    1.81523609E-04   4.63856602E+19   2.87036572E+08   0.00000000E+00   1.13799822E+06   0.26647814      
  61               1.00000000E-01   1.25366786E+01   1758.51746762    2.02139747E-04   5.16370766E+19   2.86947899E+08   0.00000000E+00   1.11104465E+06   0.26431208      
  62               1.25892541E-01   1.39883595E+01   1810.63821554    2.19379306E-04   5.59578399E+19   2.83139601E+08   3.83956094E+06   1.08924182E+06   0.26236231      
  63               1.58489319E-01   1.51684622E+01   1848.67153952    2.32987866E-04   5.94302611E+19   2.77135686E+08   9.66582256E+06   1.07273529E+06   0.26039919      
  64               1.99526231E-01   1.65276551E+01   1891.02155362    2.48169804E-04   6.33053773E+19   2.69376226E+08   1.74006072E+07   1.05486052E+06   0.2590336       
  65               2.51188643E-01   1.76752777E+01   1923.38571446    2.61012750E-04   6.65618984E+19   2.60479725E+08   2.63322517E+07   1.04060072E+06   0.25742278      
  66               3.16227766E-01   1.85828321E+01   1948.94621966    2.70810270E-04   6.90617992E+19   2.51782317E+08   3.50473490E+07   1.02980605E+06   0.25640934      
  67               3.98107171E-01   1.96546738E+01   1976.45603693    2.82436929E-04   7.20285250E+19   2.41984442E+08   4.48420707E+07   1.01755036E+06   0.25494084      
  68               5.01187234E-01   2.09102693E+01   2008.47070011    2.95670253E-04   7.54084413E+19   2.29690058E+08   5.70705139E+07   1.00381040E+06   0.25445621      
  69               6.30957344E-01   2.18843121E+01   2031.24541555    3.06229233E-04   7.80362409E+19   2.17125724E+08   6.94371209E+07   9.93572781E+05   0.25351389      
  70               7.94328235E-01   2.26260462E+01   2049.03098350    3.13853427E-04   7.99808442E+19   2.06277984E+08   8.01209612E+07   9.86006863E+05   0.25315359      
  71               1.00000000E+00   2.35192023E+01   2068.63516158    3.23143281E-04   8.23501748E+19   1.95888368E+08   9.04793088E+07   9.77138029E+05   0.25190897      
  72               1.25892541E+00   2.45876405E+01   2092.40136645    3.33974692E-04   8.51133529E+19   1.85546398E+08   1.00795457E+08   9.66853242E+05   0.25131681      
  73               1.58489319E+00   2.58613361E+01   2118.58488286    3.46919741E-04   8.84160135E+19   1.74931723E+08   1.11396055E+08   9.55020248E+05   0.24962059      
  74               1.99526231E+00   2.73701602E+01   2149.15692252    3.61917671E-04   9.22433468E+19   1.64010777E+08   1.22304381E+08   9.41554837E+05   0.24880393      
  75               2.51188643E+00   2.91462695E+01   2182.56670244    3.79478672E-04   9.67255684E+19   1.52494110E+08   1.33816442E+08   9.26399289E+05   0.24669637      
  76               3.16227766E+00   3.12249246E+01   2220.16854950    3.99623002E-04   1.01868824E+20   1.40699512E+08   1.45609618E+08   9.09519607E+05   0.24514368      
  77               3.98107171E+00   3.36443450E+01   2260.72656395    4.22818043E-04   1.07792832E+20   1.28589971E+08   1.57723206E+08   8.90906867E+05   0.24282742      
  78               5.01187234E+00   3.64467669E+01   2305.12587235    4.49153787E-04   1.14522337E+20   1.16499251E+08   1.69819871E+08   8.70571104E+05   0.24081817      
  79               6.30957344E+00   3.96777935E+01   2352.34051600    4.79127079E-04   1.22172416E+20   1.04443646E+08   1.81886114E+08   8.48545265E+05   0.23799993      
  80               7.94328235E+00   4.33898709E+01   2402.80924106    5.12842642E-04   1.30796133E+20   9.30695939E+07   1.93271739E+08   8.24864179E+05   0.23556884      
  81               1.00000000E+01   4.76422266E+01   2455.92968373    5.50786531E-04   1.40508294E+20   8.22956246E+07   2.04061071E+08   7.99562559E+05   0.23229967      
  82               1.25892541E+01   5.25015345E+01   2511.60295672    5.93331225E-04   1.51407313E+20   7.24331818E+07   2.13937317E+08   7.72682074E+05   0.22951755      
  83               1.58489319E+01   5.80453653E+01   2569.82750612    6.40886859E-04   1.63602304E+20   6.32991270E+07   2.23086549E+08   7.44252249E+05   0.22577137      
  84               1.99526231E+01   6.43666621E+01   2629.84589501    6.94162417E-04   1.77278688E+20   5.53410787E+07   2.31056366E+08   7.14282093E+05   0.22267714      
  85               2.51188643E+01   7.15712006E+01   2692.53945630    7.53497925E-04   1.92531620E+20   4.82275750E+07   2.38180946E+08   6.82780002E+05   0.21855913      
  86               3.16227766E+01   7.97824067E+01   2756.20201582    8.20056640E-04   2.09663063E+20   4.20274257E+07   2.44385562E+08   6.49746907E+05   0.21524413      
  87               3.98107171E+01   8.91407011E+01   2822.82440365    8.93991012E-04   2.28727310E+20   3.64445169E+07   2.49970691E+08   6.15183669E+05   0.21102585      
  88               5.01187234E+01   9.98084023E+01   2889.59021060    9.77078861E-04   2.50182361E+20   3.13166637E+07   2.55096994E+08   5.79088756E+05   0.20639866      
  89               6.30957344E+01   1.11971807E+02   2958.86299965    1.06951209E-03   2.74100400E+20   2.70871847E+07   2.59312388E+08   5.41461291E+05   0.20374544      
  90               7.94328235E+01   1.25834916E+02   3029.28908679    1.17278095E-03   3.00875124E+20   2.31040110E+07   2.63287503E+08   5.02317096E+05   0.19908082      
  91               1.00000000E+02   1.41614312E+02   3100.49810729    1.28807067E-03   3.30827433E+20   1.97627266E+07   2.66618480E+08   4.61717607E+05   0.19554643      
  92               1.25892541E+02   1.59514719E+02   3173.09113961    1.41590679E-03   3.64119600E+20   1.68755952E+07   2.69490153E+08   4.19801122E+05   0.19219588      
  93               1.58489319E+02   1.79754722E+02   3245.92418962    1.55763858E-03   4.01113957E+20   1.43358909E+07   2.72010243E+08   3.76701919E+05   0.189021        
  94               1.99526231E+02   2.02570850E+02   3319.70078052    1.71379309E-03   4.41981254E+20   1.21334771E+07   2.74191528E+08   3.32540886E+05   0.18607664      
  95               2.51188643E+02   2.28221291E+02   3393.36435504    1.88591924E-03   4.87137434E+20   1.02154458E+07   2.76091084E+08   2.87421421E+05   0.18347945      
  96               3.16227766E+02   2.56990476E+02   3467.84871009    2.07453587E-03   5.36763190E+20   8.59469765E+06   2.77703285E+08   2.41425881E+05   0.18110805      
  97               3.98107171E+02   2.89193087E+02   3542.04872749    2.28156024E-03   5.91369899E+20   7.24085410E+06   2.79068695E+08   1.94617380E+05   0.17898307      
  98               5.01187234E+02   3.25174298E+02   3617.03248707    2.50755094E-03   6.51162889E+20   6.10670701E+06   2.80250064E+08   1.47046048E+05   0.1769425       
  99               6.30957344E+02   3.65318145E+02   3691.57381487    2.75492340E-03   7.16779418E+20   5.12873574E+06   2.81331219E+08   9.87457845E+04   0.17508057      
  100              7.94328235E+02   4.10056670E+02   3766.93517335    3.02430917E-03   7.88463464E+20   4.29557907E+06   2.82350029E+08   4.97313231E+04   0.17341252      
  101              1.00000000E+03   4.59878215E+02   3841.91839000    3.31870445E-03   8.67002883E+20   3.89156317E+06   2.82862039E+08   0.00000000E+00   0.17188863      
