# ATMO pressure-temperature profile
# Effective temperature = 1800.0K
# log(g) = 3.5cm/s^2
# M/H = 0.0
# Optical depth grid in band 17 (1.20-1.33microns)
# All parameters in cgs units
#
# Model Level      Optical Depth    Pressure         Temperature      Density          Number Density   Rad Flux         Conv Flux        Radial Extension Adiabatic Gradient
#                                   [Ba]             [K]              [g/cm^3]         [/cm^3]          [ergs/s/cm^2/sr] [ergs/s/cm^2/sr] [cm]             [K/Ba]          
  1                3.00000000E-06   1.00000000E-05   445.10907693     6.36955875E-10   1.62726914E+14   5.95203508E+08   0.00000000E+00   2.33102145E+08   0.29800785      
  2                3.65048058E-06   1.61595797E-05   509.21711115     8.99710145E-10   2.29854448E+14   5.95203508E+08   0.00000000E+00   2.30529111E+08   0.29788512      
  3                4.44200282E-06   2.31243083E-05   541.89126110     1.20984888E-09   3.09088212E+14   5.95203508E+08   0.00000000E+00   2.28418115E+08   0.29763422      
  4                5.40514834E-06   3.12944186E-05   560.90975434     1.58178236E-09   4.04110127E+14   5.95203508E+08   0.00000000E+00   2.26550493E+08   0.29750832      
  5                6.57712968E-06   4.09658448E-05   581.63289677     1.99683246E-09   5.10151060E+14   5.95203508E+08   0.00000000E+00   2.24829629E+08   0.29719749      
  6                8.00322805E-06   5.24541058E-05   595.40477019     2.49765042E-09   6.38106279E+14   5.95203508E+08   0.00000000E+00   2.23202891E+08   0.29708106      
  7                9.73854285E-06   6.61317715E-05   612.65047490     3.06023654E-09   7.81849606E+14   5.95203508E+08   0.00000000E+00   2.21638414E+08   0.29671975      
  8                1.18501205E-05   8.24323999E-05   624.47425208     3.74227429E-09   9.56113052E+14   5.95203508E+08   0.00000000E+00   2.20115206E+08   0.29660247      
  9                1.44195449E-05   1.01885888E-04   640.37970179     4.51044602E-09   1.15239753E+15   5.95203508E+08   0.00000000E+00   2.18617867E+08   0.2966884       
  10               1.75460896E-05   1.25123085E-04   651.53437306     5.44424927E-09   1.39099622E+15   5.95203508E+08   0.00000000E+00   2.17134990E+08   0.29660916      
  11               2.13505531E-05   1.52896594E-04   667.02301550     6.49806146E-09   1.66028571E+15   5.95203508E+08   0.00000000E+00   2.15658366E+08   0.29630507      
  12               2.59799264E-05   1.86096824E-04   677.97535612     7.78121912E-09   1.98815800E+15   5.95203508E+08   0.00000000E+00   2.14181894E+08   0.29622528      
  13               3.16130723E-05   2.25788393E-04   693.27782038     9.23225909E-09   2.35895766E+15   5.95203509E+08   0.00000000E+00   2.12701011E+08   0.29589704      
  14               3.84676354E-05   2.73233050E-04   704.09720260     1.10004681E-08   2.81077739E+15   5.95203509E+08   0.00000000E+00   2.11212241E+08   0.29581345      
  15               4.68084520E-05   3.29935634E-04   719.31439276     1.30021311E-08   3.32228062E+15   5.95203509E+08   0.00000000E+00   2.09712936E+08   0.29545743      
  16               5.69577817E-05   3.97676844E-04   730.09868937     1.54401162E-08   3.94525042E+15   5.95203509E+08   0.00000000E+00   2.08201045E+08   0.29536834      
  17               6.93077586E-05   4.78573648E-04   745.37142395     1.82001031E-08   4.65052392E+15   5.95203509E+08   0.00000000E+00   2.06674993E+08   0.2949818       
  18               8.43355422E-05   5.75125626E-04   756.24557098     2.15573837E-08   5.50840310E+15   5.95203509E+08   0.00000000E+00   2.05133554E+08   0.29488476      
  19               1.02621753E-04   6.90358112E-04   771.65543849     2.53598370E-08   6.48002753E+15   5.95203509E+08   0.00000000E+00   2.03575064E+08   0.29446374      
  20               1.24872905E-04   8.27939345E-04   782.62109073     2.99875603E-08   7.66254104E+15   5.95203509E+08   0.00000000E+00   2.01997397E+08   0.29435929      
  21               1.51948705E-04   9.92234279E-04   798.24476285     3.52349322E-08   9.00334699E+15   5.95203509E+08   0.00000000E+00   2.00399064E+08   0.29390296      
  22               1.84895266E-04   1.18838648E-03   809.44623957     4.16172793E-08   1.06339725E+16   5.95203509E+08   0.00000000E+00   1.98779232E+08   0.2937887       
  23               2.24985526E-04   1.42253239E-03   825.44562490     4.88512404E-08   1.24824413E+16   5.95203509E+08   0.00000000E+00   1.97137085E+08   0.2932925       
  24               2.73768430E-04   1.70192549E-03   837.06046430     5.76348217E-08   1.47268394E+16   5.95203509E+08   0.00000000E+00   1.95472004E+08   0.29316707      
  25               3.33128779E-04   2.03508822E-03   853.67428638     6.75757162E-08   1.72669996E+16   5.95203508E+08   0.00000000E+00   1.93783824E+08   0.29262982      
  26               4.05360046E-04   2.43201337E-03   865.89731592     7.96156862E-08   2.03434874E+16   5.95203508E+08   0.00000000E+00   1.92072572E+08   0.29248987      
  27               4.93252992E-04   2.90443688E-03   883.25148393     9.32127581E-08   2.38178967E+16   5.95203507E+08   0.00000000E+00   1.90338390E+08   0.29190534      
  28               6.00203489E-04   3.46603439E-03   896.23811086     1.09624286E-07   2.80114313E+16   5.95203507E+08   0.00000000E+00   1.88581543E+08   0.29174581      
  29               7.30343727E-04   4.13277576E-03   914.49106615     1.28102805E-07   3.27331812E+16   5.95203506E+08   0.00000000E+00   1.86802343E+08   0.2911082       
  30               8.88701864E-04   4.92323000E-03   928.37114276     1.50322609E-07   3.84108867E+16   5.95203505E+08   0.00000000E+00   1.85001046E+08   0.29092061      
  31               1.08139630E-03   5.86012335E-03   947.58531356     1.75300577E-07   4.47934255E+16   5.95203504E+08   0.00000000E+00   1.83175947E+08   0.29021926      
  32               1.31587206E-03   6.97019016E-03   962.55772148     2.05263759E-07   5.24497816E+16   5.95203503E+08   0.00000000E+00   1.81325395E+08   0.28999277      
  33               1.60118847E-03   8.28459280E-03   983.09918951     2.38873206E-07   6.10379119E+16   5.95203502E+08   0.00000000E+00   1.79448290E+08   0.28935886      
  34               1.94836913E-03   9.83924334E-03   999.47406909     2.79050824E-07   7.13043475E+16   5.95203500E+08   0.00000000E+00   1.77544113E+08   0.28901804      
  35               2.37082789E-03   1.16754559E-02   1021.69568611    3.23925182E-07   8.27709855E+16   5.95203499E+08   0.00000000E+00   1.75612772E+08   0.28785252      
  36               2.88488706E-03   1.38398890E-02   1040.03408172    3.77204653E-07   9.63853157E+16   5.95203497E+08   0.00000000E+00   1.73654679E+08   0.28739185      
  37               3.51040806E-03   1.63851928E-02   1064.57888457    4.36279815E-07   1.11480664E+17   5.95203496E+08   0.00000000E+00   1.71670556E+08   0.2862167       
  38               4.27155881E-03   1.93696723E-02   1085.38493652    5.05859060E-07   1.29260051E+17   5.95203494E+08   0.00000000E+00   1.69661596E+08   0.28579229      
  39               5.19774750E-03   2.28578524E-02   1112.66078688    5.82322010E-07   1.48798475E+17   5.95203492E+08   0.00000000E+00   1.67629227E+08   0.2846617       
  40               6.32475876E-03   2.69197585E-02   1136.48309391    6.71426412E-07   1.71567103E+17   5.95203490E+08   0.00000000E+00   1.65574997E+08   0.28424402      
  41               7.69613634E-03   3.16425224E-02   1167.01823853    7.68569756E-07   1.96389965E+17   5.95203489E+08   0.00000000E+00   1.63495992E+08   0.28319325      
  42               9.36486541E-03   3.71245294E-02   1194.27761293    8.81140587E-07   2.25154953E+17   5.95203488E+08   0.00000000E+00   1.61389425E+08   0.28259738      
  43               1.13954198E-02   4.34728200E-02   1228.64280497    1.00295491E-06   2.56281945E+17   5.95203487E+08   0.00000000E+00   1.59253954E+08   0.28117155      
  44               1.38662528E-02   5.07984416E-02   1260.20046114    1.14261461E-06   2.91968901E+17   5.95203486E+08   0.00000000E+00   1.57089971E+08   0.28013672      
  45               1.68728289E-02   5.92162190E-02   1299.39093766    1.29178585E-06   3.30085677E+17   5.95203486E+08   0.00000000E+00   1.54898919E+08   0.27834276      
  46               2.05313114E-02   6.88367136E-02   1336.18966647    1.46030519E-06   3.73145200E+17   5.95203485E+08   0.00000000E+00   1.52683882E+08   0.27726988      
  47               2.49830512E-02   7.97625229E-02   1381.00953372    1.63722628E-06   4.18338702E+17   5.95203485E+08   0.00000000E+00   1.50449379E+08   0.27505836      
  48               3.04000477E-02   9.20920386E-02   1424.36157912    1.83287445E-06   4.68303794E+17   5.95203507E+08   0.00000000E+00   1.48198610E+08   0.27254198      
  49               3.69915946E-02   1.05851188E-01   1479.17315789    2.02932857E-06   5.18325481E+17   5.94771411E+08   4.48430415E+05   1.45942415E+08   0.2700247       
  50               4.50123658E-02   1.20790232E-01   1532.61773249    2.23521718E-06   5.70852373E+17   5.92839493E+08   2.37048475E+06   1.43724244E+08   0.26779779      
  51               5.47722558E-02   1.36474415E-01   1583.35107643    2.44613804E-06   6.24309377E+17   5.89806050E+08   5.39761531E+06   1.41602936E+08   0.26600497      
  52               6.66483519E-02   1.51605581E-01   1628.13898173    2.64405028E-06   6.74449682E+17   5.86198822E+08   9.01811836E+06   1.39721385E+08   0.26440898      
  53               8.10995048E-02   1.64793804E-01   1664.32253525    2.81443359E-06   7.17181740E+17   5.82625262E+08   1.27029343E+07   1.38192262E+08   0.26297319      
  54               9.86840557E-02   1.75131691E-01   1691.11737900    2.94350945E-06   7.50095963E+17   5.79518651E+08   1.58338561E+07   1.37056456E+08   0.26156555      
  55               1.20081410E-01   1.86813305E-01   1719.85168599    3.08726671E-06   7.86760680E+17   5.75723412E+08   1.94928195E+07   1.35831040E+08   0.26005067      
  56               1.46118284E-01   2.00029183E-01   1750.62857570    3.24738733E-06   8.27608966E+17   5.70985047E+08   2.42334566E+07   1.34511135E+08   0.25836856      
  57               1.77800653E-01   2.14878913E-01   1783.22144088    3.42447250E-06   8.72799244E+17   5.65082989E+08   3.01405791E+07   1.33102964E+08   0.25644807      
  58               2.16352610E-01   2.31394074E-01   1817.30133506    3.61819699E-06   9.22255228E+17   5.57870997E+08   3.73572068E+07   1.31619281E+08   0.2543318       
  59               2.63263667E-01   2.49481316E-01   1852.28882451    3.82690921E-06   9.75562638E+17   5.49550268E+08   4.56694037E+07   1.30082176E+08   0.25193286      
  60               3.20346302E-01   2.69395655E-01   1888.32496260    4.05295255E-06   1.03333156E+18   5.40472225E+08   5.47357983E+07   1.28483142E+08   0.24916291      
  61               3.89805984E-01   2.91770695E-01   1926.04463067    4.30283725E-06   1.09723882E+18   5.30215933E+08   6.49901176E+07   1.26788794E+08   0.24599614      
  62               4.74326391E-01   3.16861426E-01   1965.30083727    4.57847821E-06   1.16779382E+18   5.18243050E+08   7.69583862E+07   1.25001163E+08   0.24245664      
  63               5.77173093E-01   3.44953526E-01   2005.91904154    4.88207285E-06   1.24558402E+18   5.04184584E+08   9.10100200E+07   1.23122172E+08   0.23840172      
  64               7.02319722E-01   3.76369490E-01   2047.69488649    5.21618443E-06   1.33129716E+18   4.87761495E+08   1.07424863E+08   1.21153489E+08   0.23378208      
  65               8.54601502E-01   4.11478307E-01   2090.43023336    5.58376814E-06   1.42572940E+18   4.68836792E+08   1.26339249E+08   1.19096270E+08   0.22870379      
  66               1.03990206E+00   4.50700091E-01   2133.95457061    5.98813397E-06   1.52977767E+18   4.47407978E+08   1.47756781E+08   1.16951289E+08   0.22328641      
  67               1.26538076E+00   4.94508380E-01   2178.10625579    6.43297893E-06   1.64444909E+18   4.23530419E+08   1.71622036E+08   1.14719204E+08   0.21754725      
  68               1.53974930E+00   5.43435351E-01   2222.70969069    6.92248826E-06   1.77088754E+18   3.97318272E+08   1.97819928E+08   1.12400645E+08   0.21154962      
  69               1.87360830E+00   5.98077304E-01   2267.61604187    7.46124631E-06   1.91035307E+18   3.68919612E+08   2.26203632E+08   1.09996297E+08   0.20527793      
  70               2.27985690E+00   6.59100152E-01   2312.62786254    8.05451261E-06   2.06429375E+18   3.38456172E+08   2.56652607E+08   1.07507005E+08   0.19861712      
  71               2.77419111E+00   7.27127718E-01   2357.45137177    8.70802985E-06   2.23405467E+18   3.06352205E+08   2.88742501E+08   1.04938226E+08   0.19195479      
  72               3.37571026E+00   8.02985491E-01   2402.07574483    9.42608035E-06   2.42129018E+18   2.73586167E+08   3.21494887E+08   1.02290431E+08   0.1856258       
  73               4.10765492E+00   8.87715332E-01   2446.52038584    1.02172609E-05   2.62815347E+18   2.40894009E+08   3.54174558E+08   9.95601086E+07   0.17939059      
  74               4.99830483E+00   9.82323950E-01   2490.63719048    1.10891226E-05   2.85673597E+18   2.08831255E+08   3.86226084E+08   9.67493374E+07   0.17346482      
  75               6.08207157E+00   1.08790800E+00   2534.46887940    1.20488384E-05   3.10907391E+18   1.78245254E+08   4.16800878E+08   9.38607333E+07   0.16798704      
  76               7.40082804E+00   1.20571238E+00   2577.96286352    1.31051053E-05   3.38760608E+18   1.50168913E+08   4.44867544E+08   9.08960406E+07   0.16273852      
  77               9.00552635E+00   1.33709385E+00   2621.07659412    1.42672109E-05   3.69494534E+18   1.25388208E+08   4.69640724E+08   8.78575670E+07   0.15784179      
  78               1.09581663E+01   1.48351981E+00   2663.82441993    1.55446446E-05   4.03379288E+18   1.04325290E+08   4.90698037E+08   8.47482192E+07   0.15342628      
  79               1.33341911E+01   1.64656625E+00   2706.24080404    1.69471637E-05   4.40695496E+18   8.68707953E+07   5.08147876E+08   8.15714658E+07   0.14928117      
  80               1.62254019E+01   1.82793813E+00   2748.23546842    1.84860814E-05   4.81762943E+18   7.26769813E+07   5.22339998E+08   7.83309815E+07   0.14545586      
  81               1.97435049E+01   2.02948740E+00   2789.89039426    2.01721849E-05   5.26896190E+18   6.12388400E+07   5.33778918E+08   7.50303800E+07   0.14208972      
  82               2.40244270E+01   2.25320623E+00   2831.21321096    2.20173845E-05   5.76440129E+18   5.19275879E+07   5.43092539E+08   7.16733615E+07   0.13914263      
  83               2.92335681E+01   2.50123973E+00   2872.28363600    2.40335073E-05   6.30745025E+18   4.42186380E+07   5.50804904E+08   6.82635588E+07   0.13648576      
  84               3.55721908E+01   2.77591169E+00   2913.05246041    2.62344800E-05   6.90213071E+18   3.77624628E+07   5.57267425E+08   6.48043275E+07   0.13410313      
  85               4.32851972E+01   3.07974608E+00   2953.61236120    2.86336456E-05   7.55243948E+18   3.23346507E+07   5.62705538E+08   6.12986478E+07   0.13200565      
  86               5.26705906E+01   3.41548675E+00   2993.93892389    3.12466912E-05   8.26295728E+18   2.77401591E+07   5.67315455E+08   5.77490988E+07   0.13011963      
  87               6.40909893E+01   3.78613039E+00   3034.10042441    3.40893448E-05   9.03839786E+18   2.38438239E+07   5.71234033E+08   5.41577751E+07   0.12843018      
  88               7.79876373E+01   4.19481000E+00   3074.06600553    3.71787839E-05   9.88382270E+18   2.05231949E+07   5.74586975E+08   5.05275370E+07   0.12694414      
  89               9.48974517E+01   4.64491821E+00   3113.91253422    4.05316576E-05   1.08043216E+19   1.76887205E+07   5.77465730E+08   4.68607896E+07   0.12568278      
  90               1.15473768E+02   5.14018539E+00   3153.64121820    4.41674532E-05   1.18057162E+19   1.52590972E+07   5.79953539E+08   4.31591021E+07   0.12462041      
  91               1.40511583E+02   5.68472026E+00   3193.33537283    4.81059098E-05   1.28940814E+19   1.31710421E+07   5.82115227E+08   3.94233014E+07   0.12371343      
  92               1.70978268E+02   6.28305910E+00   3232.98558358    5.23705826E-05   1.40764524E+19   1.13687093E+07   5.84008885E+08   3.56535522E+07   0.12292833      
  93               2.08050949E+02   6.94022001E+00   3272.67020105    5.69853940E-05   1.53601988E+19   9.81374247E+06   5.85674435E+08   3.18494318E+07   0.12225013      
  94               2.53161982E+02   7.66176813E+00   3312.38232739    6.19787940E-05   1.67538408E+19   8.47491034E+06   5.87143905E+08   2.80099749E+07   0.12166551      
  95               3.08054300E+02   8.45388357E+00   3352.20427661    6.73797764E-05   1.82663437E+19   7.32365766E+06   5.88446061E+08   2.41337422E+07   0.12117519      
  96               3.74848746E+02   9.32339384E+00   3392.13649784    7.32223171E-05   1.99079504E+19   6.32886308E+06   5.89612512E+08   2.02190667E+07   0.12077516      
  97               4.56126023E+02   1.02778428E+01   3432.26449597    7.95407827E-05   2.16893763E+19   5.46820114E+06   5.90664118E+08   1.62640935E+07   0.12046937      
  98               5.55026396E+02   1.13255603E+01   3472.59420451    8.63752178E-05   2.36228068E+19   4.72131006E+06   5.91619220E+08   1.22668368E+07   0.12025203      
  99               6.75371026E+02   1.24757459E+01   3513.21130715    9.37662079E-05   2.57210141E+19   4.07333340E+06   5.92489791E+08   8.22519788E+06   0.1201251       
  100              8.21809604E+02   1.37385550E+01   3554.12471755    1.01760820E-04   2.79984657E+19   3.51083949E+06   5.93285372E+08   4.13700361E+06   0.12007653      
  101              1.00000000E+03   1.51252066E+01   3595.41512322    1.10407075E-04   3.04703971E+19   3.25049411E+06   5.93737717E+08   0.00000000E+00   0.1200989       
