# ATMO pressure-temperature profile
# Effective temperature = 350.0K
# log(g) = 4.5cm/s^2
# M/H = 0.0
# Optical depth grid in band 17 (1.20-1.33microns)
# All parameters in cgs units
#
# Model Level      Optical Depth    Pressure         Temperature      Density          Number Density   Rad Flux         Conv Flux        Radial Extension Adiabatic Gradient
#                                   [Ba]             [K]              [g/cm^3]         [/cm^3]          [ergs/s/cm^2/sr] [ergs/s/cm^2/sr] [cm]             [K/Ba]          
  1                5.00000000E-05   1.00000000E-05   39.22480790      7.22770164E-09   1.84656676E+15   8.50488875E+05   0.00000000E+00   9.03766716E+06   0.34612403      
  2                5.91534807E-05   3.77801624E-04   51.25692834      2.08964390E-07   5.33871925E+16   8.50488875E+05   0.00000000E+00   8.73838737E+06   0.31481539      
  3                6.99826855E-05   8.09440407E-04   58.39907935      3.92952378E-07   1.00393298E+17   8.50488875E+05   0.00000000E+00   8.69075367E+06   0.31484375      
  4                8.27943887E-05   1.31687098E-03   63.47168227      5.88198970E-07   1.50275803E+17   8.50488875E+05   0.00000000E+00   8.65737688E+06   0.31486352      
  5                9.79515255E-05   1.91322733E-03   67.32380310      8.05673309E-07   2.05837157E+17   8.50488875E+05   0.00000000E+00   8.62998233E+06   0.31487973      
  6                1.15883473E-04   2.61392242E-03   71.16716747      1.04129565E-06   2.66035046E+17   8.50488875E+05   0.00000000E+00   8.60579084E+06   0.31489403      
  7                1.37098216E-04   3.43380796E-03   74.50709311      1.30659028E-06   3.33813751E+17   8.50488875E+05   0.00000000E+00   8.58356304E+06   0.31490714      
  8                1.62196734E-04   4.38599400E-03   78.15254145      1.59105784E-06   4.06490844E+17   8.50488875E+05   0.00000000E+00   8.56267926E+06   0.31491942      
  9                1.91890027E-04   5.48710687E-03   81.45460761      1.90980402E-06   4.87925597E+17   8.50488874E+05   0.00000000E+00   8.54270391E+06   0.31493119      
  10               2.27019260E-04   6.75824185E-03   85.23228265      2.24797072E-06   5.74321995E+17   8.50488874E+05   0.00000000E+00   8.52330390E+06   0.31494263      
  11               2.68579588E-04   8.22710047E-03   88.70222692      2.62950087E-06   6.71797088E+17   8.50488873E+05   0.00000000E+00   8.50419885E+06   0.31495394      
  12               3.17748350E-04   9.92667757E-03   92.76172868      3.03386410E-06   7.75105684E+17   8.50488872E+05   0.00000000E+00   8.48517028E+06   0.31496526      
  13               3.75918418E-04   1.18941944E-02   96.58341892      3.49135088E-06   8.91986531E+17   8.50488871E+05   0.00000000E+00   8.46605311E+06   0.31497671      
  14               4.44737657E-04   1.41733060E-02   101.10073143     3.97445754E-06   1.01541297E+18   8.50488868E+05   0.00000000E+00   8.44670539E+06   0.31498836      
  15               5.26155608E-04   1.68155057E-02   105.40766854     4.52270739E-06   1.15548301E+18   8.50488865E+05   0.00000000E+00   8.42699807E+06   0.31638674      
  16               6.22478712E-04   1.98807384E-02   110.48524948     5.10138956E-06   1.30332897E+18   8.50488860E+05   0.00000000E+00   8.40681813E+06   0.31990079      
  17               7.36435649E-04   2.34380203E-02   115.43209803     5.75640102E-06   1.47068674E+18   8.50488854E+05   0.00000000E+00   8.38605950E+06   0.32181757      
  18               8.71254639E-04   2.75666430E-02   121.32478931     6.44144943E-06   1.64573603E+18   8.50488845E+05   0.00000000E+00   8.36461886E+06   0.32304103      
  19               1.03075489E-03   3.23587436E-02   127.10351952     7.21705773E-06   1.84399574E+18   8.50488832E+05   0.00000000E+00   8.34239323E+06   0.32364097      
  20               1.21945479E-03   3.79220491E-02   133.81151759     8.03451628E-06   2.05269365E+18   8.50488816E+05   0.00000000E+00   8.31928999E+06   0.32423242      
  21               1.44269991E-03   4.43822705E-02   140.29892660     8.96842777E-06   2.29129500E+18   8.50488793E+05   0.00000000E+00   8.29522368E+06   0.32469028      
  22               1.70681442E-03   5.18846353E-02   147.74441126     9.95609940E-06   2.54362770E+18   8.50488763E+05   0.00000000E+00   8.27011665E+06   0.32535781      
  23               2.01928028E-03   6.05974186E-02   154.90873301     1.10902091E-05   2.83337503E+18   8.50488720E+05   0.00000000E+00   8.24389606E+06   0.32582923      
  24               2.38894914E-03   7.07187623E-02   162.91795225     1.23062917E-05   3.14406523E+18   8.50488658E+05   0.00000000E+00   8.21649896E+06   0.32596641      
  25               2.82629313E-03   8.24793651E-02   170.47802406     1.37163423E-05   3.50431184E+18   8.50488575E+05   0.00000000E+00   8.18787387E+06   0.3256272       
  26               3.34370152E-03   9.61459693E-02   178.82524994     1.52427539E-05   3.89428813E+18   8.50488464E+05   0.00000000E+00   8.15798498E+06   0.32523503      
  27               3.95583167E-03   1.12024998E-01   186.71682023     1.70095004E-05   4.34567596E+18   8.50488328E+05   0.00000000E+00   8.12679993E+06   0.32505567      
  28               4.68002425E-03   1.30462848E-01   195.55547539     1.89136086E-05   4.83217565E+18   8.50488142E+05   0.00000000E+00   8.09429290E+06   0.32486232      
  29               5.53679448E-03   1.51844174E-01   204.17376586     2.10821763E-05   5.38671546E+18   8.50487893E+05   0.00000000E+00   8.06043269E+06   0.32472018      
  30               6.55041330E-03   1.76631364E-01   213.10456448     2.34983317E-05   6.00345018E+18   8.50487563E+05   0.00000000E+00   8.02521579E+06   0.32443609      
  31               7.74959494E-03   2.05364768E-01   221.42891404     2.62764915E-05   6.71765117E+18   8.50487134E+05   0.00000000E+00   7.98864917E+06   0.32400969      
  32               9.16831029E-03   2.38690473E-01   229.89031730     2.94359829E-05   7.52038794E+18   8.50486609E+05   0.00000000E+00   7.95075639E+06   0.32342501      
  33               1.08467493E-02   2.77382247E-01   237.84071680     3.30641233E-05   8.44730735E+18   8.50486011E+05   0.00000000E+00   7.91153700E+06   0.32271764      
  34               1.28324595E-02   3.22349063E-01   246.33238255     3.70994044E-05   9.47830641E+18   8.50485413E+05   0.00000000E+00   7.87093661E+06   0.3218492       
  35               1.51816929E-02   3.74615555E-01   254.76255948     4.16883558E-05   1.06506483E+19   8.50484934E+05   0.00000000E+00   7.82890922E+06   0.320889        
  36               1.79609996E-02   4.35349907E-01   264.07056854     4.67393900E-05   1.19410989E+19   8.50484717E+05   0.00000000E+00   7.78539958E+06   0.31979676      
  37               2.12491128E-02   5.05923574E-01   273.57853510     5.24285059E-05   1.33945688E+19   8.50484857E+05   0.00000000E+00   7.74031610E+06   0.31874063      
  38               2.51391797E-02   5.87840312E-01   284.32552840     5.86149089E-05   1.49750869E+19   8.50485290E+05   0.00000000E+00   7.69358727E+06   0.31758872      
  39               2.97413996E-02   6.82762064E-01   295.95217063     6.54052240E-05   1.67098939E+19   8.50483784E+05   0.00000000E+00   7.64510807E+06   0.31652935      
  40               3.51861462E-02   7.92512955E-01   310.31264094     7.24054884E-05   1.84983394E+19   8.48154710E+05   2.33167333E+03   7.59467492E+06   0.31535081      
  41               4.16276604E-02   9.19156651E-01   325.04216728     8.01704670E-05   2.04821560E+19   8.40772560E+05   9.71614976E+03   7.54211065E+06   0.31386917      
  42               4.92484201E-02   1.06522160E+00   340.49511432     8.86938819E-05   2.26597398E+19   8.29339690E+05   2.11521286E+04   7.48733444E+06   0.31170987      
  43               5.82643093E-02   1.23356417E+00   356.26049927     9.81654514E-05   2.50795601E+19   8.14658085E+05   3.58366037E+04   7.43028285E+06   0.31011805      
  44               6.89307339E-02   1.42744485E+00   372.84904352     1.08540270E-04   2.77301452E+19   7.97359289E+05   5.31381405E+04   7.37088650E+06   0.30837482      
  45               8.15498567E-02   1.65042826E+00   389.72401673     1.20061599E-04   3.06736404E+19   7.78633895E+05   7.18666451E+04   7.30911686E+06   0.30704712      
  46               9.64791575E-02   1.90647526E+00   407.49321245     1.32640232E-04   3.38872740E+19   7.60116983E+05   9.03868656E+04   7.24495455E+06   0.30568606      
  47               1.14141560E-01   2.20019581E+00   425.52662400     1.46589567E-04   3.74507427E+19   7.44007242E+05   1.06500375E+05   7.17834343E+06   0.30450976      
  48               1.35037411E-01   2.53654947E+00   444.51197713     1.61781304E-04   4.13319322E+19   7.31565516E+05   1.18946384E+05   7.10927486E+06   0.30348498      
  49               1.59758657E-01   2.92081807E+00   463.73370229     1.78568293E-04   4.56206729E+19   7.22634743E+05   1.27880721E+05   7.03778103E+06   0.30262393      
  50               1.89005613E-01   3.35853229E+00   483.92198705     1.96762687E-04   5.02689731E+19   7.15124334E+05   1.35396083E+05   6.96393669E+06   0.30200291      
  51               2.23606798E-01   3.85593456E+00   504.31042907     2.16771985E-04   5.53805857E+19   7.06949031E+05   1.43585557E+05   6.88777518E+06   0.30137878      
  52               2.64542408E-01   4.42119042E+00   525.72303719     2.38425248E-04   6.09127283E+19   6.98352257E+05   1.52201372E+05   6.80914896E+06   0.30096634      
  53               3.12972084E-01   5.06337870E+00   547.40105229     2.62264389E-04   6.69978124E+19   6.89070195E+05   1.61495206E+05   6.72793599E+06   0.30058783      
  54               3.70267763E-01   5.79172314E+00   570.17297557     2.88008750E-04   7.35744465E+19   6.75277348E+05   1.75295438E+05   6.64413207E+06   0.30040773      
  55               4.38052539E-01   6.61530474E+00   593.17919505     3.16205012E-04   8.07773840E+19   6.55713808E+05   1.94862468E+05   6.55783036E+06   0.30016639      
  56               5.18246648E-01   7.54350736E+00   617.24202414     3.46515450E-04   8.85204619E+19   6.31072184E+05   2.19502296E+05   6.46915619E+06   0.3000057       
  57               6.13121862E-01   8.58945789E+00   641.52181192     3.79628708E-04   9.69795506E+19   6.04233083E+05   2.46332056E+05   6.37796134E+06   0.2997971       
  58               7.25365844E-01   9.76795593E+00   666.96327970     4.15246909E-04   1.06078558E+20   5.77591025E+05   2.72961293E+05   6.28409797E+06   0.2996792       
  59               8.58158289E-01   1.10935579E+01   692.63974361     4.54117231E-04   1.16008359E+20   5.52329066E+05   2.98213739E+05   6.18756494E+06   0.29950658      
  60               1.01526100E+00   1.25805587E+01   719.47657416     4.95778449E-04   1.26651142E+20   5.28438724E+05   3.22103868E+05   6.08846272E+06   0.29937111      
  61               1.20112443E+00   1.42433512E+01   746.45155991     5.41021756E-04   1.38209022E+20   5.06213261E+05   3.44355930E+05   5.98693447E+06   0.29919067      
  62               1.42101382E+00   1.61011470E+01   774.59925854     5.89364109E-04   1.50558603E+20   4.86771523E+05   3.63854698E+05   5.88289485E+06   0.29906552      
  63               1.68115827E+00   1.81847426E+01   803.02867169     6.42066287E-04   1.64021940E+20   4.71081769E+05   3.79596149E+05   5.77578444E+06   0.29881862      
  64               1.98892727E+00   2.05243115E+01   832.86794772     6.98708685E-04   1.78491808E+20   4.60549298E+05   3.90152121E+05   5.66532626E+06   0.29856745      
  65               2.35303941E+00   2.31472118E+01   863.01521895     7.60478476E-04   1.94270148E+20   4.55544735E+05   3.95156841E+05   5.55153970E+06   0.29818275      
  66               2.78380943E+00   2.60769982E+01   894.50738880     8.26570410E-04   2.11154093E+20   4.57158014E+05   3.93518695E+05   5.43468328E+06   0.29783102      
  67               3.29344035E+00   2.93323319E+01   926.08276401     8.98058709E-04   2.29415432E+20   4.65293508E+05   3.85353707E+05   5.31520100E+06   0.29729137      
  68               3.89636920E+00   3.29398751E+01   958.84510052     9.74049695E-04   2.48828049E+20   4.80143789E+05   3.70485667E+05   5.19322661E+06   0.29680772      
  69               4.60967600E+00   3.69435033E+01   991.71629161     1.05622930E-03   2.69821448E+20   4.99836906E+05   3.50772578E+05   5.06840662E+06   0.29607269      
  70               5.45356761E+00   4.13822925E+01   1025.85764720    1.14376202E-03   2.92181884E+20   5.21485672E+05   3.29103425E+05   4.94069875E+06   0.29542937      
  71               6.45195012E+00   4.62903455E+01   1060.04787045    1.23815584E-03   3.16293877E+20   5.41605748E+05   3.08966468E+05   4.81027581E+06   0.29446044      
  72               7.63310614E+00   5.16969274E+01   1095.33453961    1.33823967E-03   3.41856458E+20   5.57975349E+05   2.92584765E+05   4.67745424E+06   0.29356857      
  73               9.03049593E+00   5.76289550E+01   1130.46896736    1.44545718E-03   3.69239317E+20   5.73201855E+05   2.77368079E+05   4.54257846E+06   0.29242146      
  74               1.06837053E+01   6.41298161E+01   1166.58413387    1.55871543E-03   3.98171131E+20   5.91408952E+05   2.59186990E+05   4.40562125E+06   0.29122427      
  75               1.26395671E+01   7.12862831E+01   1202.70096022    1.68062672E-03   4.29313112E+20   6.12493797E+05   2.38111917E+05   4.26579790E+06   0.2898289       
  76               1.49534878E+01   7.91740986E+01   1240.05837293    1.81035734E-03   4.62452188E+20   6.32100438E+05   2.18490815E+05   4.12279691E+06   0.28853911      
  77               1.76910170E+01   8.78563114E+01   1277.46055188    1.95006655E-03   4.98139875E+20   6.48585891E+05   2.01971474E+05   3.97667219E+06   0.28697814      
  78               2.09297047E+01   9.73842931E+01   1315.96135629    2.09831417E-03   5.36008429E+20   6.60457033E+05   1.90050158E+05   3.82772198E+06   0.28567867      
  79               2.47612977E+01   1.07798996E+02   1354.33998474    2.25689866E-03   5.76517978E+20   6.65822341E+05   1.84652915E+05   3.67638126E+06   0.28395442      
  80               2.92943389E+01   1.19136062E+02   1393.49232881    2.42417097E-03   6.19247837E+20   6.66138197E+05   1.84390881E+05   3.52310909E+06   0.2825559       
  81               3.46572422E+01   1.31485257E+02   1432.52312706    2.60254911E-03   6.64815683E+20   6.61887361E+05   1.88708318E+05   3.36763506E+06   0.28080779      
  82               4.10019301E+01   1.44990746E+02   1472.50461169    2.79193714E-03   7.13196921E+20   6.54771114E+05   1.95779662E+05   3.20919740E+06   0.27933725      
  83               4.85081376E+01   1.59755851E+02   1512.61329694    2.99467042E-03   7.64988135E+20   6.42705774E+05   2.07686727E+05   3.04772077E+06   0.27747383      
  84               5.73885036E+01   1.75843206E+02   1553.47726148    3.20951629E-03   8.19872901E+20   6.27530427E+05   2.22602512E+05   2.88362740E+06   0.27604995      
  85               6.78945948E+01   1.93283081E+02   1594.29059144    3.43749431E-03   8.78116620E+20   6.07216277E+05   2.42586579E+05   2.71759106E+06   0.27412054      
  86               8.03240320E+01   2.12083355E+02   1635.35901032    3.67715940E-03   9.39332431E+20   5.84326693E+05   2.65128895E+05   2.55037089E+06   0.27259286      
  87               9.50289215E+01   2.32241986E+02   1676.12314722    3.92863073E-03   1.00360000E+21   5.57648102E+05   2.91572961E+05   2.38265089E+06   0.27085233      
  88               1.12425830E+02   2.53725476E+02   1716.72604666    4.19265085E-03   1.07050554E+21   5.29668741E+05   3.19543773E+05   2.21523447E+06   0.26919744      
  89               1.33007583E+02   2.76647497E+02   1756.95714485    4.46671460E-03   1.14048983E+21   5.02463161E+05   3.46937189E+05   2.04773424E+06   0.26768096      
  90               1.57357229E+02   3.01152492E+02   1797.30779334    4.75321837E-03   1.21363989E+21   4.77482030E+05   3.72260719E+05   1.87955660E+06   0.26605646      
  91               1.86164557E+02   3.27526177E+02   1837.67302022    5.05591094E-03   1.29093274E+21   4.51700380E+05   3.98524658E+05   1.70942771E+06   0.26451521      
  92               2.20245630E+02   3.55683173E+02   1878.19547728    5.37219794E-03   1.37166598E+21   4.21460294E+05   4.29352749E+05   1.53857877E+06   0.26298747      
  93               2.60565913E+02   3.85559362E+02   1918.22547035    5.70215468E-03   1.45585271E+21   3.93345602E+05   4.58113516E+05   1.36787960E+06   0.26149501      
  94               3.08267614E+02   4.17781571E+02   1958.91514828    6.05097863E-03   1.54475459E+21   3.64615762E+05   4.87445451E+05   1.19440904E+06   0.26002443      
  95               3.64702046E+02   4.51806649E+02   1998.96548090    6.41407510E-03   1.63709229E+21   3.30383043E+05   5.22085211E+05   1.02169622E+06   0.25859591      
  96               4.31467909E+02   4.87358376E+02   2038.52235008    6.78689308E-03   1.73164474E+21   3.01989708E+05   5.51074104E+05   8.51297967E+05   0.25723975      
  97               5.10456573E+02   5.25696469E+02   2078.39054387    7.18799039E-03   1.83203490E+21   2.74665232E+05   5.78572277E+05   6.77710067E+05   0.25580409      
  98               6.03905660E+02   5.64928925E+02   2117.01595521    7.58387233E-03   1.93283829E+21   2.42682474E+05   6.09627314E+05   5.09674641E+05   0.25452094      
  99               7.14462436E+02   6.04493459E+02   2153.60237842    7.97698176E-03   2.03306809E+21   2.21181878E+05   6.30202165E+05   3.48817036E+05   0.25326019      
  100              8.45258798E+02   6.48424095E+02   2192.22759404    8.40574095E-03   2.14239401E+21   2.10498757E+05   6.40225106E+05   1.79164410E+05   0.2519512       
  101              1.00000000E+03   6.97362638E+02   2232.56133163    8.87612504E-03   2.26246108E+21   2.04698285E+05   6.45708138E+05   0.00000000E+00   0.25056564      
