# ATMO pressure-temperature profile
# Effective temperature = 450.0K
# log(g) = 4.5cm/s^2
# M/H = 0.0
# Optical depth grid in band 17 (1.20-1.33microns)
# All parameters in cgs units
#
# Model Level      Optical Depth    Pressure         Temperature      Density          Number Density   Rad Flux         Conv Flux        Radial Extension Adiabatic Gradient
#                                   [Ba]             [K]              [g/cm^3]         [/cm^3]          [ergs/s/cm^2/sr] [ergs/s/cm^2/sr] [cm]             [K/Ba]          
  1                5.00000000E-05   1.00000000E-05   55.94620397      5.06701257E-09   1.29465846E+15   2.32490304E+06   0.00000000E+00   1.01233760E+07   0.34574453      
  2                5.91534807E-05   5.19537704E-04   75.08123399      1.96159017E-07   5.01200515E+16   2.32490304E+06   0.00000000E+00   9.61228738E+06   0.3148495       
  3                6.99826855E-05   1.08639286E-03   89.82231505      3.42866668E-07   8.76049198E+16   2.32490304E+06   0.00000000E+00   9.54316713E+06   0.31487988      
  4                8.27943887E-05   1.71072335E-03   98.80673978      4.90812144E-07   1.25406213E+17   2.32490304E+06   0.00000000E+00   9.49503952E+06   0.31490001      
  5                9.79515255E-05   2.41930005E-03   107.20884711     6.39699264E-07   1.63450009E+17   2.32490304E+06   0.00000000E+00   9.45505045E+06   0.31491623      
  6                1.15883473E-04   3.23167920E-03   113.94000788     8.03949641E-07   2.05436609E+17   2.32490304E+06   0.00000000E+00   9.41922791E+06   0.32124778      
  7                1.37098216E-04   4.16831579E-03   121.32104734     9.73974292E-07   2.48857252E+17   2.32490304E+06   0.00000000E+00   9.38575581E+06   0.32061904      
  8                1.62196734E-04   5.25127308E-03   127.50157480     1.16753989E-06   2.98314865E+17   2.32490304E+06   0.00000000E+00   9.35364127E+06   0.32518047      
  9                1.91890027E-04   6.50515857E-03   134.79518586     1.36806454E-06   3.49550031E+17   2.32490304E+06   0.00000000E+00   9.32226735E+06   0.32484086      
  10               2.27019260E-04   7.95907539E-03   140.86569643     1.60169734E-06   4.09244839E+17   2.32490304E+06   0.00000000E+00   9.29120774E+06   0.32599533      
  11               2.68579588E-04   9.64686366E-03   148.17335860     1.84560643E-06   4.71565316E+17   2.32490304E+06   0.00000000E+00   9.26016513E+06   0.32603103      
  12               3.17748350E-04   1.16072413E-02   154.38665389     2.13128892E-06   5.44559197E+17   2.32490304E+06   0.00000000E+00   9.22890801E+06   0.32461337      
  13               3.75918418E-04   1.38856191E-02   161.94135491     2.43069506E-06   6.21059656E+17   2.32490304E+06   0.00000000E+00   9.19725322E+06   0.32479271      
  14               4.44737657E-04   1.65357555E-02   168.30898436     2.78509249E-06   7.11610884E+17   2.32490304E+06   0.00000000E+00   9.16504378E+06   0.3228768       
  15               5.26155608E-04   1.96197021E-02   176.04523335     3.15927984E-06   8.07223839E+17   2.32490304E+06   0.00000000E+00   9.13216672E+06   0.32320626      
  16               6.22478712E-04   2.32081473E-02   182.67160970     3.60157557E-06   9.20227602E+17   2.32490304E+06   0.00000000E+00   9.09852595E+06   0.31972359      
  17               7.36435649E-04   2.73820674E-02   190.78572985     4.06833073E-06   1.03955192E+18   2.32490304E+06   0.00000000E+00   9.06404416E+06   0.32021909      
  18               8.71254639E-04   3.22335109E-02   198.00397499     4.61484441E-06   1.17912417E+18   2.32490304E+06   0.00000000E+00   9.02863755E+06   0.31648246      
  19               1.03075489E-03   3.78707486E-02   206.51482331     5.19773193E-06   1.32824595E+18   2.32490304E+06   0.00000000E+00   8.99223927E+06   0.31675853      
  20               1.21945479E-03   4.44168130E-02   213.93595166     5.88225493E-06   1.50379785E+18   2.32490304E+06   0.00000000E+00   8.95480224E+06   0.31337584      
  21               1.44269991E-03   5.20170583E-02   222.45341236     6.62876132E-06   1.69368467E+18   2.32490304E+06   0.00000000E+00   8.91631299E+06   0.31348529      
  22               1.70681442E-03   6.08411632E-02   229.79461603     7.50557140E-06   1.91771250E+18   2.32490304E+06   0.00000000E+00   8.87675241E+06   0.31059259      
  23               2.01928028E-03   7.10900141E-02   238.11272880     8.46349228E-06   2.16247865E+18   2.32490304E+06   0.00000000E+00   8.83608856E+06   0.31067314      
  24               2.38894914E-03   8.29928585E-02   245.36563022     9.58855401E-06   2.44992525E+18   2.32490304E+06   0.00000000E+00   8.79430558E+06   0.30834322      
  25               2.82629313E-03   9.68143498E-02   253.72118823     1.08170566E-05   2.76381415E+18   2.32490304E+06   0.00000000E+00   8.75138913E+06   0.30841135      
  26               3.34370152E-03   1.12867156E-01   261.15665698     1.22515943E-05   3.13034584E+18   2.32490304E+06   0.00000000E+00   8.70729304E+06   0.30651361      
  27               3.95583167E-03   1.31508265E-01   269.74137310     1.38207500E-05   3.53127324E+18   2.32490304E+06   0.00000000E+00   8.66199185E+06   0.30650491      
  28               4.68002425E-03   1.53149716E-01   277.52297822     1.56438404E-05   3.99708228E+18   2.32490304E+06   0.00000000E+00   8.61544944E+06   0.30487954      
  29               5.53679448E-03   1.78268114E-01   286.58663809     1.76337167E-05   4.50550599E+18   2.32490304E+06   0.00000000E+00   8.56762517E+06   0.30478627      
  30               6.55041330E-03   2.07418457E-01   295.02190671     1.99305490E-05   5.09235854E+18   2.32490304E+06   0.00000000E+00   8.51845382E+06   0.30353562      
  31               7.74959494E-03   2.41243658E-01   304.92857705     2.24276571E-05   5.73038258E+18   2.32490304E+06   0.00000000E+00   8.46786101E+06   0.30345878      
  32               9.16831029E-03   2.80472867E-01   314.38859820     2.52900796E-05   6.46174635E+18   2.32490304E+06   0.00000000E+00   8.41577243E+06   0.30254891      
  33               1.08467493E-02   3.25929370E-01   325.44594006     2.83903516E-05   7.25388188E+18   2.32490304E+06   0.00000000E+00   8.36212666E+06   0.30241468      
  34               1.28324595E-02   3.78533134E-01   336.21163130     3.19166499E-05   8.15486933E+18   2.32490304E+06   0.00000000E+00   8.30686514E+06   0.30163769      
  35               1.51816929E-02   4.39312972E-01   348.79766737     3.57047992E-05   9.12276094E+18   2.32490304E+06   0.00000000E+00   8.24992906E+06   0.30145874      
  36               1.79609996E-02   5.09455731E-01   361.45129744     3.99560735E-05   1.02089835E+19   2.32490304E+06   0.00000000E+00   8.19120337E+06   0.30091389      
  37               2.12491128E-02   5.90294157E-01   376.39418039     4.44581879E-05   1.13592962E+19   2.32490277E+06   0.00000000E+00   8.13055060E+06   0.30079038      
  38               2.51391797E-02   6.83236720E-01   392.50869654     4.93455442E-05   1.26080451E+19   2.32152087E+06   3.38228206E+03   8.06780045E+06   0.30043284      
  39               2.97413996E-02   7.89806619E-01   410.80276556     5.45025746E-05   1.39255786E+19   2.30840528E+06   1.64977407E+04   8.00281689E+06   0.30028243      
  40               3.51861462E-02   9.11795875E-01   428.03837717     6.03871487E-05   1.54291057E+19   2.28798138E+06   3.69217599E+04   7.93557486E+06   0.3000161       
  41               4.16276604E-02   1.05134487E+00   447.61315636     6.65843192E-05   1.70125023E+19   2.26056207E+06   6.43409366E+04   7.86598139E+06   0.29993258      
  42               4.92484201E-02   1.21083565E+00   466.04824323     7.36518981E-05   1.88182903E+19   2.22729961E+06   9.76035189E+04   7.79396064E+06   0.29977827      
  43               5.82643093E-02   1.39285169E+00   486.99431786     8.10795281E-05   2.07160438E+19   2.18885415E+06   1.36048883E+05   7.71947676E+06   0.29970891      
  44               6.89307339E-02   1.60018764E+00   506.66581387     8.95324448E-05   2.28757398E+19   2.15207212E+06   1.72830998E+05   7.64252312E+06   0.29951619      
  45               8.15498567E-02   1.83601851E+00   529.00256290     9.83977841E-05   2.51388333E+19   2.11934495E+06   2.05558079E+05   7.56306705E+06   0.29942366      
  46               9.64791575E-02   2.10445039E+00   549.97587985     1.08482844E-04   2.77153833E+19   2.09199709E+06   2.32906027E+05   7.48090696E+06   0.29923656      
  47               1.14141560E-01   2.40983320E+00   573.85325593     1.19056304E-04   3.04166915E+19   2.06738486E+06   2.57518187E+05   7.39593261E+06   0.29915897      
  48               1.35037411E-01   2.75667163E+00   596.23736928     1.31078659E-04   3.34881907E+19   2.04324448E+06   2.81658654E+05   7.30813453E+06   0.29891334      
  49               1.59758657E-01   3.14958302E+00   621.66235910     1.43636378E-04   3.66964733E+19   2.01463103E+06   3.10272020E+05   7.21758287E+06   0.29877317      
  50               1.89005613E-01   3.59348639E+00   645.38291723     1.57857135E-04   4.03296431E+19   1.98110693E+06   3.43796258E+05   7.12435965E+06   0.29841992      
  51               2.23606798E-01   4.09513971E+00   672.32511769     1.72685029E-04   4.41179400E+19   1.94032722E+06   3.84575812E+05   7.02827716E+06   0.29826536      
  52               2.64542408E-01   4.66199253E+00   697.49040418     1.89495169E-04   4.84126857E+19   1.89357530E+06   4.31327930E+05   6.92918395E+06   0.29781733      
  53               3.12972084E-01   5.30157792E+00   726.06535290     2.07011118E-04   5.28877724E+19   1.84026440E+06   4.84638690E+05   6.82706588E+06   0.29759352      
  54               3.70267763E-01   6.02152504E+00   752.68189345     2.26808152E-04   5.79456538E+19   1.78555434E+06   5.39348881E+05   6.72199691E+06   0.29694343      
  55               4.38052539E-01   6.83010824E+00   782.79193944     2.47368480E-04   6.31985452E+19   1.73296536E+06   5.91937871E+05   6.61404677E+06   0.29663231      
  56               5.18246648E-01   7.73841199E+00   810.82730010     2.70574195E-04   6.91272571E+19   1.68912268E+06   6.35780465E+05   6.50302304E+06   0.2957887       
  57               6.13121862E-01   8.76065992E+00   842.60495484     2.94766188E-04   7.53075733E+19   1.65851111E+06   6.66392382E+05   6.38855751E+06   0.29540098      
  58               7.25365844E-01   9.91067706E+00   872.30787846     3.22107286E-04   8.22923320E+19   1.64218304E+06   6.82719985E+05   6.27053474E+06   0.29432339      
  59               8.58158289E-01   1.12013153E+01   905.81172827     3.50588475E-04   8.95688345E+19   1.64445767E+06   6.80446048E+05   6.14908252E+06   0.29384318      
  60               1.01526100E+00   1.26439443E+01   937.02771919     3.82557196E-04   9.77363180E+19   1.66277418E+06   6.62129018E+05   6.02451419E+06   0.29253489      
  61               1.20112443E+00   1.42511265E+01   971.92198510     4.15703962E-04   1.06204674E+20   1.70066325E+06   6.24240573E+05   5.89706856E+06   0.29198688      
  62               1.42101382E+00   1.60394663E+01   1004.42364490    4.52731357E-04   1.15664164E+20   1.75439444E+06   5.70509318E+05   5.76671052E+06   0.290467        
  63               1.68115827E+00   1.80312401E+01   1040.66360172    4.91231901E-04   1.25499233E+20   1.82614787E+06   4.98755973E+05   5.63315039E+06   0.28984572      
  64               1.98892727E+00   2.02470227E+01   1074.58569524    5.34197816E-04   1.36472753E+20   1.91045847E+06   4.14448168E+05   5.49636691E+06   0.28809101      
  65               2.35303941E+00   2.27072400E+01   1112.14009145    5.78877385E-04   1.47887236E+20   2.00717130E+06   3.17732688E+05   5.35646322E+06   0.28732632      
  66               2.78380943E+00   2.54336520E+01   1147.36095706    6.28478992E-04   1.60558941E+20   2.10745819E+06   2.17449846E+05   5.21352352E+06   0.28546512      
  67               3.29344035E+00   2.84498315E+01   1186.07170121    6.80068531E-04   1.73737910E+20   2.20528950E+06   1.19615446E+05   5.06763013E+06   0.28463085      
  68               3.89636920E+00   3.17829880E+01   1222.49859070    7.37113306E-04   1.88309485E+20   2.29446893E+06   3.04438895E+04   4.91875830E+06   0.28277122      
  69               4.60967600E+00   3.54746931E+01   1262.44203734    7.96710487E-04   2.03532159E+20   2.32459727E+06   0.00000000E+00   4.76641967E+06   0.28199228      
  70               5.45356761E+00   3.95666810E+01   1298.05725386    8.64242132E-04   2.20780958E+20   2.32490344E+06   0.00000000E+00   4.61047629E+06   0.2801804       
  71               6.45195012E+00   4.40982105E+01   1336.95078381    9.35209360E-04   2.38908381E+20   2.32490334E+06   0.00000000E+00   4.45108180E+06   0.27936455      
  72               7.63310614E+00   4.91031408E+01   1372.89590810    1.01408765E-03   2.59058294E+20   2.32490308E+06   0.00000000E+00   4.28856182E+06   0.27757823      
  73               9.03049593E+00   5.46183527E+01   1412.69589359    1.09620187E-03   2.80037218E+20   2.32490292E+06   0.00000000E+00   4.12314482E+06   0.27669821      
  74               1.06837053E+01   6.06890898E+01   1450.25803920    1.18648138E-03   3.03103661E+20   2.32490300E+06   0.00000000E+00   3.95481270E+06   0.27483412      
  75               1.26395671E+01   6.73768768E+01   1492.00462665    1.28035392E-03   3.27089457E+20   2.32490281E+06   0.00000000E+00   3.78322415E+06   0.27385847      
  76               1.49534878E+01   7.47498462E+01   1531.86758079    1.38347288E-03   3.53439365E+20   2.32490305E+06   0.00000000E+00   3.60804034E+06   0.27194507      
  77               1.76910170E+01   8.28522337E+01   1576.13587723    1.49033442E-03   3.80746926E+20   2.32484608E+06   0.00000000E+00   3.42960218E+06   0.2709295       
  78               2.09297047E+01   9.16980817E+01   1618.64877920    1.60613457E-03   4.10330185E+20   2.26543121E+06   5.94781195E+04   3.24879681E+06   0.26898145      
  79               2.47612977E+01   1.01277081E+02   1663.60689880    1.72589682E-03   4.40946910E+20   2.17505077E+06   1.49857933E+05   3.06685845E+06   0.26794167      
  80               2.92943389E+01   1.11527511E+02   1705.82118095    1.85440075E-03   4.73559273E+20   2.05343504E+06   2.71473685E+05   2.88564812E+06   0.2660369       
  81               3.46572422E+01   1.22430997E+02   1749.71331912    1.98459227E-03   5.06816013E+20   1.92643752E+06   3.98470149E+05   2.70591393E+06   0.26507494      
  82               4.10019301E+01   1.33969768E+02   1790.77099647    2.12182142E-03   5.41866863E+20   1.77491677E+06   5.49990867E+05   2.52809727E+06   0.26321544      
  83               4.85081376E+01   1.46034199E+02   1832.81876192    2.25984624E-03   5.77113043E+20   1.65357404E+06   6.71332396E+05   2.35387031E+06   0.26234298      
  84               5.73885036E+01   1.59002064E+02   1873.08428648    2.40778215E-03   6.14852977E+20   1.52366057E+06   8.01246161E+05   2.17806820E+06   0.26050011      
  85               6.78945948E+01   1.72401439E+02   1913.80650714    2.55568351E-03   6.52482245E+20   1.36928843E+06   9.55617091E+05   2.00725165E+06   0.25968957      
  86               8.03240320E+01   1.85901874E+02   1950.67681622    2.70467449E-03   6.90278403E+20   1.23836851E+06   1.08653732E+06   1.84486687E+06   0.25795671      
  87               9.50289215E+01   2.00434522E+02   1989.64946423    2.86203649E-03   7.29662110E+20   1.11723665E+06   1.20766803E+06   1.67967824E+06   0.25722255      
  88               1.12425830E+02   2.14628249E+02   2024.12263912    3.01269998E-03   7.68025958E+20   9.58796884E+05   1.36610810E+06   1.52682052E+06   0.25553976      
  89               1.33007583E+02   2.27884886E+02   2055.99063681    3.14910797E-03   8.02823784E+20   8.63592272E+05   1.46131174E+06   1.39071925E+06   0.25507006      
  90               1.57357229E+02   2.42594577E+02   2088.35863446    3.30031470E-03   8.41398719E+20   8.15876570E+05   1.50902829E+06   1.24643044E+06   0.2534445       
  91               1.86164557E+02   2.58894891E+02   2123.55730502    3.46352544E-03   8.83050080E+20   7.26959622E+05   1.59794446E+06   1.09396913E+06   0.25288117      
  92               2.20245630E+02   2.73118227E+02   2151.89354742    3.60669276E-03   9.19296783E+20   5.94952444E+05   1.72995220E+06   9.66704701E+05   0.25137221      
  93               2.60565913E+02   2.84671278E+02   2174.83141928    3.71952536E-03   9.48077615E+20   5.24469962E+05   1.80043352E+06   8.66957984E+05   0.25123795      
  94               3.08267614E+02   2.97789323E+02   2199.16034320    3.84777842E-03   9.80794600E+20   5.01581939E+05   1.82332200E+06   7.57304976E+05   0.24983891      
  95               3.64702046E+02   3.12649809E+02   2226.37171698    3.99030037E-03   1.01715311E+21   4.81191919E+05   1.84371092E+06   6.37375627E+05   0.24957337      
  96               4.31467909E+02   3.29403355E+02   2255.24086758    4.15017127E-03   1.05793973E+21   4.55954490E+05   1.86894915E+06   5.07187519E+05   0.24797429      
  97               5.10456573E+02   3.48254876E+02   2286.71774369    4.32695814E-03   1.10308882E+21   4.00674544E+05   1.92422837E+06   3.66510748E+05   0.24757479      
  98               6.03905660E+02   3.62985208E+02   2310.10073472    4.46809220E-03   1.13810898E+21   3.20407550E+05   2.00449617E+06   2.60558310E+05   0.2461162       
  99               7.14462436E+02   3.73993059E+02   2327.20094117    4.57011088E-03   1.16400675E+21   2.81398084E+05   2.04388900E+06   1.83522454E+05   0.24619463      
  100              8.45258798E+02   3.86670357E+02   2346.33190397    4.68636757E-03   1.19365074E+21   2.70600679E+05   2.05878009E+06   9.68970441E+04   0.24462903      
  101              1.00000000E+03   4.01231997E+02   2367.57042549    4.81907319E-03   1.22749150E+21   2.64900660E+05   2.06034981E+06   0.00000000E+00   0.24375809      
