# ATMO pressure-temperature profile
# Effective temperature = 500.0K
# log(g) = 5.0cm/s^2
# M/H = 0.0
# Optical depth grid in band 17 (1.20-1.33microns)
# All parameters in cgs units
#
# Model Level      Optical Depth    Pressure         Temperature      Density          Number Density   Rad Flux         Conv Flux        Radial Extension Adiabatic Gradient
#                                   [Ba]             [K]              [g/cm^3]         [/cm^3]          [ergs/s/cm^2/sr] [ergs/s/cm^2/sr] [cm]             [K/Ba]          
  1                5.00000000E-07   1.00000000E-05   40.74732358      6.95743799E-09   1.77757016E+15   3.54356486E+06   0.00000000E+00   3.39273180E+06   0.34574466      
  2                6.19412983E-07   2.77148704E-05   55.93170067      1.40476365E-08   3.58905958E+15   3.54356486E+06   0.00000000E+00   3.37481289E+06   0.34574466      
  3                7.67344888E-07   4.96513130E-05   60.99527638      2.30771922E-08   5.89603935E+15   3.54356486E+06   0.00000000E+00   3.36262936E+06   0.34574466      
  4                9.50606773E-07   7.68136486E-05   64.15999966      3.39408312E-08   8.67161287E+15   3.54356486E+06   0.00000000E+00   3.35292394E+06   0.34574466      
  5                1.17763635E-06   1.10443353E-04   66.87859430      4.68167086E-08   1.19612973E+16   3.54356486E+06   0.00000000E+00   3.34448746E+06   0.31479376      
  6                1.45888650E-06   1.52076867E-04   68.99233774      6.24900294E-08   1.59657063E+16   3.54356486E+06   0.00000000E+00   3.33679018E+06   0.31480464      
  7                1.80730647E-06   2.03606019E-04   71.89006410      8.02916113E-08   2.05138691E+16   3.54356486E+06   0.00000000E+00   3.32951552E+06   0.31481487      
  8                2.23893819E-06   2.67063111E-04   74.67427348      1.01389115E-07   2.59041137E+16   3.54356486E+06   0.00000000E+00   3.32248238E+06   0.31482469      
  9                2.77365477E-06   3.44627420E-04   78.25010927      1.24857119E-07   3.19000024E+16   3.54356486E+06   0.00000000E+00   3.31558857E+06   0.3148342       
  10               3.43607555E-06   4.38924899E-04   81.41049012      1.52847479E-07   3.90513173E+16   3.54356486E+06   0.00000000E+00   3.30876260E+06   0.31484349      
  11               4.25669961E-06   5.53285388E-04   85.16751496      1.84172023E-07   4.70544893E+16   3.54356486E+06   0.00000000E+00   3.30194651E+06   0.31485263      
  12               5.27331001E-06   6.91995260E-04   88.46628741      2.21755168E-07   5.66566846E+16   3.54356486E+06   0.00000000E+00   3.29508281E+06   0.31486167      
  13               6.53271338E-06   8.60542432E-04   92.38451696      2.64071498E-07   6.74681710E+16   3.54356486E+06   0.00000000E+00   3.28811776E+06   0.3148707       
  14               8.09289496E-06   1.06556245E-03   95.82209097      3.15254791E-07   8.05450958E+16   3.54356486E+06   0.00000000E+00   3.28101210E+06   0.31487977      
  15               1.00256884E-05   1.31504734E-03   100.12808531     3.72334721E-07   9.51286456E+16   3.54356486E+06   0.00000000E+00   3.27373017E+06   0.31488893      
  16               1.24200832E-05   1.61864921E-03   104.08704635     4.40861659E-07   1.12637213E+17   3.54356486E+06   0.00000000E+00   3.26623663E+06   0.31489823      
  17               1.53863215E-05   1.98824396E-03   108.90687560     5.17556889E-07   1.32233110E+17   3.54356486E+06   0.00000000E+00   3.25849923E+06   0.31538282      
  18               1.90609746E-05   2.43841793E-03   113.26726054     6.10249361E-07   1.55929966E+17   3.54356486E+06   0.00000000E+00   3.25048895E+06   0.31869103      
  19               2.36132303E-05   2.98688800E-03   118.58314985     7.14076518E-07   1.82440728E+17   3.54356486E+06   0.00000000E+00   3.24218036E+06   0.32090157      
  20               2.92526829E-05   3.65527035E-03   123.40299241     8.39735235E-07   2.14545620E+17   3.54356486E+06   0.00000000E+00   3.23354896E+06   0.32311001      
  21               3.62389832E-05   4.46965064E-03   129.27336127     9.80197171E-07   2.50432320E+17   3.54356486E+06   0.00000000E+00   3.22457262E+06   0.32442621      
  22               4.48937934E-05   5.46168816E-03   134.63234451     1.15007562E-06   2.93834868E+17   3.54356486E+06   0.00000000E+00   3.21522915E+06   0.32550931      
  23               5.56155970E-05   6.67018943E-03   141.08333096     1.34032886E-06   3.42443008E+17   3.54356486E+06   0.00000000E+00   3.20549544E+06   0.325939        
  24               6.88980457E-05   8.14252730E-03   146.88917011     1.57151433E-06   4.01509001E+17   3.54356486E+06   0.00000000E+00   3.19535066E+06   0.32596131      
  25               8.53526881E-05   9.93612996E-03   153.88349312     1.83051847E-06   4.67682443E+17   3.54356486E+06   0.00000000E+00   3.18477567E+06   0.3256506       
  26               1.05737126E-04   1.21205423E-02   160.26538403     2.14403128E-06   5.47782511E+17   3.54356486E+06   0.00000000E+00   3.17374932E+06   0.32457824      
  27               1.30989898E-04   1.47814188E-02   167.84709555     2.49661124E-06   6.37864058E+17   3.54356486E+06   0.00000000E+00   3.16224837E+06   0.32393199      
  28               1.62273687E-04   1.80226534E-02   174.73872320     2.92397712E-06   7.47059876E+17   3.54356486E+06   0.00000000E+00   3.15025205E+06   0.32257918      
  29               2.01028857E-04   2.19695230E-02   182.82584014     3.40668511E-06   8.70379973E+17   3.54356486E+06   0.00000000E+00   3.13774659E+06   0.32114429      
  30               2.49039768E-04   2.67721041E-02   190.22558195     3.98953488E-06   1.01938778E+18   3.54356486E+06   0.00000000E+00   3.12471949E+06   0.31915801      
  31               3.08516931E-04   3.26113902E-02   198.92379787     4.64763265E-06   1.18743108E+18   3.54356486E+06   0.00000000E+00   3.11115877E+06   0.31758298      
  32               3.82198786E-04   3.97050351E-02   206.84764875     5.43817397E-06   1.39033942E+18   3.54356486E+06   0.00000000E+00   3.09704877E+06   0.31569062      
  33               4.73477780E-04   4.83175253E-02   215.98290892     6.34215073E-06   1.62035859E+18   3.54356486E+06   0.00000000E+00   3.08238371E+06   0.31409311      
  34               5.86556569E-04   5.87680255E-02   224.30719778     7.42762269E-06   1.89768327E+18   3.54356486E+06   0.00000000E+00   3.06715743E+06   0.31226029      
  35               7.26641509E-04   7.14450246E-02   233.61745936     8.66994596E-06   2.21509590E+18   3.54356486E+06   0.00000000E+00   3.05136011E+06   0.31085025      
  36               9.00182369E-04   8.68179632E-02   242.02109329     1.01697046E-05   2.59825765E+18   3.54356486E+06   0.00000000E+00   3.03498838E+06   0.30937732      
  37               1.11516929E-03   1.05456534E-01   251.46459644     1.18890898E-05   3.03754333E+18   3.54356486E+06   0.00000000E+00   3.01803782E+06   0.30827238      
  38               1.38150068E-03   1.28053972E-01   260.24342329     1.39497124E-05   3.56401177E+18   3.54356486E+06   0.00000000E+00   3.00049084E+06   0.30706741      
  39               1.71143891E-03   1.55443250E-01   270.19462893     1.63097432E-05   4.16697597E+18   3.54356486E+06   0.00000000E+00   2.98233258E+06   0.30605994      
  40               2.12017497E-03   1.88633523E-01   279.57877259     1.91278716E-05   4.88697955E+18   3.54356485E+06   0.00000000E+00   2.96354140E+06   0.30499945      
  41               2.62652780E-03   2.28849313E-01   290.24328914     2.23531839E-05   5.71101453E+18   3.54356486E+06   0.00000000E+00   2.94409257E+06   0.30422488      
  42               3.25381085E-03   2.77577343E-01   300.46000580     2.61908329E-05   6.69149537E+18   3.54356486E+06   0.00000000E+00   2.92395372E+06   0.30348752      
  43               4.03090537E-03   3.36592767E-01   312.08484510     3.05762392E-05   7.81192274E+18   3.54356486E+06   0.00000000E+00   2.90309927E+06   0.30290241      
  44               4.99359024E-03   4.07984618E-01   323.59685054     3.57430387E-05   9.13198823E+18   3.54356485E+06   0.00000000E+00   2.88150389E+06   0.30225856      
  45               6.18618926E-03   4.94214852E-01   336.93717840     4.15832883E-05   1.06241134E+19   3.54356486E+06   0.00000000E+00   2.85913706E+06   0.30174991      
  46               7.66361189E-03   5.98198228E-01   350.43138971     4.83942866E-05   1.23642552E+19   3.54356485E+06   0.00000000E+00   2.83595738E+06   0.30129784      
  47               9.49388141E-03   7.23412547E-01   365.92793207     5.60457219E-05   1.43191196E+19   3.54356486E+06   0.00000000E+00   2.81191454E+06   0.30095261      
  48               1.17612668E-02   8.73906577E-01   382.12090677     6.48359835E-05   1.65649469E+19   3.54356486E+06   0.00000000E+00   2.78694906E+06   0.30061878      
  49               1.45701627E-02   1.05441816E+00   401.12487474     7.45225231E-05   1.90396572E+19   3.54356485E+06   0.00000000E+00   2.76098012E+06   0.30037224      
  50               1.80498959E-02   1.27025630E+00   421.56302351     8.54246342E-05   2.18250219E+19   3.54356535E+06   0.00000000E+00   2.73392852E+06   0.30015678      
  51               2.23606798E-02   1.52712097E+00   445.83639780     9.71073710E-05   2.48098284E+19   3.53656562E+06   6.99905693E+03   2.70572608E+06   0.29998013      
  52               2.77009907E-02   1.83150832E+00   470.47295090     1.10364243E-04   2.81968165E+19   3.51579495E+06   2.77703330E+04   2.67632344E+06   0.29980628      
  53               3.43167066E-02   2.19169035E+00   496.84045374     1.25059874E-04   3.19512671E+19   3.48978270E+06   5.37819618E+04   2.64566501E+06   0.29962179      
  54               4.25124273E-02   2.61711733E+00   523.57687000     1.41721130E-04   3.62050024E+19   3.47437679E+06   6.91889805E+04   2.61370848E+06   0.29945783      
  55               5.26654988E-02   3.11864772E+00   552.19207363     1.60128394E-04   4.09074107E+19   3.46425673E+06   7.93078421E+04   2.58041603E+06   0.29929001      
  56               6.52433875E-02   3.70794497E+00   581.12047424     1.80908615E-04   4.62160626E+19   3.46147618E+06   8.20895820E+04   2.54579256E+06   0.29908843      
  57               8.08252026E-02   4.39952848E+00   612.04872791     2.03803754E-04   5.20650121E+19   3.46243236E+06   8.11320953E+04   2.50977544E+06   0.29883813      
  58               1.00128360E-01   5.20932355E+00   643.26384384     2.29606440E-04   5.86567546E+19   3.46091773E+06   8.26485312E+04   2.47234051E+06   0.29857518      
  59               1.24041612E-01   6.15494138E+00   676.58701080     2.57924063E-04   6.58910009E+19   3.44563455E+06   9.79296725E+04   2.43348276E+06   0.29822138      
  60               1.53665970E-01   7.25458377E+00   710.03989716     2.89681623E-04   7.40040669E+19   3.40911365E+06   1.34452560E+05   2.39325322E+06   0.29777623      
  61               1.90365394E-01   8.53123939E+00   745.66696414     3.24382856E-04   8.28691846E+19   3.34629693E+06   1.97267222E+05   2.35160616E+06   0.29719842      
  62               2.35829593E-01   1.00137595E+01   781.42278599     3.63329977E-04   9.28190087E+19   3.26372588E+06   2.79839941E+05   2.30842234E+06   0.29657616      
  63               2.92151824E-01   1.17358104E+01   819.63612888     4.05958700E-04   1.03709330E+20   3.17071355E+06   3.72850728E+05   2.26358348E+06   0.29579876      
  64               3.61925265E-01   1.37312318E+01   857.91418282     4.53792758E-04   1.15928840E+20   3.08713362E+06   4.56431778E+05   2.21709285E+06   0.29494432      
  65               4.48362417E-01   1.60339909E+01   898.65829151     5.05872364E-04   1.29232839E+20   3.03177780E+06   5.11786864E+05   2.16903107E+06   0.2939116       
  66               5.55443005E-01   1.86894738E+01   939.27998664     5.64151056E-04   1.44121192E+20   3.02098122E+06   5.22583884E+05   2.11932318E+06   0.29282894      
  67               6.88097217E-01   2.17426092E+01   982.48782137     6.27448130E-04   1.60291437E+20   3.05481060E+06   4.88753974E+05   2.06800638E+06   0.29155049      
  68               8.52432700E-01   2.52377296E+01   1025.24780379    6.97936869E-04   1.78298330E+20   3.13075920E+06   4.12806282E+05   2.01519040E+06   0.29023493      
  69               1.05601576E+00   2.92151868E+01   1070.44291867    7.73830019E-04   1.97683760E+20   3.24151714E+06   3.02046738E+05   1.96106822E+06   0.28870558      
  70               1.30821975E+00   3.37278424E+01   1114.77693988    8.57846174E-04   2.19142404E+20   3.38760899E+06   1.55958707E+05   1.90568155E+06   0.28721961      
  71               1.62065660E+00   3.88639448E+01   1161.87932613    9.48406891E-04   2.42276726E+20   3.54220182E+06   4.18710898E+03   1.84873969E+06   0.28555443      
  72               2.00771148E+00   4.47140124E+01   1208.24656606    1.04929604E-03   2.68048828E+20   3.54356312E+06   0.00000000E+00   1.79009688E+06   0.28384688      
  73               2.48720511E+00   5.13663862E+01   1250.69630693    1.16449921E-03   2.97476720E+20   3.54356526E+06   0.00000000E+00   1.72991604E+06   0.28229931      
  74               3.08121427E+00   5.88942873E+01   1294.88383874    1.28960660E-03   3.29433833E+20   3.54356439E+06   0.00000000E+00   1.66848667E+06   0.28071191      
  75               3.81708825E+00   6.73841983E+01   1337.08398665    1.42894646E-03   3.65027192E+20   3.54356536E+06   0.00000000E+00   1.60594537E+06   0.27914553      
  76               4.72870805E+00   7.69818144E+01   1382.45883341    1.57889189E-03   4.03331159E+20   3.54356480E+06   0.00000000E+00   1.54204847E+06   0.27752529      
  77               5.85804632E+00   8.78354036E+01   1427.03779482    1.74521356E-03   4.45820429E+20   3.54356506E+06   0.00000000E+00   1.47666416E+06   0.27587991      
  78               7.25709989E+00   1.00089966E+02   1475.55933946    1.92329144E-03   4.91314638E+20   3.54356771E+06   0.00000000E+00   1.40977558E+06   0.27412043      
  79               8.99028379E+00   1.13833980E+02   1523.96748000    2.11789059E-03   5.41030887E+20   3.54208548E+06   0.00000000E+00   1.34167664E+06   0.27236159      
  80               1.11373970E+01   1.29098944E+02   1576.71136389    2.32152170E-03   5.93056857E+20   3.54233974E+06   1.24700116E+03   1.27283371E+06   0.27053729      
  81               1.37972966E+01   1.45958730E+02   1629.98049226    2.53889632E-03   6.48594869E+20   3.36598601E+06   1.77596533E+05   1.20338801E+06   0.26877848      
  82               1.70924493E+01   1.64460732E+02   1682.71841954    2.77103029E-03   7.07907657E+20   3.15516847E+06   3.88412874E+05   1.13363249E+06   0.26697005      
  83               2.11745701E+01   1.84591262E+02   1735.43482196    3.01718059E-03   7.70421990E+20   2.93313048E+06   6.10449799E+05   1.06400416E+06   0.2652649       
  84               2.62316072E+01   2.06414633E+02   1787.25837690    3.27602928E-03   8.36525107E+20   2.71154690E+06   8.32032183E+05   9.94589694E+05   0.26348495      
  85               3.24963962E+01   2.30052768E+02   1839.08492501    3.54829490E-03   9.06048652E+20   2.49124620E+06   1.05233143E+06   9.25257956E+05   0.26182754      
  86               4.02573794E+01   2.55524826E+02   1889.97838300    3.83517709E-03   9.79269219E+20   2.25613463E+06   1.28744138E+06   8.56207806E+05   0.26009173      
  87               4.98718870E+01   2.82672639E+02   1940.29893952    4.13335777E-03   1.05521503E+21   2.00519959E+06   1.53841522E+06   7.88021246E+05   0.25852526      
  88               6.17825886E+01   3.11001754E+02   1988.45947825    4.43903694E-03   1.13284876E+21   1.79894346E+06   1.74465440E+06   7.21883794E+05   0.25688921      
  89               7.65378750E+01   3.42464224E+02   2038.33521605    4.77410648E-03   1.21692956E+21   1.60949890E+06   1.93412194E+06   6.53533512E+05   0.2553507       
  90               9.48171070E+01   3.75000795E+02   2085.78214478    5.10901094E-03   1.30223416E+21   1.38363502E+06   2.16004278E+06   5.87652027E+05   0.25370763      
  91               1.17461894E+02   4.07535215E+02   2130.31200953    5.43600741E-03   1.38563156E+21   1.23177903E+06   2.31183956E+06   5.25916457E+05   0.25232665      
  92               1.45514845E+02   4.44664902E+02   2177.41544020    5.80264982E-03   1.47916762E+21   1.07256033E+06   2.47134538E+06   4.59806185E+05   0.25062325      
  93               1.80267568E+02   4.78719519E+02   2218.02175499    6.13448416E-03   1.56329585E+21   8.54298676E+05   2.68929864E+06   4.02724484E+05   0.2493389       
  94               2.23320145E+02   5.07478527E+02   2250.34744004    6.40940603E-03   1.63340520E+21   7.25960654E+05   2.81835383E+06   3.56860017E+05   0.2480413       
  95               2.76654794E+02   5.41136942E+02   2286.48348303    6.72625684E-03   1.71421367E+21   6.78527888E+05   2.86508020E+06   3.05597666E+05   0.24688321      
  96               3.42727143E+02   5.80393910E+02   2326.18448324    7.09078134E-03   1.80719298E+21   6.30525837E+05   2.91457532E+06   2.48753811E+05   0.24522952      
  97               4.24579284E+02   6.26122647E+02   2369.75754861    7.50890371E-03   1.91373296E+21   5.41309569E+05   3.00231156E+06   1.86082424E+05   0.2438143       
  98               5.25979842E+02   6.64887298E+02   2404.55850586    7.86484674E-03   2.00280436E+21   4.23251913E+05   3.12172968E+06   1.35633517E+05   0.24220363      
  99               6.51597486E+02   6.96239343E+02   2431.47216964    8.14424571E-03   2.07403030E+21   3.63207853E+05   3.18120115E+06   9.64597284E+04   0.24128017      
  100              8.07215886E+02   7.33694033E+02   2462.37487676    8.47428334E-03   2.15817499E+21   3.43950109E+05   3.20697588E+06   5.13749809E+04   0.23962751      
  101              1.00000000E+03   7.78217176E+02   2497.20067086    8.86270380E-03   2.25721646E+21   3.33160454E+05   3.21125303E+06   0.00000000E+00   0.23838466      
