# ATMO pressure-temperature profile
# Effective temperature = 550.0K
# log(g) = 2.5cm/s^2
# M/H = 0.0
# Optical depth grid in band 17 (1.20-1.33microns)
# All parameters in cgs units
#
# Model Level      Optical Depth    Pressure         Temperature      Density          Number Density   Rad Flux         Conv Flux        Radial Extension Adiabatic Gradient
#                                   [Ba]             [K]              [g/cm^3]         [/cm^3]          [ergs/s/cm^2/sr] [ergs/s/cm^2/sr] [cm]             [K/Ba]          
  1                5.00000000E-04   1.00000000E-05   120.93966179     2.34277040E-09   5.98903829E+14   5.18286783E+06   0.00000000E+00   9.57471661E+08   0.33653914      
  2                5.78069831E-04   1.58120098E-04   158.00590581     2.83319793E-08   7.24835732E+15   5.18286783E+06   0.00000000E+00   8.99979231E+08   0.32240505      
  3                6.68329458E-04   3.11076079E-04   186.43197105     4.72769756E-08   1.20857071E+16   5.18286782E+06   0.00000000E+00   8.86763135E+08   0.32008383      
  4                7.72682194E-04   4.77096376E-04   200.98749395     6.72574726E-08   1.71934457E+16   5.18286780E+06   0.00000000E+00   8.77452784E+08   0.3159297       
  5                8.93328530E-04   6.61467530E-04   216.58874250     8.65318744E-08   2.21206809E+16   5.18286777E+06   0.00000000E+00   8.69810298E+08   0.3144878       
  6                1.03281254E-03   8.67852305E-04   225.63656041     1.08978245E-07   2.78587862E+16   5.18286774E+06   0.00000000E+00   8.63089518E+08   0.31175592      
  7                1.19407555E-03   1.10009581E-03   237.50330527     1.31239424E-07   3.35495496E+16   5.18286773E+06   0.00000000E+00   8.56948483E+08   0.31090518      
  8                1.38051810E-03   1.36221686E-03   244.24964988     1.58021348E-07   4.03959794E+16   5.18286775E+06   0.00000000E+00   8.51192602E+08   0.30895555      
  9                1.59607173E-03   1.65885303E-03   254.45438595     1.84714688E-07   4.72197637E+16   5.18286781E+06   0.00000000E+00   8.45702056E+08   0.30841231      
  10               1.84528182E-03   1.99499237E-03   260.30286803     2.17152957E-07   5.55121600E+16   5.18286791E+06   0.00000000E+00   8.40394608E+08   0.30697139      
  11               2.13340350E-03   2.37643004E-03   269.73343069     2.49628241E-07   6.38140188E+16   5.18286804E+06   0.00000000E+00   8.35213844E+08   0.30659382      
  12               2.46651240E-03   2.80951768E-03   275.22257522     2.89235220E-07   7.39389969E+16   5.18286820E+06   0.00000000E+00   8.30116976E+08   0.3054713       
  13               2.85163282E-03   3.30160040E-03   284.38984533     3.28937876E-07   8.40884337E+16   5.18286839E+06   0.00000000E+00   8.25072041E+08   0.30519498      
  14               3.29688580E-03   3.86092538E-03   289.71107406     3.77598076E-07   9.65277430E+16   5.18286874E+06   0.00000000E+00   8.20053328E+08   0.30429566      
  15               3.81166043E-03   4.49704567E-03   298.69874066     4.26576933E-07   1.09048513E+17   5.18286927E+06   0.00000000E+00   8.15041159E+08   0.30406663      
  16               4.40681180E-03   5.22057925E-03   304.04580029     4.86500335E-07   1.24367105E+17   5.18287001E+06   0.00000000E+00   8.10018676E+08   0.30333255      
  17               5.09488990E-03   6.04373346E-03   313.10152708     5.46919715E-07   1.39812486E+17   5.18287096E+06   0.00000000E+00   8.04972321E+08   0.30313411      
  18               5.89040429E-03   6.98020111E-03   318.64250095     6.20679918E-07   1.58668265E+17   5.18287216E+06   0.00000000E+00   7.99889590E+08   0.30253654      
  19               6.81013002E-03   8.04577406E-03   327.85098204     6.95336152E-07   1.77753100E+17   5.18287365E+06   0.00000000E+00   7.94760363E+08   0.3023608       
  20               7.87346142E-03   9.25801178E-03   333.71658069     7.86037755E-07   2.00939716E+17   5.18287550E+06   0.00000000E+00   7.89575125E+08   0.30187373      
  21               9.10282102E-03   1.06369084E-02   343.33877603     8.77800992E-07   2.24397701E+17   5.18287778E+06   0.00000000E+00   7.84325697E+08   0.30171979      
  22               1.05241324E-02   1.22047402E-02   349.77744135     9.88644699E-07   2.52733367E+17   5.18288078E+06   0.00000000E+00   7.79003618E+08   0.30132842      
  23               1.21673669E-02   1.39874259E-02   359.90872851     1.10115610E-06   2.81495372E+17   5.18288478E+06   0.00000000E+00   7.73600677E+08   0.30119597      
  24               1.40671754E-02   1.60139875E-02   366.87788790     1.23674944E-06   3.16157717E+17   5.18289000E+06   0.00000000E+00   7.68109132E+08   0.30083604      
  25               1.62636194E-02   1.83174005E-02   377.56915550     1.37458333E-06   3.51393053E+17   5.18289645E+06   0.00000000E+00   7.62522559E+08   0.3007865       
  26               1.88030155E-02   2.09339809E-02   385.29973713     1.53941892E-06   3.93531002E+17   5.18290427E+06   0.00000000E+00   7.56834421E+08   0.30055844      
  27               2.17389119E-02   2.39043390E-02   396.94170288     1.70629248E-06   4.36190147E+17   5.18291336E+06   0.00000000E+00   7.51038751E+08   0.30042795      
  28               2.51332183E-02   2.72729624E-02   405.88919246     1.90384697E-06   4.86688031E+17   5.18292370E+06   0.00000000E+00   7.45128435E+08   0.30021065      
  29               2.90575105E-02   3.10896148E-02   418.86995205     2.10301866E-06   5.37603360E+17   5.18293491E+06   0.00000000E+00   7.39096661E+08   0.30011231      
  30               3.35945403E-02   3.54086905E-02   429.36898111     2.33660854E-06   5.97317225E+17   5.18294719E+06   0.00000000E+00   7.32935305E+08   0.29996393      
  31               3.88399805E-02   4.02920022E-02   444.11012106     2.57059964E-06   6.57134121E+17   5.18295957E+06   0.00000000E+00   7.26634381E+08   0.29991432      
  32               4.49044419E-02   4.58035603E-02   457.06036109     2.83942381E-06   7.25857749E+17   5.18296973E+06   0.00000000E+00   7.20183157E+08   0.29979471      
  33               5.19158062E-02   5.20058633E-02   475.65459257     3.09814251E-06   7.91929380E+17   5.17835966E+06   4.61490670E+03   7.13570188E+08   0.29971907      
  34               6.00219227E-02   5.89614152E-02   492.99620061     3.38894038E-06   8.66263800E+17   5.15477521E+06   2.82041838E+04   7.06782077E+08   0.29960152      
  35               6.93937253E-02   6.67574079E-02   512.60554564     3.69023904E-06   9.43282994E+17   5.11349811E+06   6.94751980E+04   6.99810802E+08   0.29951747      
  36               8.02288381E-02   7.54900615E-02   530.87155309     4.02937439E-06   1.02997377E+18   5.05392813E+06   1.29020772E+05   6.92649365E+08   0.29939598      
  37               9.27557418E-02   8.52714199E-02   551.58418140     4.38054379E-06   1.11974087E+18   4.97353261E+06   2.09369235E+05   6.85287017E+08   0.29931177      
  38               1.07238592E-01   9.62204123E-02   570.86318121     4.77607133E-06   1.22084638E+18   4.87332412E+06   3.09499455E+05   6.77717386E+08   0.29915629      
  39               1.23982789E-01   1.08464874E-01   592.74995519     5.18504571E-06   1.32538919E+18   4.75166490E+06   4.31051562E+05   6.69936519E+08   0.29904096      
  40               1.43341420E-01   1.22143226E-01   613.07809713     5.64531468E-06   1.44304351E+18   4.61142821E+06   5.71143882E+05   6.61941612E+08   0.29884339      
  41               1.65722701E-01   1.37404093E-01   636.16328338     6.12019498E-06   1.56443279E+18   4.45300839E+06   7.29406687E+05   6.53731435E+08   0.29870842      
  42               1.91598587E-01   1.54432158E-01   657.57850953     6.65463224E-06   1.70104565E+18   4.28430290E+06   8.97928164E+05   6.45293802E+08   0.29846808      
  43               2.21514726E-01   1.73426166E-01   681.94787663     7.20604864E-06   1.84199854E+18   4.11064679E+06   1.07141109E+06   6.36620070E+08   0.29828217      
  44               2.56101960E-01   1.94589810E-01   704.51936322     7.82637944E-06   2.00056653E+18   3.94199839E+06   1.23988782E+06   6.27708352E+08   0.29791707      
  45               2.96089634E-01   2.18135414E-01   730.18048641     8.46506035E-06   2.16382331E+18   3.78700235E+06   1.39478917E+06   6.18560599E+08   0.29764186      
  46               3.42320969E-01   2.44288210E-01   753.87217994     9.18208461E-06   2.34709480E+18   3.65409732E+06   1.52764677E+06   6.09179949E+08   0.29719213      
  47               3.95770849E-01   2.73298962E-01   780.78549537     9.91848689E-06   2.53531593E+18   3.54745840E+06   1.63441016E+06   5.99566788E+08   0.29688495      
  48               4.57566375E-01   3.05497372E-01   805.61858104     1.07452633E-05   2.74665330E+18   3.46746318E+06   1.71457630E+06   5.89703921E+08   0.29632033      
  49               5.29010634E-01   3.41220845E-01   833.87103157     1.15951294E-05   2.96389291E+18   3.41321648E+06   1.76913456E+06   5.79583295E+08   0.29588551      
  50               6.11610175E-01   3.80802940E-01   859.89613709     1.25485395E-05   3.20759948E+18   3.38048046E+06   1.80213835E+06   5.69206471E+08   0.29509452      
  51               7.07106781E-01   4.24575175E-01   889.42881586     1.35264109E-05   3.45755615E+18   3.37144705E+06   1.81157701E+06   5.58581911E+08   0.29452276      
  52               8.17514195E-01   4.72882595E-01   916.53442941     1.46199180E-05   3.73706271E+18   3.38480878E+06   1.79846456E+06   5.47718898E+08   0.29353616      
  53               9.45160584E-01   5.26094393E-01   947.20484947     1.57385459E-05   4.02295894E+18   3.42338296E+06   1.76032721E+06   5.36625778E+08   0.29286112      
  54               1.09273764E+00   5.84710568E-01   975.32329978     1.69879942E-05   4.34228359E+18   3.48621995E+06   1.69767248E+06   5.25289656E+08   0.29171182      
  55               1.26335732E+00   6.49261851E-01   1007.15211391    1.82671052E-05   4.66928794E+18   3.57002570E+06   1.61424551E+06   5.13701908E+08   0.29095365      
  56               1.46061751E+00   7.20282338E-01   1036.33266678    1.96943776E-05   5.03418785E+18   3.67141564E+06   1.51292933E+06   5.01861198E+08   0.2896675       
  57               1.68867783E+00   7.98315853E-01   1069.28942536    2.11548233E-05   5.40760949E+18   3.78785256E+06   1.39684633E+06   4.89771778E+08   0.2888344       
  58               1.95234742E+00   8.83930474E-01   1099.46644529    2.27801542E-05   5.82320349E+18   3.92028190E+06   1.26440630E+06   4.77438884E+08   0.28739451      
  59               2.25718628E+00   9.77776514E-01   1133.45808969    2.44423939E-05   6.24827268E+18   4.06631959E+06   1.11873093E+06   4.64862207E+08   0.28640668      
  60               2.60962258E+00   1.08065121E+00   1164.59967740    2.62910938E-05   6.72101272E+18   4.22551396E+06   9.59492180E+05   4.52029080E+08   0.28477839      
  61               3.01708817E+00   1.19350770E+00   1199.67544117    2.81871631E-05   7.20588449E+18   4.39192193E+06   7.93419175E+05   4.38919262E+08   0.28370894      
  62               3.48817529E+00   1.31735253E+00   1231.91510615    3.02972431E-05   7.74545736E+18   4.56380170E+06   6.21485671E+05   4.25517844E+08   0.28193709      
  63               4.03281780E+00   1.45339000E+00   1268.19435312    3.24690770E-05   8.30084285E+18   4.73635439E+06   4.49277701E+05   4.11802012E+08   0.28084224      
  64               4.66250061E+00   1.60323263E+00   1301.77331606    3.48919516E-05   8.92045524E+18   4.91655733E+06   2.69029993E+05   3.97724110E+08   0.27963613      
  65               5.39050188E+00   1.76925072E+00   1339.88936223    3.74084495E-05   9.56414784E+18   5.08856218E+06   9.74340534E+04   3.83192684E+08   0.27857698      
  66               6.23217301E+00   1.95480901E+00   1375.69797875    4.02540882E-05   1.02921729E+19   5.18654774E+06   0.00000000E+00   3.68071310E+08   0.27737551      
  67               7.20526240E+00   2.16424000E+00   1414.56902690    4.33399721E-05   1.10817185E+19   5.18738438E+06   0.00000000E+00   3.52215333E+08   0.27622822      
  68               8.33028963E+00   2.40141190E+00   1449.96646525    4.69139683E-05   1.19959470E+19   5.18749266E+06   0.00000000E+00   3.35582385E+08   0.27487084      
  69               9.63097823E+00   2.66822452E+00   1489.91746388    5.07314104E-05   1.29713745E+19   5.18757603E+06   0.00000000E+00   3.18287202E+08   0.27359979      
  70               1.11347559E+01   2.96417678E+00   1527.68764328    5.49650372E-05   1.40538520E+19   5.18717850E+06   0.00000000E+00   3.00564024E+08   0.2721385       
  71               1.28733329E+01   3.28230013E+00   1570.53741096    5.92272116E-05   1.51375588E+19   5.18627827E+06   9.55771869E+02   2.82931228E+08   0.27074225      
  72               1.48833708E+01   3.61562261E+00   1612.10727057    6.35611477E-05   1.62448235E+19   4.83810117E+06   3.47672806E+05   2.65751769E+08   0.26914493      
  73               1.72072553E+01   3.96162271E+00   1652.09928009    6.79651914E-05   1.73685199E+19   4.39960104E+06   7.85880379E+05   2.49104567E+08   0.26763768      
  74               1.98939903E+01   4.30613179E+00   1689.30835032    7.22632431E-05   1.84630833E+19   3.84936820E+06   1.33545071E+06   2.33559096E+08   0.2661789       
  75               2.30002312E+01   4.61865827E+00   1720.97759278    7.61205943E-05   1.94386658E+19   3.22877597E+06   1.95482731E+06   2.20233279E+08   0.26491209      
  76               2.65914795E+01   4.87447334E+00   1745.70993193    7.92427620E-05   2.02246706E+19   2.75876386E+06   2.42398760E+06   2.09817177E+08   0.26382404      
  77               3.07434641E+01   5.13808746E+00   1770.05459949    8.24221399E-05   2.10252258E+19   2.52636695E+06   2.65646424E+06   1.99502088E+08   0.26292372      
  78               3.55437382E+01   5.42334413E+00   1795.37844665    8.57689855E-05   2.18794800E+19   2.29435862E+06   2.88775185E+06   1.88773344E+08   0.26195525      
  79               4.10935254E+01   5.65670588E+00   1815.20897549    8.85112047E-05   2.25716240E+19   1.98525134E+06   3.19510788E+06   1.80303241E+08   0.26116671      
  80               4.75098546E+01   5.82867080E+00   1829.49518256    9.04886002E-05   2.30761895E+19   1.80485365E+06   3.37477014E+06   1.74226876E+08   0.26052351      
  81               5.49280272E+01   6.01947167E+00   1844.84343663    9.26722062E-05   2.36333180E+19   1.74592951E+06   3.43319765E+06   1.67638039E+08   0.25983063      
  82               6.35044707E+01   6.23153426E+00   1861.54308201    9.50750711E-05   2.42464262E+19   1.68694107E+06   3.49230926E+06   1.60493799E+08   0.25904342      
  83               7.34200373E+01   6.46650266E+00   1879.39800573    9.77211520E-05   2.49216354E+19   1.61988155E+06   3.55951653E+06   1.52785085E+08   0.25820327      
  84               8.48838171E+01   6.72579167E+00   1898.59465337    1.00606353E-04   2.56588387E+19   1.46928226E+06   3.70966954E+06   1.44515623E+08   0.25756825      
  85               9.81375475E+01   6.91986409E+00   1912.48757377    1.02843175E-04   2.62074510E+19   1.25973464E+06   3.91819097E+06   1.38481560E+08   0.25712726      
  86               1.13460711E+02   7.06094890E+00   1922.48418961    1.04393224E-04   2.66027254E+19   1.14782028E+06   4.03299183E+06   1.34175735E+08   0.25661572      
  87               1.31176428E+02   7.22000087E+00   1933.43959535    1.06138637E-04   2.70478333E+19   1.11442988E+06   4.06768698E+06   1.29397515E+08   0.25606586      
  88               1.51658271E+02   7.39892536E+00   1945.63971157    1.08085519E-04   2.75443205E+19   1.07994812E+06   4.10198344E+06   1.24114895E+08   0.25542445      
  89               1.75338142E+02   7.59977338E+00   1958.92274647    1.10265093E-04   2.81001846E+19   1.04151773E+06   4.14177076E+06   1.18297014E+08   0.25473751      
  90               2.02715380E+02   7.82457371E+00   1973.56124486    1.12682801E-04   2.87167917E+19   1.00094382E+06   4.18171474E+06   1.11919533E+08   0.25393061      
  91               2.34367291E+02   8.07539228E+00   1989.35265076    1.15369374E-04   2.94020554E+19   9.58182335E+05   4.22454759E+06   1.04963114E+08   0.2530756       
  92               2.70961321E+02   8.35452277E+00   2006.56617785    1.18330603E-04   3.01574071E+19   9.15083355E+05   4.27027314E+06   9.74084773E+07   0.25209149      
  93               3.13269130E+02   8.66415659E+00   2024.96011973    1.21598070E-04   3.09910048E+19   8.74406307E+05   4.31176971E+06   8.92457247E+07   0.25107526      
  94               3.62182865E+02   9.00815524E+00   2044.87767048    1.25190454E-04   3.19076169E+19   8.37455737E+05   4.34934799E+06   8.04289864E+07   0.24989402      
  95               4.18733975E+02   9.38939678E+00   2066.04960223    1.29146678E-04   3.29171925E+19   7.99352403E+05   4.38840000E+06   7.09475709E+07   0.24868251      
  96               4.84114957E+02   9.81090741E+00   2088.75229863    1.33471723E-04   3.40210784E+19   7.60928863E+05   4.42769829E+06   6.07950821E+07   0.24726112      
  97               5.59704502E+02   1.02758822E+01   2112.65661434    1.38208579E-04   3.52302759E+19   7.21937306E+05   4.46797273E+06   4.99690932E+07   0.24584911      
  98               6.47096573E+02   1.07876940E+01   2138.06464835    1.43359510E-04   3.65454762E+19   6.82845755E+05   4.50830993E+06   3.84708932E+07   0.24422207      
  99               7.48134013E+02   1.13499252E+01   2164.57709814    1.48973373E-04   3.79791973E+19   6.43626865E+05   4.54931116E+06   2.63048932E+07   0.24261649      
  100              8.64947405E+02   1.19663808E+01   2192.53736551    1.55049160E-04   3.95313508E+19   6.04555380E+05   4.59017191E+06   1.34782438E+07   0.24069497      
  101              1.00000000E+03   1.26411398E+01   2221.44766586    1.61645096E-04   4.12169631E+19   5.82629031E+05   4.61143120E+06   0.00000000E+00   0.23879946      
