# ATMO pressure-temperature profile
# Effective temperature = 400.0K
# log(g) = 4.5cm/s^2
# M/H = 0.0
# Optical depth grid in band 17 (1.20-1.33microns)
# All parameters in cgs units
#
# Model Level      Optical Depth    Pressure         Temperature      Density          Number Density   Rad Flux         Conv Flux        Radial Extension Adiabatic Gradient
#                                   [Ba]             [K]              [g/cm^3]         [/cm^3]          [ergs/s/cm^2/sr] [ergs/s/cm^2/sr] [cm]             [K/Ba]          
  1                5.00000000E-05   1.00000000E-05   47.29314897      5.99442155E-09   1.53153740E+15   1.45139626E+06   0.00000000E+00   9.72001224E+06   0.34612403      
  2                5.91534807E-05   4.55174283E-04   62.12935194      2.07695175E-07   5.30648246E+16   1.45139626E+06   0.00000000E+00   9.32103950E+06   0.31481522      
  3                6.99826855E-05   9.77039532E-04   72.83822248      3.80275469E-07   9.71580158E+16   1.45139626E+06   0.00000000E+00   9.26231815E+06   0.31484356      
  4                8.27943887E-05   1.58101771E-03   79.18031181      5.66063354E-07   1.44625664E+17   1.45139626E+06   0.00000000E+00   9.22115206E+06   0.31486326      
  5                9.79515255E-05   2.26763897E-03   85.56096176      7.51352553E-07   1.91965902E+17   1.45139626E+06   0.00000000E+00   9.18785830E+06   0.31487908      
  6                1.15883473E-04   3.05129386E-03   90.34035152      9.57519819E-07   2.44640355E+17   1.45139626E+06   0.00000000E+00   9.15864174E+06   0.31489272      
  7                1.37098216E-04   3.95161361E-03   96.08111598      1.16595543E-06   2.97894355E+17   1.45139626E+06   0.00000000E+00   9.13169651E+06   0.31490517      
  8                1.62196734E-04   4.98956059E-03   100.55429467     1.40671750E-06   3.59407815E+17   1.45139626E+06   0.00000000E+00   9.10606757E+06   0.31491691      
  9                1.91890027E-04   6.18860296E-03   106.38328170     1.64916456E-06   4.21352017E+17   1.45139626E+06   0.00000000E+00   9.08117331E+06   0.31492825      
  10               2.27019260E-04   7.57646262E-03   110.93410436     1.93616280E-06   4.94683293E+17   1.45139626E+06   0.00000000E+00   9.05661251E+06   0.3149394       
  11               2.68579588E-04   9.18548017E-03   116.97860578     2.22602530E-06   5.68749808E+17   1.45139626E+06   0.00000000E+00   9.03210355E+06   0.31943463      
  12               3.17748350E-04   1.10523218E-02   121.80455658     2.57217138E-06   6.57227650E+17   1.45139626E+06   0.00000000E+00   9.00743223E+06   0.3149617       
  13               3.75918418E-04   1.32189489E-02   128.33686322     2.92005809E-06   7.46055854E+17   1.45139626E+06   0.00000000E+00   8.98243232E+06   0.32293979      
  14               4.44737657E-04   1.57343538E-02   133.57585415     3.33938841E-06   8.53192031E+17   1.45139626E+06   0.00000000E+00   8.95695940E+06   0.31694582      
  15               5.26155608E-04   1.86562552E-02   140.56150192     3.76273881E-06   9.61355298E+17   1.45139626E+06   0.00000000E+00   8.93089306E+06   0.32554706      
  16               6.22478712E-04   2.20510500E-02   146.24424070     4.27460991E-06   1.09213504E+18   1.45139626E+06   0.00000000E+00   8.90412522E+06   0.32546467      
  17               7.36435649E-04   2.59956269E-02   153.85273424     4.79006115E-06   1.22382950E+18   1.45139626E+06   0.00000000E+00   8.87655872E+06   0.32583311      
  18               8.71254639E-04   3.05794193E-02   160.08982692     5.41516181E-06   1.38353879E+18   1.45139626E+06   0.00000000E+00   8.84809782E+06   0.325833        
  19               1.03075489E-03   3.59085932E-02   168.14734730     6.05416476E-06   1.54680017E+18   1.45139626E+06   0.00000000E+00   8.81866532E+06   0.32533653      
  20               1.21945479E-03   4.21054056E-02   174.74439230     6.83093139E-06   1.74526125E+18   1.45139626E+06   0.00000000E+00   8.78819330E+06   0.32533735      
  21               1.44269991E-03   4.93107010E-02   183.18472135     7.63126318E-06   1.94974479E+18   1.45139626E+06   0.00000000E+00   8.75663500E+06   0.32512549      
  22               1.70681442E-03   5.76843802E-02   190.24709597     8.59536717E-06   2.19617040E+18   1.45139626E+06   0.00000000E+00   8.72393966E+06   0.32507701      
  23               2.01928028E-03   6.74068611E-02   199.41150919     9.58296800E-06   2.44838508E+18   1.45139626E+06   0.00000000E+00   8.69006345E+06   0.32486283      
  24               2.38894914E-03   7.86872066E-02   207.03142936     1.07735563E-05   2.75292061E+18   1.45139626E+06   0.00000000E+00   8.65495652E+06   0.32471748      
  25               2.82629313E-03   9.17666609E-02   216.29652375     1.20205456E-05   3.07299058E+18   1.45139626E+06   0.00000000E+00   8.61861124E+06   0.32426102      
  26               3.34370152E-03   1.06933960E-01   223.82051639     1.35444820E-05   3.46052187E+18   1.45139626E+06   0.00000000E+00   8.58102188E+06   0.32397459      
  27               3.95583167E-03   1.24526265E-01   232.74061548     1.51683318E-05   3.87538294E+18   1.45139626E+06   0.00000000E+00   8.54220929E+06   0.32323286      
  28               4.68002425E-03   1.44934077E-01   239.92884026     1.71252570E-05   4.37536102E+18   1.45139626E+06   0.00000000E+00   8.50216791E+06   0.32282792      
  29               5.53679448E-03   1.68628223E-01   248.67204547     1.92243790E-05   4.91166952E+18   1.45139626E+06   0.00000000E+00   8.46087302E+06   0.32183771      
  30               6.55041330E-03   1.96147105E-01   255.96061054     2.17249012E-05   5.55053193E+18   1.45139626E+06   0.00000000E+00   8.41829105E+06   0.32132174      
  31               7.74959494E-03   2.28117347E-01   265.03168808     2.44011084E-05   6.23428066E+18   1.45139626E+06   0.00000000E+00   8.37438117E+06   0.32012842      
  32               9.16831029E-03   2.65257690E-01   272.89118884     2.75567193E-05   7.04051307E+18   1.45139626E+06   0.00000000E+00   8.32908856E+06   0.31954666      
  33               1.08467493E-02   3.08387020E-01   282.75742927     3.09194036E-05   7.89965100E+18   1.45139626E+06   0.00000000E+00   8.28236419E+06   0.31831683      
  34               1.28324595E-02   3.58430442E-01   291.60795301     3.48461312E-05   8.90289730E+18   1.45139626E+06   0.00000000E+00   8.23415230E+06   0.31764513      
  35               1.51816929E-02   4.16453934E-01   302.56248724     3.90212279E-05   9.96959985E+18   1.45139626E+06   0.00000000E+00   8.18439279E+06   0.31628297      
  36               1.79609996E-02   4.83665123E-01   312.71320707     4.38477781E-05   1.12027434E+19   1.45139626E+06   0.00000000E+00   8.13301004E+06   0.3154732       
  37               2.12491128E-02   5.61428998E-01   325.29024251     4.89297333E-05   1.25011407E+19   1.45139626E+06   0.00000000E+00   8.07991944E+06   0.31416808      
  38               2.51391797E-02   6.51242927E-01   337.64553712     5.46803204E-05   1.39703680E+19   1.45139593E+06   0.00000000E+00   8.02501066E+06   0.31278178      
  39               2.97413996E-02   7.54730072E-01   353.41983807     6.05410260E-05   1.54677296E+19   1.45006570E+06   1.33059221E+03   7.96813244E+06   0.31090094      
  40               3.51861462E-02   8.73684675E-01   369.94369640     6.69527164E-05   1.71058605E+19   1.44069787E+06   1.06984125E+04   7.90904812E+06   0.30935269      
  41               4.16276604E-02   1.01039602E+00   386.79956379     7.40550648E-05   1.89204513E+19   1.42529896E+06   2.60973153E+04   7.84765170E+06   0.3077131       
  42               4.92484201E-02   1.16738770E+00   404.44981749     8.18275184E-05   2.09062581E+19   1.40440415E+06   4.69921249E+04   7.78387683E+06   0.30641372      
  43               5.82643093E-02   1.34735755E+00   422.45958096     9.04173107E-05   2.31006147E+19   1.37889958E+06   7.24966895E+04   7.71771215E+06   0.30530402      
  44               6.89307339E-02   1.55325440E+00   441.29694340     9.97850686E-05   2.54939725E+19   1.35037557E+06   1.01020702E+05   7.64916473E+06   0.3043723       
  45               8.15498567E-02   1.78837124E+00   460.48501248     1.10102215E-04   2.81298890E+19   1.32103224E+06   1.30364028E+05   7.57823097E+06   0.30350779      
  46               9.64791575E-02   2.05665045E+00   480.54511809     1.21333413E-04   3.09993191E+19   1.29270462E+06   1.58691648E+05   7.50483049E+06   0.30266228      
  47               1.14141560E-01   2.36247197E+00   500.96837630     1.33694391E-04   3.41571944E+19   1.26884106E+06   1.82555210E+05   7.42889902E+06   0.30193996      
  48               1.35037411E-01   2.71054803E+00   522.31917533     1.47121653E-04   3.75878061E+19   1.25186842E+06   1.99527848E+05   7.35041535E+06   0.30136041      
  49               1.59758657E-01   3.10620962E+00   544.04077480     1.61878281E-04   4.13547262E+19   1.23962579E+06   2.11770484E+05   7.26933807E+06   0.30095951      
  50               1.89005613E-01   3.55508066E+00   566.74394593     1.77849160E-04   4.54347778E+19   1.22759248E+06   2.23803786E+05   7.18568124E+06   0.30059021      
  51               2.23606798E-01   4.06393516E+00   589.81432683     1.95353256E-04   4.99065206E+19   1.21214813E+06   2.39248143E+05   7.09935211E+06   0.30032986      
  52               2.64542408E-01   4.64039380E+00   613.95541855     2.14292575E-04   5.47449219E+19   1.19009177E+06   2.61304494E+05   7.01025692E+06   0.30011461      
  53               3.12972084E-01   5.29210586E+00   638.45919241     2.35008939E-04   6.00373091E+19   1.16095875E+06   2.90437522E+05   6.91842154E+06   0.29995536      
  54               3.70267763E-01   6.02755432E+00   664.06074137     2.57348806E-04   6.57444606E+19   1.12603769E+06   3.25358583E+05   6.82385250E+06   0.29982397      
  55               4.38052539E-01   6.85544565E+00   689.97865253     2.81701152E-04   7.19657536E+19   1.08787249E+06   3.63523778E+05   6.72661855E+06   0.29966165      
  56               5.18246648E-01   7.78555804E+00   716.99301354     3.07866957E-04   7.86503505E+19   1.04890700E+06   4.02489271E+05   6.62674291E+06   0.29950907      
  57               6.13121862E-01   8.83117249E+00   744.34898145     3.36379595E-04   8.59345108E+19   1.01156811E+06   4.39828157E+05   6.52399447E+06   0.29934805      
  58               7.25365844E-01   1.00059928E+01   772.92106202     3.67039250E-04   9.37671866E+19   9.77310707E+05   4.74085559E+05   6.41826395E+06   0.29920642      
  59               8.58158289E-01   1.13260818E+01   801.87996533     4.00458473E-04   1.02304838E+20   9.48291911E+05   5.03104355E+05   6.30937890E+06   0.29898496      
  60               1.01526100E+00   1.28080164E+01   832.13334948     4.36391348E-04   1.11484576E+20   9.26909012E+05   5.24487255E+05   6.19727717E+06   0.29875283      
  61               1.20112443E+00   1.44675495E+01   862.72316681     4.75458540E-04   1.21464497E+20   9.15723473E+05   5.35672799E+05   6.08206671E+06   0.29847454      
  62               1.42101382E+00   1.63238981E+01   894.61243305     5.17344883E-04   1.32164490E+20   9.17670658E+05   5.33725614E+05   5.96370434E+06   0.29816851      
  63               1.68115827E+00   1.83996962E+01   926.84052379     5.62854828E-04   1.43790925E+20   9.33119633E+05   5.18276639E+05   5.84205862E+06   0.29771632      
  64               1.98892727E+00   2.07153481E+01   960.37141620     6.11566217E-04   1.56235186E+20   9.60682144E+05   4.90714126E+05   5.71724747E+06   0.29717057      
  65               2.35303941E+00   2.32922209E+01   994.11224154     6.64302901E-04   1.69707611E+20   9.97919408E+05   4.53476867E+05   5.58940115E+06   0.29655124      
  66               2.78380943E+00   2.61502225E+01   1029.07084041    7.20480270E-04   1.84058533E+20   1.04138516E+06   4.10011116E+05   5.45876345E+06   0.29580793      
  67               3.29344035E+00   2.93078532E+01   1064.01841994    7.80963091E-04   1.99508177E+20   1.08881530E+06   3.62580973E+05   5.32564588E+06   0.29492639      
  68               3.89636920E+00   3.27917064E+01   1100.10267862    8.45156128E-04   2.15901984E+20   1.14007509E+06   3.11321184E+05   5.19004050E+06   0.29391307      
  69               4.60967600E+00   3.66431067E+01   1136.21673090    9.14401675E-04   2.33591452E+20   1.19800061E+06   2.53397546E+05   5.05149842E+06   0.29279438      
  70               5.45356761E+00   4.09069146E+01   1173.68373249    9.88215697E-04   2.52447735E+20   1.25749359E+06   1.93903113E+05   4.90965692E+06   0.29153156      
  71               6.45195012E+00   4.56230575E+01   1211.19118233    1.06801844E-03   2.72833394E+20   1.31396852E+06   1.37427886E+05   4.76448860E+06   0.2901463       
  72               7.63310614E+00   5.08263036E+01   1249.99857334    1.15289020E-03   2.94513257E+20   1.36075216E+06   9.06441276E+04   4.61620564E+06   0.28872392      
  73               9.03049593E+00   5.65464127E+01   1288.62854714    1.24419603E-03   3.17836047E+20   1.39656078E+06   5.48356233E+04   4.46517460E+06   0.28713935      
  74               1.06837053E+01   6.28125536E+01   1328.35532782    1.34074535E-03   3.42497990E+20   1.42094452E+06   3.04517796E+04   4.31175423E+06   0.2856463       
  75               1.26395671E+01   6.96867795E+01   1367.88258787    1.44449694E-03   3.69000889E+20   1.43819578E+06   1.32005396E+04   4.15554999E+06   0.28392764      
  76               1.49534878E+01   7.72391531E+01   1408.66727690    1.55468710E-03   3.97150320E+20   1.44871686E+06   2.68066828E+03   3.99618082E+06   0.28242773      
  77               1.76910170E+01   8.55533036E+01   1449.47019330    1.67355021E-03   4.27516947E+20   1.45031413E+06   1.11062958E+03   3.83318451E+06   0.28060493      
  78               2.09297047E+01   9.46930137E+01   1491.54538589    1.80006855E-03   4.59840592E+20   1.44074188E+06   1.06544299E+04   3.66666332E+06   0.27901072      
  79               2.47612977E+01   1.04696485E+02   1533.47684904    1.93578946E-03   4.94516422E+20   1.41708711E+06   3.43092216E+04   3.49719900E+06   0.27731339      
  80               2.92943389E+01   1.15575970E+02   1576.29624645    2.07887082E-03   5.31074619E+20   1.37924651E+06   7.21501449E+04   3.32569793E+06   0.27568065      
  81               3.46572422E+01   1.27322793E+02   1618.46357855    2.23049732E-03   5.69808688E+20   1.32732245E+06   1.24075419E+05   3.15319029E+06   0.27380927      
  82               4.10019301E+01   1.39964488E+02   1661.13593223    2.38888112E-03   6.10293192E+20   1.26595869E+06   1.85437591E+05   2.98000598E+06   0.27230846      
  83               4.85081376E+01   1.53483006E+02   1702.94999371    2.55655290E-03   6.52806154E+20   1.19625650E+06   2.55145093E+05   2.80699936E+06   0.27040009      
  84               5.73885036E+01   1.67919358E+02   1744.97498031    2.72960768E-03   6.97007419E+20   1.13007780E+06   3.21318468E+05   2.63418433E+06   0.26902485      
  85               6.78945948E+01   1.83338434E+02   1786.35922680    2.91118628E-03   7.43379465E+20   1.06000578E+06   3.91408672E+05   2.46121255E+06   0.26719268      
  86               8.03240320E+01   1.99710054E+02   1827.71551180    3.09938658E-03   7.91438498E+20   9.85699641E+05   4.65727531E+05   2.28885872E+06   0.26582644      
  87               9.50289215E+01   2.16933286E+02   1868.07132906    3.29398615E-03   8.41121200E+20   9.18208844E+05   5.33244870E+05   2.11840060E+06   0.26417562      
  88               1.12425830E+02   2.35431278E+02   1908.91993133    3.49858028E-03   8.93310188E+20   8.51478186E+05   5.99990779E+05   1.94608657E+06   0.2627193       
  89               1.33007583E+02   2.54740814E+02   1948.60585189    3.70910715E-03   9.46891831E+20   7.70693635E+05   6.80819083E+05   1.77657584E+06   0.26126782      
  90               1.57357229E+02   2.74612900E+02   1987.26253044    3.92187989E-03   1.00090194E+21   7.06830472E+05   7.44713445E+05   1.61180944E+06   0.25989027      
  91               1.86164557E+02   2.96165029E+02   2026.42247148    4.15019524E-03   1.05859447E+21   6.42394580E+05   8.09224791E+05   1.44287425E+06   0.25846987      
  92               2.20245630E+02   3.17811784E+02   2063.73971417    4.37600116E-03   1.11542639E+21   5.60272280E+05   8.91356375E+05   1.28224156E+06   0.25719972      
  93               2.60565913E+02   3.38703633E+02   2097.59269765    4.58827400E-03   1.16956546E+21   5.06214945E+05   9.45192843E+05   1.13480201E+06   0.255838        
  94               3.08267614E+02   3.61926814E+02   2133.52226097    4.82015754E-03   1.22871008E+21   4.80991826E+05   9.71183223E+05   9.78643032E+05   0.25476071      
  95               3.64702046E+02   3.87688343E+02   2171.03171400    5.07381691E-03   1.29342847E+21   4.27437047E+05   1.02508574E+06   8.13912471E+05   0.25343991      
  96               4.31467909E+02   4.10852560E+02   2203.19487825    5.29987427E-03   1.35070007E+21   3.49256701E+05   1.10400642E+06   6.72646764E+05   0.25217057      
  97               5.10456573E+02   4.30142160E+02   2228.67348372    5.48514099E-03   1.39794925E+21   3.04488877E+05   1.14962937E+06   5.59511821E+05   0.25096563      
  98               6.03905660E+02   4.52018339E+02   2256.63062151    5.69254252E-03   1.45084634E+21   2.90443216E+05   1.16346792E+06   4.35710661E+05   0.25002456      
  99               7.14462436E+02   4.76731058E+02   2286.71955828    5.92459170E-03   1.51003280E+21   2.75152000E+05   1.17959615E+06   3.01143686E+05   0.24899025      
  100              8.45258798E+02   5.04538643E+02   2319.24630169    6.18201443E-03   1.57569952E+21   2.58825726E+05   1.19576055E+06   1.55842410E+05   0.24786507      
  101              1.00000000E+03   5.35699449E+02   2353.78461702    6.46765322E-03   1.64846723E+21   2.49573904E+05   1.20183266E+06   0.00000000E+00   0.2466632       
