# ATMO pressure-temperature profile
# Effective temperature = 400.0K
# log(g) = 2.5cm/s^2
# M/H = 0.0
# Optical depth grid in band 17 (1.20-1.33microns)
# All parameters in cgs units
#
# Model Level      Optical Depth    Pressure         Temperature      Density          Number Density   Rad Flux         Conv Flux        Radial Extension Adiabatic Gradient
#                                   [Ba]             [K]              [g/cm^3]         [/cm^3]          [ergs/s/cm^2/sr] [ergs/s/cm^2/sr] [cm]             [K/Ba]          
  1                5.00000000E-04   1.00000000E-05   62.94656601      4.50060006E-09   1.15067797E+15   1.45139626E+06   0.00000000E+00   8.17301051E+08   0.34574416      
  2                5.78069831E-04   1.19564268E-04   84.81158255      3.99382201E-08   1.02110895E+16   1.45139626E+06   0.00000000E+00   7.91458262E+08   0.31479444      
  3                6.68329458E-04   2.31182222E-04   98.49668198      6.64910883E-08   1.70003817E+16   1.45139626E+06   0.00000000E+00   7.84608776E+08   0.31481752      
  4                7.72682194E-04   3.51241365E-04   109.79693931     9.06187363E-08   2.31708125E+16   1.45139626E+06   0.00000000E+00   7.79717699E+08   0.31778616      
  5                8.93328530E-04   4.83867776E-04   117.91432529     1.16252694E-07   2.97225434E+16   1.45139626E+06   0.00000000E+00   7.75631500E+08   0.32014696      
  6                1.03281254E-03   6.31980596E-04   126.90462499     1.41081214E-07   3.60704976E+16   1.45139626E+06   0.00000000E+00   7.71974234E+08   0.3245173       
  7                1.19407555E-03   7.98145110E-04   133.81966165     1.68968140E-07   4.32004001E+16   1.45139626E+06   0.00000000E+00   7.68570926E+08   0.32503204      
  8                1.38051810E-03   9.85245418E-04   142.03966429     1.96506840E-07   5.02412720E+16   1.45139626E+06   0.00000000E+00   7.65323919E+08   0.32593547      
  9                1.59607173E-03   1.19645958E-03   148.35406050     2.28476448E-07   5.84150072E+16   1.45139626E+06   0.00000000E+00   7.62171721E+08   0.32590761      
  10               1.84528182E-03   1.43533010E-03   156.36744879     2.60044767E-07   6.64861647E+16   1.45139626E+06   0.00000000E+00   7.59072748E+08   0.32492193      
  11               2.13340350E-03   1.70587851E-03   162.50774008     2.97382881E-07   7.60326077E+16   1.45139626E+06   0.00000000E+00   7.55996205E+08   0.32471219      
  12               2.46651240E-03   2.01285399E-03   170.31281793     3.34814738E-07   8.56033535E+16   1.45139626E+06   0.00000000E+00   7.52919801E+08   0.32271273      
  13               2.85163282E-03   2.36146751E-03   176.29031747     3.79477100E-07   9.70240400E+16   1.45139626E+06   0.00000000E+00   7.49827020E+08   0.32246897      
  14               3.29688580E-03   2.75762110E-03   184.19342776     4.24103550E-07   1.08439199E+17   1.45139626E+06   0.00000000E+00   7.46704287E+08   0.32002112      
  15               3.81166043E-03   3.20739006E-03   190.50139834     4.76655281E-07   1.21949339E+17   1.45139626E+06   0.00000000E+00   7.43540907E+08   0.31976116      
  16               4.40681180E-03   3.71760806E-03   199.14812272     5.28850693E-07   1.35211373E+17   1.45139626E+06   0.00000000E+00   7.40327343E+08   0.31710246      
  17               5.09488990E-03   4.29669159E-03   205.96077155     5.91010754E-07   1.51103844E+17   1.45139626E+06   0.00000000E+00   7.37051847E+08   0.31669866      
  18               5.89040429E-03   4.95410309E-03   214.68209135     6.53754864E-07   1.67145643E+17   1.45139626E+06   0.00000000E+00   7.33707340E+08   0.31411373      
  19               6.81013002E-03   5.70048102E-03   221.39299863     7.29446311E-07   1.86497692E+17   1.45139626E+06   0.00000000E+00   7.30289477E+08   0.31368147      
  20               7.87346142E-03   6.54821648E-03   229.74102130     8.07477059E-07   2.06447829E+17   1.45139626E+06   0.00000000E+00   7.26796477E+08   0.31141062      
  21               9.10282102E-03   7.51138987E-03   236.02010837     9.01606450E-07   2.30513911E+17   1.45139626E+06   0.00000000E+00   7.23226784E+08   0.31103379      
  22               1.05241324E-02   8.60636739E-03   243.97027690     9.99375443E-07   2.55510529E+17   1.45139626E+06   0.00000000E+00   7.19578973E+08   0.3091416       
  23               1.21673669E-02   9.85138023E-03   250.12376376     1.11580381E-06   2.85277793E+17   1.45139626E+06   0.00000000E+00   7.15850632E+08   0.30884008      
  24               1.40671754E-02   1.12670628E-02   258.11824508     1.23662415E-06   3.16167956E+17   1.45139626E+06   0.00000000E+00   7.12039508E+08   0.3072338       
  25               1.62636194E-02   1.28765325E-02   264.44877951     1.37944082E-06   3.52681924E+17   1.45139626E+06   0.00000000E+00   7.08142670E+08   0.30702743      
  26               1.88030155E-02   1.47063235E-02   272.61812048     1.52825247E-06   3.90728629E+17   1.45139626E+06   0.00000000E+00   7.04157449E+08   0.30573383      
  27               2.17389119E-02   1.67862596E-02   279.16341397     1.70349611E-06   4.35533207E+17   1.45139626E+06   0.00000000E+00   7.00081001E+08   0.30546683      
  28               2.51332183E-02   1.91502241E-02   287.60914116     1.88632659E-06   4.82277515E+17   1.45139626E+06   0.00000000E+00   6.95910753E+08   0.30435657      
  29               2.90575105E-02   2.18362539E-02   294.55030386     2.10021798E-06   5.36963171E+17   1.45139626E+06   0.00000000E+00   6.91643285E+08   0.30408796      
  30               3.35945403E-02   2.48870841E-02   303.57234211     2.32250964E-06   5.93796527E+17   1.45139626E+06   0.00000000E+00   6.87275039E+08   0.30319272      
  31               3.88399805E-02   2.83503350E-02   311.25645982     2.58039109E-06   6.59729130E+17   1.45139626E+06   0.00000000E+00   6.82801385E+08   0.30296473      
  32               4.49044419E-02   3.22793951E-02   321.14533862     2.84753769E-06   7.28030552E+17   1.45139626E+06   0.00000000E+00   6.78217738E+08   0.30228752      
  33               5.19158062E-02   3.67329751E-02   329.85877684     3.15481412E-06   8.06591982E+17   1.45139626E+06   0.00000000E+00   6.73518931E+08   0.30208058      
  34               6.00219227E-02   4.17763005E-02   340.93575616     3.47138798E-06   8.87530461E+17   1.45139626E+06   0.00000000E+00   6.68699691E+08   0.30153138      
  35               6.93937253E-02   4.74800351E-02   351.19704005     3.83006293E-06   9.79232962E+17   1.45139626E+06   0.00000000E+00   6.63753114E+08   0.3013192       
  36               8.02288381E-02   5.39225824E-02   364.39637681     4.19220409E-06   1.07182152E+18   1.45139626E+06   0.00000000E+00   6.58668787E+08   0.30087033      
  37               9.27557418E-02   6.11768280E-02   378.99230326     4.57301026E-06   1.16918277E+18   1.44315193E+06   8.24432283E+03   6.53429527E+08   0.30065245      
  38               1.07238592E-01   6.93423832E-02   393.01946296     4.99843953E-06   1.27794024E+18   1.42707710E+06   2.43191593E+04   6.48028592E+08   0.30031368      
  39               1.23982789E-01   7.85278077E-02   408.50365761     5.44599502E-06   1.39236585E+18   1.40178069E+06   4.96155698E+04   6.42461308E+08   0.30016457      
  40               1.43341420E-01   8.88500725E-02   423.37999778     5.94534588E-06   1.52003396E+18   1.36637479E+06   8.50214719E+04   6.36724797E+08   0.29994991      
  41               1.65722701E-01   1.00443411E-01   439.80594400     6.47008433E-06   1.65419307E+18   1.31997618E+06   1.31420080E+05   6.30813742E+08   0.29987188      
  42               1.91598587E-01   1.13461372E-01   455.59100418     7.05540949E-06   1.80384298E+18   1.26212433E+06   1.89271923E+05   6.24720802E+08   0.29974178      
  43               2.21514726E-01   1.28068915E-01   473.03368896     7.67012808E-06   1.96099957E+18   1.19025180E+06   2.61144454E+05   6.18441436E+08   0.29967011      
  44               2.56101960E-01   1.44440994E-01   489.77319537     8.35565250E-06   2.13609860E+18   1.10673507E+06   3.44661186E+05   6.11974165E+08   0.2995246       
  45               2.96089634E-01   1.62774414E-01   508.26144602     9.07367393E-06   2.31966256E+18   1.02179662E+06   4.29599638E+05   6.05315890E+08   0.29943804      
  46               3.42320969E-01   1.83279531E-01   525.97598468     9.87259720E-06   2.52391014E+18   9.36187627E+05   5.15208630E+05   5.98464875E+08   0.29931048      
  47               3.95770849E-01   2.06207308E-01   545.54896436     1.07090918E-05   2.73776494E+18   8.53839279E+05   5.97556978E+05   5.91413563E+08   0.29923236      
  48               4.57566375E-01   2.31833888E-01   564.29795475     1.16399149E-05   2.97573520E+18   7.78519759E+05   6.72876498E+05   5.84155188E+08   0.29906607      
  49               5.29010634E-01   2.60456122E-01   585.01924153     1.26137658E-05   3.22470699E+18   7.11804484E+05   7.39591773E+05   5.76685435E+08   0.29894227      
  50               6.11610175E-01   2.92389576E-01   604.83830368     1.36962642E-05   3.50145410E+18   6.53508695E+05   7.97887562E+05   5.69002583E+08   0.2987144       
  51               7.07106781E-01   3.27969879E-01   626.71937171     1.48265322E-05   3.79041429E+18   6.04322067E+05   8.47074191E+05   5.61106916E+08   0.29856519      
  52               8.17514195E-01   3.67594009E-01   647.62015772     1.60814876E-05   4.11125019E+18   5.63392724E+05   8.88003532E+05   5.52992135E+08   0.29827633      
  53               9.45160584E-01   4.11726730E-01   670.71346873     1.73920047E-05   4.44629092E+18   5.31273316E+05   9.20122941E+05   5.44647203E+08   0.29806701      
  54               1.09273764E+00   4.60863239E-01   692.77650084     1.88476042E-05   4.81842119E+18   5.05161784E+05   9.46234474E+05   5.36064948E+08   0.29761925      
  55               1.26335732E+00   5.15525313E-01   717.13061547     2.03670766E-05   5.20688002E+18   4.85606799E+05   9.65789458E+05   5.27242407E+08   0.29732565      
  56               1.46061751E+00   5.76247709E-01   740.36535275     2.20515978E-05   5.63753128E+18   4.70168242E+05   9.81228015E+05   5.18181649E+08   0.29673005      
  57               1.68867783E+00   6.43583052E-01   765.93298623     2.38062965E-05   6.08610814E+18   4.60815924E+05   9.90580334E+05   5.08888190E+08   0.29640301      
  58               1.95234742E+00   7.18227743E-01   790.31280196     2.57479582E-05   6.58247168E+18   4.56083710E+05   9.95312548E+05   4.99354043E+08   0.29568597      
  59               2.25718628E+00   8.00995886E-01   817.12697170     2.77729958E-05   7.10013455E+18   4.57418883E+05   9.93977374E+05   4.89566337E+08   0.29531287      
  60               2.60962258E+00   8.92723301E-01   842.74003313     3.00127021E-05   7.67271532E+18   4.63138395E+05   9.88257862E+05   4.79519364E+08   0.29440428      
  61               3.01708817E+00   9.94308486E-01   870.82774369     3.23497299E-05   8.27017555E+18   4.74431581E+05   9.76964677E+05   4.69209747E+08   0.29396322      
  62               3.48817529E+00   1.10663968E+00   897.67272413     3.49277078E-05   8.92923083E+18   4.89298993E+05   9.62097264E+05   4.58642057E+08   0.29270733      
  63               4.03281780E+00   1.23060554E+00   926.90873712     3.76152933E-05   9.61629397E+18   5.08806572E+05   9.42589685E+05   4.47826847E+08   0.29213592      
  64               4.66250061E+00   1.36721132E+00   954.87234584     4.05671653E-05   1.03708934E+19   5.31770035E+05   9.19626223E+05   4.36768257E+08   0.29083797      
  65               5.39050188E+00   1.51771533E+00   985.20037688     4.36478272E-05   1.11581345E+19   5.58667833E+05   8.92728426E+05   4.25457781E+08   0.29022977      
  66               6.23217301E+00   1.68342072E+00   1014.30861130    4.70238393E-05   1.20212158E+19   5.89174067E+05   8.62222191E+05   4.13891431E+08   0.2886879       
  67               7.20526240E+00   1.86581121E+00   1045.71608765    5.05530565E-05   1.29234882E+19   6.22823935E+05   8.28572321E+05   4.02061846E+08   0.28790498      
  68               8.33028963E+00   2.06650267E+00   1075.98575198    5.44152191E-05   1.39109020E+19   6.58587355E+05   7.92808902E+05   3.89961577E+08   0.28634086      
  69               9.63097823E+00   2.28719481E+00   1108.50288665    5.84592845E-05   1.49448709E+19   6.94855874E+05   7.56540383E+05   3.77587865E+08   0.28550816      
  70               1.11347559E+01   2.52965427E+00   1139.93908825    6.28727402E-05   1.60733116E+19   7.31436813E+05   7.19959444E+05   3.64941048E+08   0.28394078      
  71               1.28733329E+01   2.79604297E+00   1173.56809978    6.75014798E-05   1.72568445E+19   7.66954592E+05   6.84441663E+05   3.52010168E+08   0.28307616      
  72               1.48833708E+01   3.08876106E+00   1206.23284161    7.25483287E-05   1.85472277E+19   8.01241987E+05   6.50154265E+05   3.38782622E+08   0.28151764      
  73               1.72072553E+01   3.41051896E+00   1241.07180339    7.78570001E-05   1.99044141E+19   8.33108044E+05   6.18288205E+05   3.25244238E+08   0.28060484      
  74               1.98939903E+01   3.76490719E+00   1275.13137721    8.36530201E-05   2.13857843E+19   8.65440791E+05   5.86201137E+05   3.11357833E+08   0.2790156       
  75               2.30002312E+01   4.15779860E+00   1311.60909103    8.98168020E-05   2.29606866E+19   9.01709954E+05   5.49866766E+05   2.97024291E+08   0.27802008      
  76               2.65914795E+01   4.59910847E+00   1348.09476514    9.66642543E-05   2.47103599E+19   9.47821399E+05   5.03697477E+05   2.82046988E+08   0.27629451      
  77               3.07434641E+01   5.10470857E+00   1388.11188481    1.04196934E-04   2.66362032E+19   1.00699383E+06   4.44448799E+05   2.66115710E+08   0.27509216      
  78               3.55437382E+01   5.69433983E+00   1429.68634999    1.12847100E-04   2.88488464E+19   1.07212693E+06   3.79292058E+05   2.48920282E+08   0.27308894      
  79               4.10935254E+01   6.38559466E+00   1475.62880852    1.22599429E-04   3.13436856E+19   1.13054731E+06   3.20849255E+05   2.30335623E+08   0.271711        
  80               4.75098546E+01   7.18579174E+00   1522.97285417    1.33669227E-04   3.41749827E+19   1.16477974E+06   2.86615040E+05   2.10568565E+08   0.26980966      
  81               5.49280272E+01   8.09188133E+00   1572.99241857    1.45742032E-04   3.72605032E+19   1.16371149E+06   2.87896978E+05   1.90039382E+08   0.2685223       
  82               6.35044707E+01   9.07857490E+00   1621.65627693    1.58669326E-04   4.05494262E+19   1.11953139E+06   3.31867467E+05   1.69519528E+08   0.26668424      
  83               7.34200373E+01   1.01206017E+01   1669.69401873    1.71796607E-04   4.39031094E+19   1.04328659E+06   4.08152716E+05   1.49560983E+08   0.26556039      
  84               8.48838171E+01   1.11823938E+01   1713.94400840    1.84940725E-04   4.72567653E+19   9.41191947E+05   5.10360118E+05   1.30723590E+08   0.2639808       
  85               9.81375475E+01   1.22231239E+01   1754.99957252    1.97496097E-04   5.04464999E+19   8.25866561E+05   6.25913794E+05   1.13502748E+08   0.263313        
  86               1.13460711E+02   1.31862589E+01   1789.97279282    2.09014927E-04   5.33581801E+19   6.96755062E+05   7.55419714E+05   9.85116766E+07   0.26194404      
  87               1.31176428E+02   1.40233671E+01   1819.31245239    2.18877340E-04   5.58304141E+19   5.85353516E+05   8.67136073E+05   8.61348120E+07   0.2612104       
  88               1.51658271E+02   1.47390282E+01   1842.78759301    2.27112817E-04   5.79321184E+19   5.27830181E+05   9.25207355E+05   7.59843345E+07   0.25992719      
  89               1.75338142E+02   1.55194312E+01   1867.88544415    2.35918278E-04   6.01798919E+19   4.81088945E+05   9.70299792E+05   6.53228541E+07   0.25965245      
  90               2.02715380E+02   1.61607337E+01   1887.38020212    2.43191989E-04   6.20193938E+19   4.08942263E+05   1.04244908E+06   5.68559879E+07   0.25839839      
  91               2.34367291E+02   1.66543885E+01   1902.26459144    2.48654339E-04   6.34137749E+19   3.67938707E+05   1.08345594E+06   5.05077825E+07   0.25812454      
  92               2.70961321E+02   1.71934280E+01   1917.80007960    2.54616643E-04   6.49359175E+19   3.52206750E+05   1.09918676E+06   4.37332489E+07   0.25692193      
  93               3.13269130E+02   1.77830160E+01   1934.58246168    2.61047989E-04   6.65800339E+19   3.14790863E+05   1.13660234E+06   3.65014682E+07   0.2565339       
  94               3.62182865E+02   1.81993096E+01   1945.97744702    2.65827267E-04   6.77396502E+19   2.61192000E+05   1.19020973E+06   3.15035042E+07   0.25547196      
  95               4.18733975E+02   1.84826398E+01   1953.74828420    2.68886958E-04   6.85206115E+19   2.34586066E+05   1.21682700E+06   2.81522416E+07   0.25532148      
  96               4.84114957E+02   1.87975963E+01   1962.11483037    2.72296700E-04   6.93910945E+19   2.27402721E+05   1.22401433E+06   2.44714212E+07   0.25425976      
  97               5.59704502E+02   1.91471051E+01   1971.37273245    2.76050167E-04   7.03493706E+19   2.21195832E+05   1.23022595E+06   2.04401397E+07   0.25399884      
  98               6.47096573E+02   1.95339645E+01   1981.35907101    2.80199652E-04   7.14090156E+19   2.14535053E+05   1.23687818E+06   1.60414280E+07   0.25293228      
  99               7.48134013E+02   1.99648623E+01   1992.33709125    2.84795727E-04   7.25820680E+19   2.09565095E+05   1.24182965E+06   1.12178001E+07   0.25281795      
  100              8.64947405E+02   2.04489985E+01   2004.42422660    2.89937597E-04   7.38938408E+19   2.03768683E+05   1.25155946E+06   5.88999065E+06   0.25159918      
  101              1.00000000E+03   2.09943744E+01   2017.70149064    2.95704656E-04   7.53653746E+19   2.00688897E+05   1.25460925E+06   0.00000000E+00   0.25083444      
