# ATMO pressure-temperature profile
# Effective temperature = 200.0K
# log(g) = 2.5cm/s^2
# M/H = 0.0
# Optical depth grid in band 17 (1.20-1.33microns)
# All parameters in cgs units
#
# Model Level      Optical Depth    Pressure         Temperature      Density          Number Density   Rad Flux         Conv Flux        Radial Extension Adiabatic Gradient
#                                   [Ba]             [K]              [g/cm^3]         [/cm^3]          [ergs/s/cm^2/sr] [ergs/s/cm^2/sr] [cm]             [K/Ba]          
  1                5.00000000E-04   1.00000000E-05   27.37229206      1.03581763E-08   2.64615131E+15   9.06710663E+04   0.00000000E+00   4.91767764E+08   0.34574374      
  2                5.78069831E-04   3.48894003E-05   33.07339131      2.99095058E-08   7.64083137E+15   9.06710663E+04   0.00000000E+00   4.87296110E+08   0.34574374      
  3                6.68329458E-04   6.36470230E-05   35.74260644      5.04877873E-08   1.28978617E+16   9.06710663E+04   0.00000000E+00   4.84955898E+08   0.34574374      
  4                7.72682194E-04   9.68722516E-05   37.83887145      7.25864707E-08   1.85433015E+16   9.06710663E+04   0.00000000E+00   4.83220309E+08   0.34574374      
  5                8.93328530E-04   1.35257570E-04   39.46891839      9.71629781E-08   2.48217385E+16   9.06710663E+04   0.00000000E+00   4.81774912E+08   0.31479366      
  6                1.03281254E-03   1.79599665E-04   41.08639070      1.23937289E-07   3.16616373E+16   9.06710663E+04   0.00000000E+00   4.80497107E+08   0.31480313      
  7                1.19407555E-03   2.30820137E-04   42.45429090      1.54151078E-07   3.93802023E+16   9.06710663E+04   0.00000000E+00   4.79325264E+08   0.31481176      
  8                1.38051810E-03   2.89980820E-04   43.91750717      1.87208712E-07   4.78252703E+16   9.06710663E+04   0.00000000E+00   4.78223986E+08   0.31481983      
  9                1.59607173E-03   3.58302473E-04   45.21970226      2.24655248E-07   5.73915491E+16   9.06710663E+04   0.00000000E+00   4.77170480E+08   0.3148275       
  10               1.84528182E-03   4.37198323E-04   46.65054550      2.65715092E-07   6.78809014E+16   9.06710663E+04   0.00000000E+00   4.76149334E+08   0.31483488      
  11               2.13340350E-03   5.28295249E-04   47.92807670      3.12522409E-07   7.98385320E+16   9.06710663E+04   0.00000000E+00   4.75149668E+08   0.31484205      
  12               2.46651240E-03   6.33461184E-04   49.38099209      3.63709511E-07   9.29150440E+16   9.06710663E+04   0.00000000E+00   4.74163259E+08   0.31484908      
  13               2.85163282E-03   7.54845437E-04   50.71006935      4.22044544E-07   1.07817602E+17   9.06710663E+04   0.00000000E+00   4.73183530E+08   0.31485601      
  14               3.29688580E-03   8.94935774E-04   52.21969523      4.85905703E-07   1.24131892E+17   9.06710663E+04   0.00000000E+00   4.72205273E+08   0.31486287      
  15               3.81166043E-03   1.05658661E-03   53.60377502      5.58861496E-07   1.42769543E+17   9.06710663E+04   0.00000000E+00   4.71224316E+08   0.31486971      
  16               4.40681180E-03   1.24306771E-03   55.21562231      6.38303570E-07   1.63064211E+17   9.06710663E+04   0.00000000E+00   4.70236971E+08   0.31487654      
  17               5.09488990E-03   1.45812611E-03   56.73646302      7.28663958E-07   1.86148126E+17   9.06710663E+04   0.00000000E+00   4.69239778E+08   0.31488338      
  18               5.89040429E-03   1.70610239E-03   58.49597152      8.26939224E-07   2.11254015E+17   9.06710663E+04   0.00000000E+00   4.68229573E+08   0.31489026      
  19               6.81013002E-03   1.99197118E-03   60.14492967      9.39027884E-07   2.39888743E+17   9.06710663E+04   0.00000000E+00   4.67203706E+08   0.31489719      
  20               7.87346142E-03   2.32140712E-03   62.07303624      1.06033423E-06   2.70878267E+17   9.06710663E+04   0.00000000E+00   4.66159683E+08   0.31490419      
  21               9.10282102E-03   2.70087258E-03   63.95991241      1.19726612E-06   3.05859571E+17   9.06710664E+04   0.00000000E+00   4.65094668E+08   0.31491127      
  22               1.05241324E-02   3.13777909E-03   66.23730245      1.34311806E-06   3.43119632E+17   9.06710662E+04   0.00000000E+00   4.64005146E+08   0.31491844      
  23               1.21673669E-02   3.64070063E-03   68.55072237      1.50580034E-06   3.84679260E+17   9.06710659E+04   0.00000000E+00   4.62886843E+08   0.31492572      
  24               1.40671754E-02   4.21936789E-03   71.44984737      1.67432803E-06   4.27732183E+17   9.06704865E+04   0.00000000E+00   4.61734386E+08   0.31493312      
  25               1.62636194E-02   4.88251800E-03   74.89329829      1.84839742E-06   4.72200818E+17   9.06636572E+04   7.43745176E+00   4.60542337E+08   0.31494066      
  26               1.88030155E-02   5.63755749E-03   78.27707731      2.04197698E-06   5.21653615E+17   9.06485298E+04   2.25606633E+01   4.59313352E+08   0.31494835      
  27               2.17389119E-02   6.49402947E-03   81.93242269      2.24725791E-06   5.74095705E+17   9.06249466E+04   4.61397298E+01   4.58049020E+08   0.31495621      
  28               2.51332183E-02   7.46431819E-03   85.51210246      2.47489637E-06   6.32249362E+17   9.05925398E+04   7.85486590E+01   4.56747964E+08   0.3149642       
  29               2.90575105E-02   8.56427599E-03   89.39375248      2.71630132E-06   6.93919874E+17   9.05510964E+04   1.19999192E+02   4.55406409E+08   0.31497231      
  30               3.35945403E-02   9.81255575E-03   93.20600646      2.98491999E-06   7.62542540E+17   9.05012548E+04   1.69829479E+02   4.54020110E+08   0.31498056      
  31               3.88399805E-02   1.12299871E-02   97.35918567      3.27036918E-06   8.35464811E+17   9.04449437E+04   2.26140801E+02   4.52585489E+08   0.31498897      
  32               4.49044419E-02   1.28404097E-02   101.44572281     3.58871971E-06   9.16792348E+17   9.03861648E+04   2.84927452E+02   4.51098966E+08   0.31499757      
  33               5.19158062E-02   1.46714069E-02   105.91219091     3.92753488E-06   1.00334814E+18   9.03296444E+04   3.41522689E+02   4.49556705E+08   0.31500641      
  34               6.00219227E-02   1.67545034E-02   110.31478905     4.30617259E-06   1.10007846E+18   9.02788297E+04   3.92266140E+02   4.47954922E+08   0.31501552      
  35               6.93937253E-02   1.91254416E-02   115.13753057     4.70962478E-06   1.20315173E+18   9.02374044E+04   4.33685002E+02   4.46290048E+08   0.31502494      
  36               8.02288381E-02   2.18245830E-02   119.89561363     5.16092345E-06   1.31846468E+18   9.02112317E+04   4.59859283E+02   4.44558762E+08   0.31843485      
  37               9.27557418E-02   2.48973192E-02   125.22497159     5.63660325E-06   1.44008287E+18   9.02020580E+04   4.69079076E+02   4.42757185E+08   0.31984705      
  38               1.07238592E-01   2.83957453E-02   130.42603405     6.17282345E-06   1.57693874E+18   9.02114966E+04   4.59633414E+02   4.40881664E+08   0.32293279      
  39               1.23982789E-01   3.23795173E-02   136.31493378     6.73475008E-06   1.72049246E+18   9.02263436E+04   4.44741002E+02   4.38927811E+08   0.32383696      
  40               1.43341420E-01   3.69161015E-02   141.99389904     7.37124905E-06   1.88309394E+18   9.02308849E+04   4.40198857E+02   4.36891718E+08   0.32585119      
  41               1.65722701E-01   4.20820079E-02   148.46835541     8.03632497E-06   2.05299738E+18   9.01967129E+04   4.74370081E+02   4.34769220E+08   0.326032        
  42               1.91598587E-01   4.79650022E-02   154.64733152     8.79380787E-06   2.24650753E+18   9.00936224E+04   5.77476465E+02   4.32556221E+08   0.32519447      
  43               2.21514726E-01   5.46648143E-02   161.65152175     9.58788909E-06   2.44936732E+18   8.98911289E+04   7.79985535E+02   4.30248875E+08   0.32504258      
  44               2.56101960E-01   6.22949566E-02   168.36201072     1.04906802E-05   2.67999895E+18   8.95568386E+04   1.11426673E+03   4.27843021E+08   0.32469886      
  45               2.96089634E-01   7.09837189E-02   175.96134948     1.14376329E-05   2.92191316E+18   8.90454581E+04   1.62580015E+03   4.25334672E+08   0.324422        
  46               3.42320969E-01   8.08760441E-02   183.24114357     1.25138481E-05   3.19685359E+18   8.82696484E+04   2.40143007E+03   4.22719894E+08   0.32308297      
  47               3.95770849E-01   9.21364449E-02   191.43173027     1.36461332E-05   3.48612829E+18   8.70272357E+04   3.64384161E+03   4.19994975E+08   0.32231988      
  48               4.57566375E-01   1.04945541E-01   199.29287475     1.49299253E-05   3.81415253E+18   8.49654170E+04   5.70565801E+03   4.17157155E+08   0.31982446      
  49               5.29010634E-01   1.19506047E-01   208.03721077     1.62861575E-05   4.16077946E+18   8.14564447E+04   9.21462692E+03   4.14204325E+08   0.31878904      
  50               6.11610175E-01   1.36047570E-01   216.48515660     1.78149231E-05   4.55185589E+18   7.60558133E+04   1.46152560E+04   4.11133365E+08   0.31618804      
  51               7.07106781E-01   1.54831433E-01   225.78901203     1.94325206E-05   4.96686288E+18   6.91558572E+04   2.15152134E+04   4.07940883E+08   0.31524956      
  52               8.17514195E-01   1.76165056E-01   234.85978818     2.12671135E-05   5.43296543E+18   6.19269060E+04   2.87441698E+04   4.04622353E+08   0.3128131       
  53               9.45160584E-01   2.00415126E-01   244.77137965     2.32148392E-05   5.93055994E+18   5.56564416E+04   3.50146398E+04   4.01171108E+08   0.3119423       
  54               1.09273764E+00   2.27980406E-01   254.53043366     2.53954449E-05   6.48759371E+18   5.07596604E+04   3.99114245E+04   3.97581048E+08   0.3097051       
  55               1.26335732E+00   2.59314507E-01   265.10379436     2.77337677E-05   7.08494868E+18   4.70501285E+04   4.36209570E+04   3.93847387E+08   0.3089367       
  56               1.46061751E+00   2.94942636E-01   275.60788457     3.03419818E-05   7.75125027E+18   4.38430566E+04   4.68280276E+04   3.89963500E+08   0.30701467      
  57               1.68867783E+00   3.35441285E-01   286.90454471     3.31495097E-05   8.46846945E+18   4.09878660E+04   4.96832167E+04   3.85925372E+08   0.30640786      
  58               1.95234742E+00   3.81464680E-01   298.21049078     3.62684870E-05   9.26525240E+18   3.84592826E+04   5.22117995E+04   3.81728021E+08   0.30488778      
  59               2.25718628E+00   4.33755786E-01   310.29303792     3.96343073E-05   1.01250946E+19   3.65800416E+04   5.40910400E+04   3.77366605E+08   0.30442398      
  60               2.60962258E+00   4.93145782E-01   322.45781848     4.33611143E-05   1.10771555E+19   3.52079316E+04   5.54631496E+04   3.72836300E+08   0.30321663      
  61               3.01708817E+00   5.60564636E-01   335.38584494     4.73891577E-05   1.21061711E+19   3.42510384E+04   5.64200420E+04   3.68133119E+08   0.30283896      
  62               3.48817529E+00   6.37050547E-01   348.45640163     5.18350441E-05   1.32419299E+19   3.33774476E+04   5.72936327E+04   3.63253003E+08   0.30196118      
  63               4.03281780E+00   7.23796213E-01   362.29291282     5.66440741E-05   1.44704590E+19   3.24950405E+04   5.81760393E+04   3.58190575E+08   0.30172573      
  64               4.66250061E+00   8.22149810E-01   376.33357848     6.19407252E-05   1.58235466E+19   3.13464586E+04   5.93406971E+04   3.52939781E+08   0.3011118       
  65               5.39050188E+00   9.33624895E-01   391.15582473     6.76738548E-05   1.72881476E+19   2.99268531E+04   6.07940749E+04   3.47495016E+08   0.30094947      
  66               6.23217301E+00   1.05991211E+00   406.23148235     7.39766345E-05   1.88982729E+19   2.82311640E+04   6.24567811E+04   3.41850825E+08   0.30052939      
  67               7.20526240E+00   1.20284372E+00   422.10380690     8.07956966E-05   2.06402892E+19   2.64260106E+04   6.43043870E+04   3.36004447E+08   0.30042843      
  68               8.33028963E+00   1.36443745E+00   438.25397964     8.82725825E-05   2.25503664E+19   2.46629359E+04   6.61115405E+04   3.29953582E+08   0.30015671      
  69               9.63097823E+00   1.54693956E+00   455.21418472     9.63520582E-05   2.46140682E+19   2.29881328E+04   6.77337777E+04   3.23695717E+08   0.30010067      
  70               1.11347559E+01   1.75278547E+00   472.46484488     1.05187161E-04   2.68710790E+19   2.09467579E+04   6.97506014E+04   3.17229796E+08   0.29990544      
  71               1.28733329E+01   1.98480529E+00   490.54522041     1.14721075E-04   2.93065503E+19   1.79727821E+04   7.27100479E+04   3.10550628E+08   0.29985532      
  72               1.48833708E+01   2.24615741E+00   508.94102796     1.25135094E-04   3.19667559E+19   1.52174046E+04   7.55007019E+04   3.03652756E+08   0.2996595       
  73               1.72072553E+01   2.54031238E+00   528.19396251     1.36363693E-04   3.48352981E+19   1.39145221E+04   7.69029055E+04   2.96531817E+08   0.29959825      
  74               1.98939903E+01   2.87114336E+00   547.78374283     1.48622185E-04   3.79639662E+19   1.31563226E+04   7.75495830E+04   2.89182917E+08   0.29940876      
  75               2.30002312E+01   3.24271116E+00   568.24704253     1.61811455E-04   4.13329994E+19   1.24633283E+04   7.82425339E+04   2.81606016E+08   0.29936135      
  76               2.65914795E+01   3.65929109E+00   589.03970596     1.76153190E-04   4.49964475E+19   1.18021170E+04   7.89835060E+04   2.73803253E+08   0.29915251      
  77               3.07434641E+01   4.12609054E+00   610.71380112     1.91575098E-04   4.89358188E+19   1.11981142E+04   7.95159588E+04   2.65767704E+08   0.29907641      
  78               3.55437382E+01   4.64862460E+00   632.74235926     2.08322162E-04   5.32136938E+19   1.06400208E+04   8.00799326E+04   2.57496336E+08   0.2987775       
  79               4.10935254E+01   5.23297026E+00   655.65364238     2.26314045E-04   5.78095553E+19   1.01691816E+04   8.05235763E+04   2.48986007E+08   0.29869755      
  80               4.75098546E+01   5.88551657E+00   678.94024326     2.45804885E-04   6.27883217E+19   9.74904376E+03   8.09220679E+04   2.40236968E+08   0.29833355      
  81               5.49280272E+01   6.61277608E+00   703.06556141     2.66701302E-04   6.81261476E+19   9.39563224E+03   8.13375054E+04   2.31254792E+08   0.29822475      
  82               6.35044707E+01   7.42157396E+00   727.55568892     2.89245446E-04   7.38848878E+19   9.08415986E+03   8.15869857E+04   2.22046180E+08   0.29768716      
  83               7.34200373E+01   8.32099042E+00   752.83955538     3.13407154E-04   8.00568378E+19   8.84642845E+03   8.18757051E+04   2.12599632E+08   0.29752215      
  84               8.48838171E+01   9.32115542E+00   778.59777369     3.39463019E-04   8.67126446E+19   8.65859172E+03   8.21211614E+04   2.02902999E+08   0.29680638      
  85               9.81375475E+01   1.04337667E+01   805.13456364     3.67458928E-04   9.38638776E+19   8.56951090E+03   8.21244235E+04   1.92941080E+08   0.2966135       
  86               1.13460711E+02   1.16705701E+01   832.27967398     3.97611490E-04   1.01566064E+20   8.55424683E+03   8.21171850E+04   1.82708929E+08   0.29571795      
  87               1.31176428E+02   1.30430437E+01   860.07189488     4.30013150E-04   1.09842405E+20   8.65655526E+03   8.20887765E+04   1.72212683E+08   0.29548732      
  88               1.51658271E+02   1.45620550E+01   888.53530344     4.64715965E-04   1.18706314E+20   8.84502903E+03   8.18259540E+04   1.61467179E+08   0.29436605      
  89               1.75338142E+02   1.62412716E+01   917.42489492     5.01982646E-04   1.28225779E+20   9.15613995E+03   8.15653751E+04   1.50472854E+08   0.29354808      
  90               2.02715380E+02   1.80962995E+01   947.05672799     5.41817065E-04   1.38401125E+20   9.55308299E+03   8.12393825E+04   1.39224738E+08   0.29272239      
  91               2.34367291E+02   2.01435060E+01   977.11231270     5.84560541E-04   1.49319462E+20   1.00054913E+04   8.06813661E+04   1.27721486E+08   0.29180776      
  92               2.70961321E+02   2.23987751E+01   1007.87686421    6.30168139E-04   1.60969144E+20   1.04508924E+04   8.02201371E+04   1.15971009E+08   0.29086125      
  93               3.13269130E+02   2.48771564E+01   1038.97834306    6.78947359E-04   1.73428346E+20   1.08330710E+04   7.98871330E+04   1.03989209E+08   0.28978186      
  94               3.62182865E+02   2.75927609E+01   1070.66422512    7.30784166E-04   1.86667068E+20   1.11533650E+04   7.95947622E+04   9.17977886E+07   0.28873675      
  95               4.18733975E+02   3.05600724E+01   1102.57004384    7.85963792E-04   2.00758540E+20   1.15223947E+04   7.93147033E+04   7.94164489E+07   0.28754792      
  96               4.84114957E+02   3.38065719E+01   1135.05458916    8.44575597E-04   2.15729842E+20   1.20172501E+04   7.86731044E+04   6.68157440E+07   0.28635856      
  97               5.59704502E+02   3.73650393E+01   1167.90756386    9.07217410E-04   2.31730294E+20   1.25699254E+04   7.81971112E+04   5.39602699E+07   0.28513161      
  98               6.47096573E+02   4.12658437E+01   1201.45135195    9.73957500E-04   2.48777087E+20   1.30973449E+04   7.75817540E+04   4.08374070E+07   0.2839045       
  99               7.48134013E+02   4.55360161E+01   1235.35825358    1.04524894E-03   2.66985669E+20   1.35717876E+04   7.70992080E+04   2.74540298E+07   0.28262264      
  100              8.64947405E+02   5.01989764E+01   1269.86792468    1.12097863E-03   2.86326898E+20   1.39599687E+04   7.67916645E+04   1.38316353E+07   0.28130909      
  101              1.00000000E+03   5.52748127E+01   1304.58189648    1.20135543E-03   3.06889317E+20   1.40987283E+04   7.66213225E+04   0.00000000E+00   0.27999315      
