# ATMO pressure-temperature profile
# Effective temperature = 1400.0K
# log(g) = 5.0cm/s^2
# M/H = 0.0
# Optical depth grid in band 17 (1.20-1.33microns)
# All parameters in cgs units
#
# Model Level      Optical Depth    Pressure         Temperature      Density          Number Density   Rad Flux         Conv Flux        Radial Extension Adiabatic Gradient
#                                   [Ba]             [K]              [g/cm^3]         [/cm^3]          [ergs/s/cm^2/sr] [ergs/s/cm^2/sr] [cm]             [K/Ba]          
  1                1.00000000E-07   1.00000000E-05   421.19972051     6.72740549E-10   1.71964090E+14   2.17814263E+08   0.00000000E+00   6.80128172E+06   0.2974311       
  2                1.25892541E-07   1.65144651E-05   442.43693781     1.05766651E-09   2.70357843E+14   2.17814263E+08   0.00000000E+00   6.72405268E+06   0.29743143      
  3                1.58489319E-07   2.44624413E-05   459.60181330     1.50818173E-09   3.85517327E+14   2.17814263E+08   0.00000000E+00   6.66112302E+06   0.2974986       
  4                1.99526231E-07   3.43058371E-05   462.66990061     2.10103067E-09   5.37059761E+14   2.17814263E+08   0.00000000E+00   6.60582598E+06   0.29747342      
  5                2.51188643E-07   4.65342255E-05   476.33102783     2.76821127E-09   7.07602661E+14   2.17814263E+08   0.00000000E+00   6.55512067E+06   0.29756129      
  6                3.16227766E-07   6.17292020E-05   478.88628935     3.65253074E-09   9.33649995E+14   2.17814263E+08   0.00000000E+00   6.50733436E+06   0.2975287       
  7                3.98107171E-07   8.06264842E-05   491.63875603     4.64694174E-09   1.18783865E+15   2.17814263E+08   0.00000000E+00   6.46146541E+06   0.29762607      
  8                5.01187234E-07   1.04121903E-04   494.28909222     5.96893283E-09   1.52576240E+15   2.17814263E+08   0.00000000E+00   6.41685346E+06   0.29759367      
  9                6.30957344E-07   1.33346435E-04   506.60554875     7.45842432E-09   1.90650218E+15   2.17814263E+08   0.00000000E+00   6.37305330E+06   0.29769364      
  10               7.94328235E-07   1.69683747E-04   509.46853157     9.43753354E-09   2.41239667E+15   2.17814263E+08   0.00000000E+00   6.32974212E+06   0.29766569      
  11               1.00000000E-06   2.14885537E-04   521.53391257     1.16750908E-08   2.98435493E+15   2.17814263E+08   0.00000000E+00   6.28667992E+06   0.29895412      
  12               1.25892541E-06   2.71109516E-04   524.57846427     1.46443447E-08   3.74334748E+15   2.17814263E+08   0.00000000E+00   6.24368111E+06   0.29898674      
  13               1.58489319E-06   3.41063295E-04   536.57998794     1.80109304E-08   4.60390499E+15   2.17814263E+08   0.00000000E+00   6.20060781E+06   0.29887353      
  14               1.99526231E-06   4.28082570E-04   539.86454336     2.24687227E-08   5.74339359E+15   2.17814262E+08   0.00000000E+00   6.15735063E+06   0.29890186      
  15               2.51188643E-06   5.36332834E-04   552.04918920     2.75291152E-08   7.03691732E+15   2.17814262E+08   0.00000000E+00   6.11382514E+06   0.29878026      
  16               3.16227766E-06   6.70950341E-04   555.66205359     3.42149014E-08   8.74591955E+15   2.17814262E+08   0.00000000E+00   6.06996220E+06   0.29880445      
  17               3.98107171E-06   8.38334395E-04   568.15823851     4.18103329E-08   1.06874431E+16   2.17814262E+08   0.00000000E+00   6.02570696E+06   0.29867394      
  18               5.01187234E-06   1.04639097E-03   572.04819977     5.18318869E-08   1.32491251E+16   2.17814262E+08   0.00000000E+00   5.98101380E+06   0.29869455      
  19               6.30957344E-06   1.30497252E-03   584.75445091     6.32358726E-08   1.61641797E+16   2.17814262E+08   0.00000000E+00   5.93584721E+06   0.29855084      
  20               7.94328235E-06   1.62625750E-03   588.77830654     7.82660133E-08   2.00061423E+16   2.17814262E+08   0.00000000E+00   5.89017815E+06   0.29856944      
  21               1.00000000E-05   2.02541345E-03   601.61681370     9.53958379E-08   2.43848206E+16   2.17814262E+08   0.00000000E+00   5.84398354E+06   0.29841345      
  22               1.25892541E-05   2.52116860E-03   605.73461392     1.17938395E-07   3.01470858E+16   2.17814261E+08   0.00000000E+00   5.79724503E+06   0.29843153      
  23               1.58489319E-05   3.13681052E-03   618.70088736     1.43662491E-07   3.67225970E+16   2.17814261E+08   0.00000000E+00   5.74994854E+06   0.2982593       
  24               1.99526231E-05   3.90111698E-03   622.94076781     1.77450850E-07   4.53594792E+16   2.17814260E+08   0.00000000E+00   5.70207927E+06   0.29827858      
  25               2.51188643E-05   4.85015512E-03   636.04575130     2.16074333E-07   5.52322979E+16   2.17814260E+08   0.00000000E+00   5.65361262E+06   0.29809126      
  26               3.16227766E-05   6.02866045E-03   640.26359342     2.66807439E-07   6.82005467E+16   2.17814259E+08   0.00000000E+00   5.60452963E+06   0.29811396      
  27               3.98107171E-05   7.49228171E-03   653.49721336     3.24867839E-07   8.30416937E+16   2.17814258E+08   0.00000000E+00   5.55481588E+06   0.29790769      
  28               5.01187234E-05   9.30990810E-03   657.72613524     4.01085238E-07   1.02524140E+17   2.17814257E+08   0.00000000E+00   5.50446201E+06   0.29793523      
  29               6.30957344E-05   1.15670304E-02   671.09569622     4.88398131E-07   1.24842731E+17   2.17814256E+08   0.00000000E+00   5.45346440E+06   0.29771023      
  30               7.94328235E-05   1.43691999E-02   675.43853217     6.02813943E-07   1.54089340E+17   2.17814254E+08   0.00000000E+00   5.40182089E+06   0.29774135      
  31               1.00000000E-04   1.78467943E-02   689.29424410     7.33659224E-07   1.87534600E+17   2.17814251E+08   0.00000000E+00   5.34952826E+06   0.29749135      
  32               1.25892541E-04   2.21601396E-02   693.98383012     9.04819520E-07   2.31285805E+17   2.17814248E+08   0.00000000E+00   5.29658800E+06   0.29754409      
  33               1.58489319E-04   2.75058760E-02   708.60555769     1.09991872E-06   2.81155618E+17   2.17814245E+08   0.00000000E+00   5.24300261E+06   0.29728732      
  34               1.99526231E-04   3.41245653E-02   714.17286068     1.35395270E-06   3.46090457E+17   2.17814240E+08   0.00000000E+00   5.18876632E+06   0.29728767      
  35               2.51188643E-04   4.23087662E-02   730.12110496     1.64200739E-06   4.19721578E+17   2.17814234E+08   0.00000000E+00   5.13387711E+06   0.29693439      
  36               3.16227766E-04   5.24115331E-02   737.00702960     2.01509180E-06   5.15087574E+17   2.17814228E+08   0.00000000E+00   5.07833718E+06   0.29696148      
  37               3.98107171E-04   6.48595416E-02   754.90684919     2.43456995E-06   6.22309382E+17   2.17814221E+08   0.00000000E+00   5.02213649E+06   0.29660265      
  38               5.01187234E-04   8.01645534E-02   763.80673837     2.97399799E-06   7.60194515E+17   2.17814214E+08   0.00000000E+00   4.96525746E+06   0.29662959      
  39               6.30957344E-04   9.89528272E-02   784.00577782     3.57643740E-06   9.14186457E+17   2.17814206E+08   0.00000000E+00   4.90764834E+06   0.29614896      
  40               7.94328235E-04   1.21974368E-01   795.32129183     4.34577911E-06   1.11084076E+18   2.17814200E+08   0.00000000E+00   4.84925339E+06   0.2960518       
  41               1.00000000E-03   1.50130816E-01   818.42942543     5.19792775E-06   1.32866180E+18   2.17814193E+08   0.00000000E+00   4.79001149E+06   0.29549634      
  42               1.25892541E-03   1.84470304E-01   832.87995972     6.27603834E-06   1.60424203E+18   2.17814191E+08   0.00000000E+00   4.72988915E+06   0.29540282      
  43               1.58489319E-03   2.26223890E-01   859.39436605     7.45911736E-06   1.90665362E+18   2.17814186E+08   0.00000000E+00   4.66886422E+06   0.29473509      
  44               1.99526231E-03   2.76815481E-01   877.70356383     8.93684375E-06   2.28438002E+18   2.17814193E+08   0.00000000E+00   4.60689977E+06   0.29452227      
  45               2.51188643E-03   3.37875523E-01   908.33214324     1.05403473E-05   2.69424997E+18   2.17814195E+08   0.00000000E+00   4.54398714E+06   0.29360524      
  46               3.16227766E-03   4.11168833E-01   931.17242526     1.25122391E-05   3.19827586E+18   2.17814217E+08   0.00000000E+00   4.48016527E+06   0.29320041      
  47               3.98107171E-03   4.98842546E-01   966.56719013     1.46245901E-05   3.73815477E+18   2.17814227E+08   0.00000000E+00   4.41535246E+06   0.29205703      
  48               5.01187234E-03   6.03390130E-01   994.75797797     1.71881918E-05   4.39345933E+18   2.17814270E+08   0.00000000E+00   4.34941122E+06   0.29147501      
  49               6.30957344E-03   7.27593531E-01   1035.59146671    1.99086678E-05   5.08892682E+18   2.17814297E+08   0.00000000E+00   4.28226873E+06   0.29009517      
  50               7.94328235E-03   8.74345370E-01   1069.60581200    2.31629998E-05   5.92086420E+18   2.17814367E+08   0.00000000E+00   4.21393028E+06   0.28929239      
  51               1.00000000E-02   1.04704958E+00   1115.95888203    2.65853053E-05   6.79586736E+18   2.17814404E+08   0.00000000E+00   4.14433418E+06   0.28761004      
  52               1.25892541E-02   1.24944342E+00   1155.35452306    3.06418254E-05   7.83298265E+18   2.17814493E+08   0.00000000E+00   4.07342225E+06   0.28649109      
  53               1.58489319E-02   1.48628870E+00   1206.41374936    3.49064968E-05   8.92344884E+18   2.17814565E+08   0.00000000E+00   4.00100291E+06   0.28443983      
  54               1.99526231E-02   1.76304516E+00   1250.07453589    3.99593926E-05   1.02153528E+19   2.17814616E+08   0.00000000E+00   3.92689998E+06   0.28306422      
  55               2.51188643E-02   2.08760140E+00   1304.72597208    4.53322818E-05   1.15892175E+19   2.17814720E+08   0.00000000E+00   3.85064345E+06   0.28083337      
  56               3.16227766E-02   2.47263897E+00   1351.38611753    5.18374156E-05   1.32527833E+19   2.17814752E+08   0.00000000E+00   3.77121460E+06   0.27937072      
  57               3.98107171E-02   2.94009450E+00   1408.28518906    5.91422080E-05   1.51215572E+19   2.17814818E+08   0.00000000E+00   3.68678928E+06   0.27713137      
  58               5.01187234E-02   3.51202604E+00   1456.95877123    6.82846322E-05   1.74596810E+19   2.17814840E+08   0.00000000E+00   3.59679064E+06   0.27557452      
  59               6.30957344E-02   4.20916675E+00   1516.29492744    7.86359434E-05   2.01065838E+19   2.17814805E+08   0.00000000E+00   3.50165269E+06   0.27312725      
  60               7.94328235E-02   5.03243443E+00   1567.89856565    9.09305551E-05   2.32480217E+19   2.17814844E+08   0.00000000E+00   3.40429210E+06   0.27142694      
  61               1.00000000E-01   5.95775452E+00   1629.14153200    1.03641957E-04   2.64880281E+19   2.17814734E+08   0.00000000E+00   3.30897036E+06   0.26896919      
  62               1.25892541E-01   6.94996601E+00   1681.76758338    1.17132469E-04   2.99324691E+19   2.17763170E+08   0.00000000E+00   3.21891617E+06   0.26729143      
  63               1.58489319E-01   7.93578294E+00   1741.93217132    1.29183430E-04   3.29977540E+19   2.16494346E+08   1.28941923E+06   3.13877194E+06   0.26491042      
  64               1.99526231E-01   8.83655835E+00   1792.24117114    1.39998024E-04   3.57118657E+19   2.10165347E+08   7.52906673E+06   3.07178304E+06   0.26306887      
  65               2.51188643E-01   9.63881273E+00   1833.34244507    1.49279651E-04   3.80807759E+19   2.02485637E+08   1.50795563E+07   3.01628837E+06   0.26136745      
  66               3.16227766E-01   1.03301934E+01   1866.91403624    1.57153842E-04   4.00783625E+19   1.94554166E+08   2.29506482E+07   2.97114702E+06   0.26013629      
  67               3.98107171E-01   1.08744181E+01   1891.78032665    1.63255809E-04   4.16352486E+19   1.87117787E+08   3.03502068E+07   2.93717029E+06   0.25897152      
  68               5.01187234E-01   1.15167408E+01   1920.23242900    1.70333213E-04   4.34411818E+19   1.78947764E+08   3.85161608E+07   2.89865178E+06   0.25789238      
  69               6.30957344E-01   1.22687860E+01   1951.56851064    1.78530518E-04   4.55348207E+19   1.68643246E+08   4.88429567E+07   2.85552586E+06   0.25641149      
  70               7.94328235E-01   1.28354653E+01   1974.36230952    1.84783443E-04   4.70880389E+19   1.58296288E+08   5.92748034E+07   2.82432222E+06   0.25554328      
  71               1.00000000E+00   1.32496641E+01   1990.30811238    1.89214773E-04   4.82181334E+19   1.49724033E+08   6.79054733E+07   2.80217089E+06   0.25469724      
  72               1.25892541E+00   1.37495494E+01   2009.26355888    1.94496729E-04   4.95652611E+19   1.41700744E+08   7.59256167E+07   2.77611314E+06   0.25400565      
  73               1.58489319E+00   1.43468552E+01   2030.94090978    2.00774547E-04   5.11664479E+19   1.33578005E+08   8.40494725E+07   2.74588673E+06   0.252867        
  74               1.99526231E+00   1.50561872E+01   2055.92514227    2.08132990E-04   5.30436678E+19   1.25487598E+08   9.21427917E+07   2.71118709E+06   0.25189367      
  75               2.51188643E+00   1.58975850E+01   2084.13639587    2.16779396E-04   5.52498187E+19   1.17407829E+08   1.00224753E+08   2.67157550E+06   0.25038274      
  76               3.16227766E+00   1.68893586E+01   2115.93281708    2.26828911E-04   5.78145464E+19   1.09210683E+08   1.08424106E+08   2.62685004E+06   0.24902816      
  77               3.98107171E+00   1.80512822E+01   2151.13557545    2.38448532E-04   6.07807582E+19   1.00808815E+08   1.16829594E+08   2.57688897E+06   0.24709647      
  78               5.01187234E+00   1.94049331E+01   2189.79104708    2.51780654E-04   6.41852612E+19   9.23497476E+07   1.25293262E+08   2.52164320E+06   0.24535173      
  79               6.30957344E+00   2.09738441E+01   2231.81688044    2.66980757E-04   6.80683646E+19   8.38326323E+07   1.33816374E+08   2.46113026E+06   0.24288686      
  80               7.94328235E+00   2.27841508E+01   2276.86972989    2.84242935E-04   7.24803870E+19   7.55119669E+07   1.42143554E+08   2.39541461E+06   0.24058487      
  81               1.00000000E+01   2.48648216E+01   2325.09574692    3.03708192E-04   7.74587254E+19   6.73485232E+07   1.50314588E+08   2.32459848E+06   0.23752556      
  82               1.25892541E+01   2.72477413E+01   2375.71687865    3.25680013E-04   8.30733383E+19   5.96134485E+07   1.58057431E+08   2.24882786E+06   0.23472564      
  83               1.58489319E+01   2.99695928E+01   2429.27874798    3.50214768E-04   8.93571545E+19   5.24570330E+07   1.65221898E+08   2.16823352E+06   0.23115556      
  84               1.99526231E+01   3.30726865E+01   2484.53529187    3.77751734E-04   9.64162295E+19   4.60691099E+07   1.71616502E+08   2.08291805E+06   0.22794445      
  85               2.51188643E+01   3.66039884E+01   2542.58237833    4.08370043E-04   1.04274764E+20   4.02642660E+07   1.77426532E+08   1.99300789E+06   0.22394428      
  86               3.16227766E+01   4.06190356E+01   2601.57097601    4.42672649E-04   1.13088845E+20   3.51107242E+07   1.82583679E+08   1.89857421E+06   0.22035405      
  87               3.98107171E+01   4.51818004E+01   2663.32575294    4.80698768E-04   1.22875439E+20   3.04931678E+07   1.87204330E+08   1.79966069E+06   0.21605419      
  88               5.01187234E+01   5.03667222E+01   2725.33111759    5.23321971E-04   1.33859825E+20   2.63473183E+07   1.91352335E+08   1.69628295E+06   0.21212512      
  89               6.30957344E+01   5.62588323E+01   2790.13612972    5.70514282E-04   1.46046502E+20   2.26819222E+07   1.95019860E+08   1.58844790E+06   0.20769078      
  90               7.94328235E+01   6.29553213E+01   2854.58602549    6.23464013E-04   1.59740540E+20   1.94508716E+07   1.98252982E+08   1.47616457E+06   0.20373827      
  91               1.00000000E+02   7.05632778E+01   2921.94267229    6.82000857E-04   1.74917352E+20   1.67143101E+07   2.00992788E+08   1.35948949E+06   0.19953617      
  92               1.25892541E+02   7.92016270E+01   2988.39530718    7.47645843E-04   1.91964931E+20   1.42964444E+07   2.03417983E+08   1.23851369E+06   0.19560629      
  93               1.58489319E+02   8.90009382E+01   3057.68442345    8.20069553E-04   2.10827745E+20   1.22311738E+07   2.05499467E+08   1.11336346E+06   0.19167069      
  94               1.99526231E+02   1.00087970E+02   3125.51536370    9.01012877E-04   2.31945569E+20   1.03599195E+07   2.07396895E+08   9.84380160E+05   0.1877746       
  95               2.51188643E+02   1.12596372E+02   3195.73439777    9.89857037E-04   2.55199347E+20   8.78064947E+06   2.09011625E+08   8.51927644E+05   0.18444073      
  96               3.16227766E+02   1.26669937E+02   3264.29171377    1.08850832E-03   2.81067371E+20   7.36281364E+06   2.10477787E+08   7.16342675E+05   0.18071686      
  97               3.98107171E+02   1.42467589E+02   3334.56321952    1.19642671E-03   3.09458887E+20   6.22469477E+06   2.11681607E+08   5.77908308E+05   0.17808909      
  98               5.01187234E+02   1.60155623E+02   3403.54207984    1.31541829E-03   3.40829287E+20   5.21658758E+06   2.12778793E+08   4.36909859E+05   0.17470812      
  99               6.30957344E+02   1.79927852E+02   3473.37515715    1.44541568E-03   3.75208391E+20   4.40340798E+06   2.13714127E+08   2.93513731E+05   0.17276667      
  100              7.94328235E+02   2.01990487E+02   3542.78207709    1.58781678E-03   4.12964118E+20   3.67581593E+06   2.14603112E+08   1.47877084E+05   0.16959776      
  101              1.00000000E+03   2.26595719E+02   3611.91744037    1.74370129E-03   4.54401468E+20   3.34399424E+06   2.15058890E+08   0.00000000E+00   0.16813076      
