# ATMO pressure-temperature profile
# Effective temperature = 900.0K
# log(g) = 5.5cm/s^2
# M/H = 0.0
# Optical depth grid in band 17 (1.20-1.33microns)
# All parameters in cgs units
#
# Model Level      Optical Depth    Pressure         Temperature      Density          Number Density   Rad Flux         Conv Flux        Radial Extension Adiabatic Gradient
#                                   [Ba]             [K]              [g/cm^3]         [/cm^3]          [ergs/s/cm^2/sr] [ergs/s/cm^2/sr] [cm]             [K/Ba]          
  1                8.00000000E-07   1.00000000E-05   216.68083596     1.30805607E-09   3.34276108E+14   3.71928500E+07   0.00000000E+00   1.63141007E+06   0.31232634      
  2                9.86413681E-07   8.53119423E-05   245.13775882     9.86385052E-09   2.52072494E+15   3.71928499E+07   0.00000000E+00   1.56510794E+06   0.30708216      
  3                1.21626494E-06   1.73932943E-04   263.97551124     1.86751917E-08   4.77247921E+15   3.71928498E+07   0.00000000E+00   1.54445981E+06   0.30577886      
  4                1.49967547E-06   2.80814068E-04   267.70575109     2.97308977E-08   7.59778499E+15   3.71928497E+07   0.00000000E+00   1.53011600E+06   0.30604062      
  5                1.84912550E-06   4.10619089E-04   279.85768042     4.15861547E-08   1.06274176E+16   3.71928496E+07   0.00000000E+00   1.51844218E+06   0.30538977      
  6                2.28000336E-06   5.68580992E-04   281.28737932     5.72913363E-08   1.46409052E+16   3.71928494E+07   0.00000000E+00   1.50820846E+06   0.30482416      
  7                2.81128314E-06   7.61215746E-04   291.51434173     7.40107314E-08   1.89135772E+16   3.71928493E+07   0.00000000E+00   1.49885348E+06   0.30437671      
  8                3.46636019E-06   9.96176460E-04   292.67431927     9.64713861E-08   2.46534383E+16   3.71928492E+07   0.00000000E+00   1.49006024E+06   0.30396865      
  9                4.27408139E-06   1.28294759E-03   302.44652676     1.20228428E-07   3.07245940E+16   3.71928490E+07   0.00000000E+00   1.48163985E+06   0.30362786      
  10               5.27001545E-06   1.63289193E-03   303.67316602     1.52404533E-07   3.89472559E+16   3.71928488E+07   0.00000000E+00   1.47346468E+06   0.30329852      
  11               6.49801917E-06   2.06006365E-03   313.30492840     1.86363246E-07   4.76254676E+16   3.71928485E+07   0.00000000E+00   1.46544932E+06   0.30300868      
  12               8.01216876E-06   2.58142931E-03   314.55530177     2.32600200E-07   5.94414050E+16   3.71928482E+07   0.00000000E+00   1.45753055E+06   0.30272178      
  13               9.87914110E-06   3.21786795E-03   324.11950178     2.81390815E-07   7.19099348E+16   3.71928478E+07   0.00000000E+00   1.44966378E+06   0.30246912      
  14               1.21811499E-05   3.99460381E-03   325.50883165     3.47822604E-07   8.88866983E+16   3.71928471E+07   0.00000000E+00   1.44181252E+06   0.30221911      
  15               1.50195662E-05   4.94249212E-03   335.27700113     4.17819860E-07   1.06774627E+17   3.71928463E+07   0.00000000E+00   1.43394960E+06   0.30199791      
  16               1.85193820E-05   6.09878472E-03   336.89017130     5.13099774E-07   1.31123581E+17   3.71928454E+07   0.00000000E+00   1.42605242E+06   0.30178725      
  17               2.28347147E-05   7.50900391E-03   347.02897267     6.13286618E-07   1.56726500E+17   3.71928443E+07   0.00000000E+00   1.41810266E+06   0.30158864      
  18               2.81555937E-05   9.22824412E-03   349.02795887     7.49386313E-07   1.91507019E+17   3.71928432E+07   0.00000000E+00   1.41008307E+06   0.30140223      
  19               3.47163285E-05   1.13236439E-02   359.65985095     8.92362106E-07   2.28044752E+17   3.71928421E+07   0.00000000E+00   1.40198012E+06   0.30122734      
  20               4.28058268E-05   1.38760691E-02   362.15754985     1.08596531E-06   2.77520295E+17   3.71928406E+07   0.00000000E+00   1.39378086E+06   0.3010657       
  21               5.27803164E-05   1.69843129E-02   373.34782189     1.28938133E-06   3.29503627E+17   3.71928388E+07   0.00000000E+00   1.38547439E+06   0.3009151       
  22               6.50790328E-05   2.07671722E-02   376.31607584     1.56412559E-06   3.99714986E+17   3.71928366E+07   0.00000000E+00   1.37705087E+06   0.30077313      
  23               8.02435604E-05   2.53691084E-02   387.95067418     1.85342778E-06   4.73646718E+17   3.71928334E+07   0.00000000E+00   1.36850381E+06   0.30059632      
  24               9.89416822E-05   3.09642728E-02   391.29513428     2.24286931E-06   5.73168450E+17   3.71928282E+07   0.00000000E+00   1.35982574E+06   0.30055673      
  25               1.21996786E-04   3.77640804E-02   403.43172828     2.65311668E-06   6.78007820E+17   3.71928211E+07   0.00000000E+00   1.35101086E+06   0.30043781      
  26               1.50424124E-04   4.60210229E-02   407.28821652     3.20259429E-06   8.18427590E+17   3.71928126E+07   0.00000000E+00   1.34205329E+06   0.30028719      
  27               1.85475517E-04   5.60381387E-02   420.30952838     3.77886888E-06   9.65695718E+17   3.71928047E+07   0.00000000E+00   1.33294764E+06   0.30019987      
  28               2.28694484E-04   6.81788313E-02   425.07008169     4.54609449E-06   1.16175581E+18   3.71927959E+07   0.00000000E+00   1.32368481E+06   0.30015431      
  29               2.81984210E-04   8.28839887E-02   439.11348107     5.34987025E-06   1.36716116E+18   3.71927875E+07   0.00000000E+00   1.31425552E+06   0.30007916      
  30               3.47691354E-04   1.00675273E-01   444.89436301     6.41379764E-06   1.63904831E+18   3.71927857E+07   0.00000000E+00   1.30465095E+06   0.29996212      
  31               4.28709385E-04   1.22179468E-01   460.12458502     7.52614196E-06   1.92330708E+18   3.71928416E+07   0.00000000E+00   1.29486328E+06   0.2998574       
  32               5.28606003E-04   1.48133502E-01   467.34570704     8.98406819E-06   2.29583605E+18   3.71931867E+07   0.00000000E+00   1.28488206E+06   0.29977788      
  33               6.51780242E-04   1.79409313E-01   484.08560184     1.05046842E-05   2.68440883E+18   3.71936766E+07   0.00000000E+00   1.27470128E+06   0.29972759      
  34               8.03656185E-04   2.17002717E-01   493.23815824     1.24700629E-05   3.18664984E+18   3.71936884E+07   0.00000000E+00   1.26431438E+06   0.29968946      
  35               9.90921819E-04   2.62171790E-01   510.18381081     1.45652521E-05   3.72207505E+18   3.71936997E+07   0.00000000E+00   1.25371580E+06   0.29963597      
  36               1.22182355E-03   3.16359330E-01   520.70906500     1.72215267E-05   4.40059446E+18   3.71937194E+07   0.00000000E+00   1.24289626E+06   0.29954796      
  37               1.50652933E-03   3.81306458E-01   539.17020268     2.00462900E-05   5.12240742E+18   3.71937520E+07   0.00000000E+00   1.23184258E+06   0.29946885      
  38               1.85757643E-03   4.59032087E-01   551.46230301     2.35946098E-05   6.02910786E+18   3.71938226E+07   0.00000000E+00   1.22054095E+06   0.29940948      
  39               2.29042351E-03   5.51955104E-01   571.84412139     2.73596869E-05   6.99120332E+18   3.71939293E+07   0.00000000E+00   1.20897553E+06   0.29934542      
  40               2.82413135E-03   6.62843750E-01   586.28055954     3.20472274E-05   8.18901208E+18   3.71940747E+07   0.00000000E+00   1.19713323E+06   0.29924003      
  41               3.48220225E-03   7.94899322E-01   608.87530517     3.70056360E-05   9.45604664E+18   3.71942860E+07   0.00000000E+00   1.18500695E+06   0.29910871      
  42               4.29361493E-03   9.51730263E-01   625.90739789     4.31010211E-05   1.10136085E+19   3.71945656E+07   0.00000000E+00   1.17258888E+06   0.29897144      
  43               5.29410063E-03   1.13781595E+00   651.26024901     4.95222588E-05   1.26544503E+19   3.71948598E+07   0.00000000E+00   1.15985183E+06   0.29882647      
  44               6.52771662E-03   1.35821354E+00   671.52567800     5.73308004E-05   1.46497856E+19   3.71952577E+07   0.00000000E+00   1.14677168E+06   0.29858952      
  45               8.04878622E-03   1.61853755E+00   700.05177966     6.55351695E-05   1.67462841E+19   3.71956783E+07   0.00000000E+00   1.13334146E+06   0.29830452      
  46               9.92429106E-03   1.92489098E+00   723.69654099     7.53930033E-05   1.92652869E+19   3.71961052E+07   0.00000000E+00   1.11955922E+06   0.29800052      
  47               1.22368206E-02   2.28468662E+00   755.39896876     8.57296680E-05   2.19066560E+19   3.71965548E+07   0.00000000E+00   1.10540699E+06   0.29765249      
  48               1.50882091E-02   2.70597747E+00   782.52076711     9.80187536E-05   2.50469094E+19   3.71968421E+07   0.00000000E+00   1.09087377E+06   0.29711456      
  49               1.86040198E-02   3.19863609E+00   817.53509484     1.10902536E-04   2.83389835E+19   3.71969674E+07   0.00000000E+00   1.07593133E+06   0.29649052      
  50               2.29390746E-02   3.77318600E+00   848.08126445     1.26111928E-04   3.22252715E+19   3.71969506E+07   0.00000000E+00   1.06056821E+06   0.29578931      
  51               2.82842712E-02   4.44259763E+00   886.24210603     1.42092004E-04   3.63086783E+19   3.71968612E+07   0.00000000E+00   1.04475462E+06   0.2950384       
  52               3.48749902E-02   5.22015541E+00   919.91818814     1.60849303E-04   4.11017267E+19   3.71967390E+07   0.00000000E+00   1.02849021E+06   0.2940736       
  53               4.30014593E-02   6.11964705E+00   960.96009736     1.80512204E-04   4.61261132E+19   3.71966887E+07   0.00000000E+00   1.01179721E+06   0.29303707      
  54               5.30215347E-02   7.15694820E+00   997.46899147     2.03383692E-04   5.19701906E+19   3.71969580E+07   0.00000000E+00   9.94677608E+05   0.29179772      
  55               6.53764590E-02   8.35143929E+00   1041.16523440    2.27375020E-04   5.80988465E+19   3.71973336E+07   0.00000000E+00   9.77112328E+05   0.29055372      
  56               8.06102920E-02   9.72628455E+00   1080.13791985    2.55251539E-04   6.52219227E+19   3.71967107E+07   0.00000000E+00   9.59065607E+05   0.28909501      
  57               9.93938685E-02   1.13064185E+01   1125.78813310    2.84687718E-04   7.27435064E+19   3.71957653E+07   0.00000000E+00   9.40529206E+05   0.28765604      
  58               1.22554340E-01   1.31178594E+01   1166.44869444    3.18786145E-04   8.14560166E+19   3.71943142E+07   0.00000000E+00   9.21514476E+05   0.28597647      
  59               1.51111597E-01   1.51911254E+01   1213.44918010    3.54876652E-04   9.06763846E+19   3.71927098E+07   0.00000000E+00   9.02022005E+05   0.28437951      
  60               1.86323183E-01   1.75679276E+01   1255.11893127    3.96790492E-04   1.01382149E+20   3.71918188E+07   0.00000000E+00   8.81992298E+05   0.28256956      
  61               2.29739671E-01   2.02966564E+01   1302.80091432    4.41671951E-04   1.12842392E+20   3.71923743E+07   0.00000000E+00   8.61379728E+05   0.28093833      
  62               2.83272943E-01   2.34293810E+01   1344.43933444    4.94068053E-04   1.26225019E+20   3.71939457E+07   0.00000000E+00   8.40172637E+05   0.27914117      
  63               3.49280383E-01   2.70264783E+01   1391.86859983    5.50503088E-04   1.40642656E+20   3.71954805E+07   0.00000000E+00   8.18361287E+05   0.27759777      
  64               4.30668686E-01   3.11574006E+01   1432.84233646    6.16481861E-04   1.57502935E+20   3.71968056E+07   0.00000000E+00   7.95937485E+05   0.27583257      
  65               5.31021855E-01   3.59223882E+01   1480.18679046    6.88004464E-04   1.75782047E+20   3.71978214E+07   0.00000000E+00   7.72800344E+05   0.2742667       
  66               6.54759028E-01   4.14103535E+01   1521.31216402    7.71651661E-04   1.97158924E+20   3.71987000E+07   0.00000000E+00   7.48982247E+05   0.27249334      
  67               8.07329079E-01   4.76886133E+01   1569.76713221    8.61191677E-04   2.20041857E+20   3.71993997E+07   0.00000000E+00   7.24627510E+05   0.27094354      
  68               9.95450561E-01   5.47865978E+01   1612.67518941    9.63019635E-04   2.46066939E+20   3.71999636E+07   0.00000000E+00   6.99980203E+05   0.26912494      
  69               1.22740757E+00   6.26966958E+01   1664.04387822    1.06801757E-03   2.72901372E+20   3.72006292E+07   0.00000000E+00   6.75315239E+05   0.26750643      
  70               1.51341452E+00   7.13964344E+01   1711.05382001    1.18332094E-03   3.02230781E+20   3.72015917E+07   0.00000000E+00   6.50841144E+05   0.26557122      
  71               1.86606598E+00   8.08935590E+01   1768.08467355    1.29743612E-03   3.31387958E+20   3.71680608E+07   0.00000000E+00   6.26602798E+05   0.26379177      
  72               2.30089127E+00   9.10818934E+01   1823.45657211    1.41650370E-03   3.61794920E+20   3.50501177E+07   2.12179041E+06   6.02836770E+05   0.26177592      
  73               2.83703828E+00   1.01812626E+02   1877.80850382    1.53787366E-03   3.92713813E+20   3.17661082E+07   5.38756247E+06   5.79845068E+05   0.2602163       
  74               3.49811672E+00   1.12782848E+02   1927.73103293    1.66027476E-03   4.23762437E+20   2.77093911E+07   9.43678157E+06   5.58133996E+05   0.25840321      
  75               4.31323774E+00   1.23483559E+02   1973.81989294    1.77717405E-03   4.53134842E+20   2.35218026E+07   1.36192484E+07   5.38433042E+05   0.25709246      
  76               5.31829590E+00   1.33528598E+02   2013.25804097    1.88402527E-03   4.80397441E+20   2.04176501E+07   1.67229379E+07   5.21073266E+05   0.25543145      
  77               6.55754979E+00   1.44870461E+02   2056.01879255    2.00143173E-03   5.10362320E+20   1.76159752E+07   1.95253077E+07   5.02603065E+05   0.25432352      
  78               8.08557104E+00   1.54746986E+02   2090.20280792    2.10345031E-03   5.36240499E+20   1.42925320E+07   2.28544126E+07   4.87380518E+05   0.2527807       
  79               9.96964736E+00   1.62680691E+02   2117.17240474    2.18306076E-03   5.56551839E+20   1.23258590E+07   2.48356968E+07   4.75672663E+05   0.25184646      
  80               1.22927457E+01   1.71934558E+02   2146.38785964    2.27576516E-03   5.80204127E+20   1.15357687E+07   2.56401506E+07   4.62543803E+05   0.25041483      
  81               1.51571657E+01   1.82670488E+02   2179.51708383    2.38102645E-03   6.07063262E+20   1.08639775E+07   2.63271320E+07   4.47959211E+05   0.24975346      
  82               1.86890445E+01   1.95044353E+02   2215.06937831    2.50130992E-03   6.37781456E+20   9.37601368E+06   2.78132792E+07   4.31925278E+05   0.24869933      
  83               2.30439114E+01   2.04468139E+02   2241.48577232    2.59354899E-03   6.60717025E+20   7.41509714E+06   2.97410435E+07   4.20223492E+05   0.24837322      
  84               2.84135369E+01   2.11353728E+02   2259.69477443    2.65921993E-03   6.77463608E+20   6.43552049E+06   3.06945979E+07   4.11932302E+05   0.24736905      
  85               3.50343769E+01   2.19559538E+02   2281.32064878    2.73619254E-03   6.97094756E+20   6.19421684E+06   3.09397948E+07   4.02312388E+05   0.24695256      
  86               4.31979859E+01   2.29295559E+02   2305.62370852    2.82729540E-03   7.20332574E+20   5.89101004E+06   3.12471571E+07   3.91243020E+05   0.2457116       
  87               5.32638553E+01   2.40795548E+02   2333.66479827    2.93357955E-03   7.47370268E+20   5.59158327E+06   3.15506326E+07   3.78615225E+05   0.24499938      
  88               6.56752445E+01   2.54320846E+02   2364.88545031    3.05729124E-03   7.78928670E+20   5.25301568E+06   3.18933323E+07   3.64333525E+05   0.24349486      
  89               8.09786996E+01   2.70164578E+02   2399.98430997    3.20005197E-03   8.15353321E+20   4.92959997E+06   3.22205864E+07   3.48315420E+05   0.24258164      
  90               9.98481215E+01   2.88653066E+02   2438.65724957    3.36456546E-03   8.57336373E+20   4.57789678E+06   3.25761075E+07   3.30497416E+05   0.24064677      
  91               1.23114441E+02   3.10155627E+02   2481.05019482    3.55309994E-03   9.05461425E+20   4.23433722E+06   3.29230469E+07   3.10831110E+05   0.23945693      
  92               1.51802212E+02   3.35088926E+02   2527.34070813    3.76799967E-03   9.60333595E+20   3.86913740E+06   3.32914948E+07   2.89282382E+05   0.23690093      
  93               1.87174723E+02   3.63946788E+02   2576.85715043    4.01332530E-03   1.02299471E+21   3.52453896E+06   3.36387664E+07   2.65815370E+05   0.23543605      
  94               2.30789634E+02   3.97306865E+02   2630.74121655    4.29075802E-03   1.09389032E+21   3.18035951E+06   3.39853467E+07   2.40393388E+05   0.2328424       
  95               2.84567566E+02   4.35868020E+02   2687.36070828    4.60714973E-03   1.17477550E+21   2.84855698E+06   3.43189972E+07   2.12966996E+05   0.23063227      
  96               3.50876675E+02   4.80480566E+02   2748.63352900    4.96433193E-03   1.26614903E+21   2.53507756E+06   3.46339362E+07   1.83467628E+05   0.22827332      
  97               4.32636941E+02   5.32245481E+02   2812.74484412    5.37235590E-03   1.37058977E+21   2.23192898E+06   3.49379225E+07   1.51770102E+05   0.22585756      
  98               5.33448747E+02   5.92597331E+02   2881.96623438    5.83591268E-03   1.48934956E+21   1.97275160E+06   3.51971029E+07   1.17685586E+05   0.22335929      
  99               6.57751428E+02   6.63160034E+02   2954.35471332    6.36830831E-03   1.62585401E+21   1.75718506E+06   3.54120755E+07   8.10829274E+04   0.22080493      
  100              8.11018759E+02   7.45853968E+02   3032.11776139    6.97542177E-03   1.78169590E+21   1.58252592E+06   3.55871581E+07   4.18472510E+04   0.21796331      
  101              1.00000000E+03   8.42663371E+02   3112.71012831    7.67258166E-03   1.96083602E+21   1.49106573E+06   3.56781380E+07   0.00000000E+00   0.2149532       
