# ATMO pressure-temperature profile
# Effective temperature = 1600.0K
# log(g) = 3.5cm/s^2
# M/H = 0.0
# Optical depth grid in band 17 (1.20-1.33microns)
# All parameters in cgs units
#
# Model Level      Optical Depth    Pressure         Temperature      Density          Number Density   Rad Flux         Conv Flux        Radial Extension Adiabatic Gradient
#                                   [Ba]             [K]              [g/cm^3]         [/cm^3]          [ergs/s/cm^2/sr] [ergs/s/cm^2/sr] [cm]             [K/Ba]          
  1                3.00000000E-06   1.00000000E-05   380.41449947     7.45231696E-10   1.90400804E+14   3.71582407E+08   0.00000000E+00   2.08941758E+08   0.29796411      
  2                3.65048058E-06   1.69453397E-05   450.09338130     1.06733082E-09   2.72692687E+14   3.71582407E+08   0.00000000E+00   2.06479124E+08   0.29799037      
  3                4.44200282E-06   2.47556641E-05   474.65515413     1.47858962E-09   3.77765436E+14   3.71582407E+08   0.00000000E+00   2.04513069E+08   0.29790037      
  4                5.40514834E-06   3.39319474E-05   496.28200991     1.93834632E-09   4.95229027E+14   3.71582407E+08   0.00000000E+00   2.02799004E+08   0.29779832      
  5                6.57712968E-06   4.48008524E-05   510.34949657     2.48868346E-09   6.35834994E+14   3.71582407E+08   0.00000000E+00   2.01234108E+08   0.29765672      
  6                8.00322805E-06   5.77350561E-05   526.33452976     3.10977305E-09   7.94517686E+14   3.71582407E+08   0.00000000E+00   1.99763861E+08   0.29753358      
  7                9.73854285E-06   7.31735750E-05   537.12853510     3.86213072E-09   9.86738078E+14   3.71582407E+08   0.00000000E+00   1.98355130E+08   0.29736054      
  8                1.18501205E-05   9.16385436E-05   550.88226054     4.71596110E-09   1.20488398E+15   3.71582407E+08   0.00000000E+00   1.96986929E+08   0.29721861      
  9                1.44195449E-05   1.13745038E-04   560.43712811     5.75382079E-09   1.47004761E+15   3.71582407E+08   0.00000000E+00   1.95644916E+08   0.29701428      
  10               1.75460896E-05   1.40226470E-04   573.52630332     6.93150148E-09   1.77093450E+15   3.71582407E+08   0.00000000E+00   1.94318898E+08   0.29716696      
  11               2.13505531E-05   1.71951992E-04   582.82677445     8.36408192E-09   2.13694604E+15   3.71582407E+08   0.00000000E+00   1.93001291E+08   0.29699861      
  12               2.59799264E-05   2.09961259E-04   595.82953913     9.99004789E-09   2.55236616E+15   3.71582407E+08   0.00000000E+00   1.91686379E+08   0.29687376      
  13               3.16130723E-05   2.55493301E-04   605.05156255     1.19711912E-08   3.05853158E+15   3.71582407E+08   0.00000000E+00   1.90369746E+08   0.29669285      
  14               3.84676354E-05   3.10034392E-04   617.95580696     1.42233737E-08   3.63394454E+15   3.71582407E+08   0.00000000E+00   1.89047982E+08   0.2965598       
  15               4.68084520E-05   3.75365128E-04   627.02743642     1.69713816E-08   4.33603939E+15   3.71582407E+08   0.00000000E+00   1.87718270E+08   0.29636531      
  16               5.69577817E-05   4.53658545E-04   639.82623458     2.01010224E-08   5.13562012E+15   3.71582407E+08   0.00000000E+00   1.86377797E+08   0.29622248      
  17               6.93077586E-05   5.47514210E-04   648.85057537     2.39222235E-08   6.11190423E+15   3.71582407E+08   0.00000000E+00   1.85024321E+08   0.296011        
  18               8.43355422E-05   6.60041906E-04   661.75798954     2.82762221E-08   7.22433965E+15   3.71582407E+08   0.00000000E+00   1.83656126E+08   0.29585575      
  19               1.02621753E-04   7.94949924E-04   670.90666488     3.35913879E-08   8.58229633E+15   3.71582408E+08   0.00000000E+00   1.82271879E+08   0.29562609      
  20               1.24872905E-04   9.56669097E-04   684.05419456     3.96477860E-08   1.01297115E+16   3.71582408E+08   0.00000000E+00   1.80870556E+08   0.29545932      
  21               1.51948705E-04   1.15048361E-03   693.33122789     4.70419726E-08   1.20189219E+16   3.71582408E+08   0.00000000E+00   1.79451388E+08   0.29521173      
  22               1.84895266E-04   1.38270311E-03   706.67593330     5.54690836E-08   1.41721088E+16   3.71582408E+08   0.00000000E+00   1.78013813E+08   0.29503222      
  23               2.24985526E-04   1.66084208E-03   716.06700257     6.57528697E-08   1.67996610E+16   3.71582408E+08   0.00000000E+00   1.76557419E+08   0.29476326      
  24               2.73768430E-04   1.99384310E-03   729.67508034     7.74635320E-08   1.97918917E+16   3.71582409E+08   0.00000000E+00   1.75081917E+08   0.29456836      
  25               3.33128779E-04   2.39231595E-03   739.29569684     9.17346754E-08   2.34383048E+16   3.71582409E+08   0.00000000E+00   1.73587116E+08   0.29427679      
  26               4.05360046E-04   2.86882843E-03   753.35688035     1.07952385E-07   2.75822478E+16   3.71582409E+08   0.00000000E+00   1.72072888E+08   0.29406373      
  27               4.93252992E-04   3.43829318E-03   763.48431111     1.27663926E-07   3.26188487E+16   3.71582410E+08   0.00000000E+00   1.70538919E+08   0.29374242      
  28               6.00203489E-04   4.11880931E-03   778.23923907     1.50030366E-07   3.83340232E+16   3.71582410E+08   0.00000000E+00   1.68983975E+08   0.29350482      
  29               7.30343727E-04   4.93187306E-03   789.03419836     1.77187619E-07   4.52732740E+16   3.71582411E+08   0.00000000E+00   1.67407023E+08   0.29315079      
  30               8.88701864E-04   5.90286575E-03   804.70545779     2.07940677E-07   5.31314659E+16   3.71582412E+08   0.00000000E+00   1.65807355E+08   0.29288483      
  31               1.08139630E-03   7.06162341E-03   816.51524447     2.45160235E-07   6.26420693E+16   3.71582413E+08   0.00000000E+00   1.64184433E+08   0.29249032      
  32               1.31587206E-03   8.44309006E-03   833.44270144     2.87167405E-07   7.33755743E+16   3.71582413E+08   0.00000000E+00   1.62537983E+08   0.29218878      
  33               1.60118847E-03   1.00880233E-02   846.53260853     3.37806310E-07   8.63153871E+16   3.71582414E+08   0.00000000E+00   1.60867867E+08   0.29213561      
  34               1.94836913E-03   1.20435194E-02   865.08056824     3.94644306E-07   1.00837646E+17   3.71582415E+08   0.00000000E+00   1.59174228E+08   0.29181287      
  35               2.37082789E-03   1.43635543E-02   880.02783541     4.62668969E-07   1.18220108E+17   3.71582416E+08   0.00000000E+00   1.57457283E+08   0.29127067      
  36               2.88488706E-03   1.71101774E-02   900.65500163     5.38511535E-07   1.37601094E+17   3.71582416E+08   0.00000000E+00   1.55717214E+08   0.29076333      
  37               3.51040806E-03   2.03529929E-02   917.75854474     6.28629334E-07   1.60629639E+17   3.71582417E+08   0.00000000E+00   1.53954720E+08   0.29006089      
  38               4.27155881E-03   2.41722834E-02   940.78158311     7.28313338E-07   1.86103572E+17   3.71582417E+08   0.00000000E+00   1.52169769E+08   0.28948782      
  39               5.19774750E-03   2.86652507E-02   960.44745732     8.45994668E-07   2.16176247E+17   3.71582417E+08   0.00000000E+00   1.50359720E+08   0.28869029      
  40               6.32475876E-03   3.39427241E-02   986.32527143     9.75455546E-07   2.49259875E+17   3.71582416E+08   0.00000000E+00   1.48522595E+08   0.28803765      
  41               7.69613634E-03   4.01270700E-02   1009.02954309    1.12722682E-06   2.88044381E+17   3.71582415E+08   0.00000000E+00   1.46657571E+08   0.28721204      
  42               9.36486541E-03   4.73513796E-02   1038.46986082    1.29244813E-06   3.30266542E+17   3.71582413E+08   0.00000000E+00   1.44764861E+08   0.28656149      
  43               1.13954198E-02   5.57547725E-02   1065.23466772    1.48357266E-06   3.79107691E+17   3.71582410E+08   0.00000000E+00   1.42845778E+08   0.28567424      
  44               1.38662528E-02   6.54823144E-02   1099.13223541    1.68866677E-06   4.31518992E+17   3.71582406E+08   0.00000000E+00   1.40902312E+08   0.28487198      
  45               1.68728289E-02   7.66781417E-02   1130.42141902    1.92264735E-06   4.91311626E+17   3.71582401E+08   0.00000000E+00   1.38937440E+08   0.28376287      
  46               2.05313114E-02   8.95180567E-02   1168.96951846    2.17057410E-06   5.54668239E+17   3.71582395E+08   0.00000000E+00   1.36949857E+08   0.28268642      
  47               2.49830512E-02   1.04211464E-01   1205.33411010    2.45061075E-06   6.26230029E+17   3.71582388E+08   0.00000000E+00   1.34935214E+08   0.28118045      
  48               3.04000477E-02   1.20968292E-01   1249.50774970    2.74408858E-06   7.01226684E+17   3.71582380E+08   0.00000000E+00   1.32891804E+08   0.27964726      
  49               3.69915946E-02   1.39978176E-01   1292.00037303    3.07087976E-06   7.84735919E+17   3.71582369E+08   0.00000000E+00   1.30820951E+08   0.27808636      
  50               4.50123658E-02   1.61382903E-01   1344.07115021    3.40330996E-06   8.69683244E+17   3.71374770E+08   2.08949441E+05   1.28727184E+08   0.27678323      
  51               5.47722558E-02   1.85238917E-01   1396.17671165    3.76070721E-06   9.60987379E+17   3.70126813E+08   1.45589554E+06   1.26618480E+08   0.27458386      
  52               6.66483519E-02   2.11852586E-01   1448.35406334    4.14635081E-06   1.05946074E+18   3.68036057E+08   3.54639494E+06   1.24487181E+08   0.27229455      
  53               8.10995048E-02   2.41326322E-01   1500.46055383    4.56062677E-06   1.16494642E+18   3.65127978E+08   6.45798292E+06   1.22343723E+08   0.27008972      
  54               9.86840557E-02   2.73420186E-01   1551.69502498    4.99692826E-06   1.27629200E+18   3.61337768E+08   1.02395068E+07   1.20217721E+08   0.26810051      
  55               1.20081410E-01   3.07318621E-01   1600.95283366    5.44600265E-06   1.39038854E+18   3.56614282E+08   1.49614842E+07   1.18162706E+08   0.26649501      
  56               1.46118284E-01   3.40497881E-01   1645.15637282    5.87648094E-06   1.49910851E+18   3.51276895E+08   2.03130605E+07   1.16307874E+08   0.26493235      
  57               1.77800653E-01   3.72039808E-01   1684.13190112    6.27407784E-06   1.60007061E+18   3.45629566E+08   2.59475244E+07   1.14665123E+08   0.26337076      
  58               2.16352610E-01   4.01919120E-01   1718.63607375    6.64149681E-06   1.69387198E+18   3.39747721E+08   3.18036915E+07   1.13201386E+08   0.26207903      
  59               2.63263667E-01   4.28291939E-01   1747.46851594    6.96634000E-06   1.77523716E+18   3.34063421E+08   3.75026504E+07   1.11975164E+08   0.26103143      
  60               3.20346302E-01   4.50114076E-01   1770.22489234    7.22698231E-06   1.84170468E+18   3.29055329E+08   4.25204867E+07   1.11002604E+08   0.25976359      
  61               3.89805984E-01   4.75064673E-01   1795.17899372    7.52129133E-06   1.91677360E+18   3.23233673E+08   4.83478676E+07   1.09932424E+08   0.25834551      
  62               4.74326391E-01   5.03415315E-01   1822.18067748    7.85166820E-06   2.00106330E+18   3.16324591E+08   5.52628920E+07   1.08765786E+08   0.25672858      
  63               5.77173093E-01   5.35378276E-01   1851.14807025    8.21901678E-06   2.09481380E+18   3.08096306E+08   6.34996875E+07   1.07507565E+08   0.25492917      
  64               7.02319722E-01   5.70869073E-01   1881.57248306    8.62149277E-06   2.19756334E+18   2.98606706E+08   7.29989478E+07   1.06174303E+08   0.25281763      
  65               8.54601502E-01   6.10170493E-01   1913.40637320    9.06082678E-06   2.30977579E+18   2.88623883E+08   8.29822308E+07   1.04768145E+08   0.2504994       
  66               1.03990206E+00   6.54542555E-01   1947.19756601    9.54988310E-06   2.43474627E+18   2.78236705E+08   9.33662403E+07   1.03259705E+08   0.24786123      
  67               1.26538076E+00   7.04520552E-01   1982.86870884    1.00925870E-05   2.57350814E+18   2.66944050E+08   1.04659000E+08   1.01649875E+08   0.24491996      
  68               1.53974930E+00   7.60681357E-01   2020.24901907    1.06934218E-05   2.72724219E+18   2.54556577E+08   1.17044270E+08   9.99403487E+07   0.24151533      
  69               1.87360830E+00   8.23671524E-01   2059.17827557    1.13573006E-05   2.89724981E+18   2.41045300E+08   1.30551570E+08   9.81328445E+07   0.23777315      
  70               2.27985690E+00   8.94219878E-01   2099.50778132    1.20896732E-05   3.08498226E+18   2.26482129E+08   1.45109189E+08   9.62289405E+07   0.2336931       
  71               2.77419111E+00   9.73146003E-01   2141.06684271    1.28967679E-05   3.29210454E+18   2.10986460E+08   1.60598393E+08   9.42301070E+07   0.22935727      
  72               3.37571026E+00   1.06136800E+00   2183.72582249    1.37852560E-05   3.52041385E+18   1.94676843E+08   1.76900595E+08   9.21377623E+07   0.22471393      
  73               4.10765492E+00   1.15991519E+00   2227.28509017    1.47630392E-05   3.77203981E+18   1.77722802E+08   1.93846334E+08   8.99532534E+07   0.21989838      
  74               4.99830483E+00   1.26993755E+00   2271.65987276    1.58380923E-05   4.04915963E+18   1.60275730E+08   2.11284996E+08   8.76779089E+07   0.21463967      
  75               6.08207157E+00   1.39272436E+00   2316.53002963    1.70210443E-05   4.35464823E+18   1.42567177E+08   2.28985249E+08   8.53130056E+07   0.20921957      
  76               7.40082804E+00   1.52952290E+00   2361.85850208    1.83212134E-05   4.69059512E+18   1.25000184E+08   2.46544118E+08   8.28632072E+07   0.20372827      
  77               9.00552635E+00   1.68191854E+00   2407.36650249    1.97477370E-05   5.06044353E+18   1.08367366E+08   2.63169371E+08   8.03295713E+07   0.19838424      
  78               1.09581663E+01   1.85185788E+00   2453.24235548    2.13143282E-05   5.46755347E+18   9.31018721E+07   2.78428083E+08   7.77101369E+07   0.19305942      
  79               1.33341911E+01   2.04127449E+00   2499.12397245    2.30365377E-05   5.91615370E+18   7.93303868E+07   2.92193460E+08   7.50069118E+07   0.18787235      
  80               1.62254019E+01   2.25231091E+00   2545.20607310    2.49260082E-05   6.40960446E+18   6.73344824E+07   3.04184004E+08   7.22218711E+07   0.18295851      
  81               1.97435049E+01   2.48731307E+00   2591.19356160    2.70003650E-05   6.95274714E+18   5.71418548E+07   3.14372432E+08   6.93572307E+07   0.17809417      
  82               2.40244270E+01   2.74885536E+00   2637.18509174    2.92743934E-05   7.54982902E+18   4.86151186E+07   3.22895974E+08   6.64153641E+07   0.17351339      
  83               2.92335681E+01   3.03973185E+00   2683.00475405    3.17671059E-05   8.20615416E+18   4.14690970E+07   3.30039531E+08   6.33989855E+07   0.16926149      
  84               3.55721908E+01   3.36295616E+00   2728.78850716    3.44945049E-05   8.92641695E+18   3.54132302E+07   3.36093996E+08   6.03111759E+07   0.16512852      
  85               4.32851972E+01   3.72179757E+00   2774.25074585    3.74797211E-05   9.71701507E+18   3.02732786E+07   3.41233699E+08   5.71551563E+07   0.16124647      
  86               5.26705906E+01   4.11979397E+00   2819.61943726    4.07396708E-05   1.05830498E+19   2.59415699E+07   3.45566442E+08   5.39342166E+07   0.1577389       
  87               6.40909893E+01   4.56070756E+00   2864.68164918    4.42988394E-05   1.15313910E+19   2.22646929E+07   3.49245774E+08   5.06520634E+07   0.15460777      
  88               7.79876373E+01   5.04853982E+00   2909.68475242    4.81744153E-05   1.25674072E+19   1.91291626E+07   3.52386253E+08   4.73126019E+07   0.15169377      
  89               9.48974517E+01   5.58758376E+00   2954.33104464    5.23950243E-05   1.36990588E+19   1.64434362E+07   3.55080378E+08   4.39196238E+07   0.1490474       
  90               1.15473768E+02   6.18245878E+00   2998.92545484    5.69784507E-05   1.49321175E+19   1.41539007E+07   3.57383154E+08   4.04766360E+07   0.1466655       
  91               1.40511583E+02   6.83810304E+00   3043.17756901    6.19566721E-05   1.62754943E+19   1.21798037E+07   3.59376951E+08   3.69870111E+07   0.14448031      
  92               1.70978268E+02   7.55956288E+00   3087.36129646    6.73474500E-05   1.77351582E+19   1.04855968E+07   3.61099114E+08   3.34550389E+07   0.14244538      
  93               2.08050949E+02   8.35238596E+00   3131.16132070    7.31867247E-05   1.93210601E+19   9.03081866E+06   3.62591703E+08   2.98838819E+07   0.14062219      
  94               2.53161982E+02   9.22268458E+00   3174.93339773    7.94944820E-05   2.10401376E+19   7.78767776E+06   3.63884411E+08   2.62756624E+07   0.13902477      
  95               3.08054300E+02   1.01771872E+01   3218.39127743    8.63132286E-05   2.29041805E+19   6.71452664E+06   3.65020733E+08   2.26316579E+07   0.13762414      
  96               3.74848746E+02   1.12233257E+01   3261.90631860    9.36669744E-05   2.49216000E+19   5.78996080E+06   3.66023427E+08   1.89523497E+07   0.13635662      
  97               4.56126023E+02   1.23693369E+01   3305.16415641    1.01608272E-04   2.71068606E+19   4.98725707E+06   3.66920150E+08   1.52375137E+07   0.13523155      
  98               5.55026396E+02   1.36243509E+01   3348.56904336    1.10165759E-04   2.94701539E+19   4.29541006E+06   3.67722781E+08   1.14863219E+07   0.1342352       
  99               6.75371026E+02   1.49984791E+01   3391.80216361    1.19402895E-04   3.20289387E+19   3.69751202E+06   3.68449136E+08   7.69749527E+06   0.13337265      
  100              8.21809604E+02   1.65029188E+01   3435.29144364    1.29353553E-04   3.47954946E+19   3.18591231E+06   3.69106169E+08   3.86936763E+06   0.13260574      
  101              1.00000000E+03   1.81500654E+01   3478.69191189    1.40094831E-04   3.77909723E+19   2.94165156E+06   3.69460933E+08   0.00000000E+00   0.1319454       
