# ATMO pressure-temperature profile
# Effective temperature = 1400.0K
# log(g) = 5.5cm/s^2
# M/H = 0.0
# Optical depth grid in band 17 (1.20-1.33microns)
# All parameters in cgs units
#
# Model Level      Optical Depth    Pressure         Temperature      Density          Number Density   Rad Flux         Conv Flux        Radial Extension Adiabatic Gradient
#                                   [Ba]             [K]              [g/cm^3]         [/cm^3]          [ergs/s/cm^2/sr] [ergs/s/cm^2/sr] [cm]             [K/Ba]          
  1                1.00000000E-07   1.00000000E-05   423.96420505     6.68304220E-10   1.70842787E+14   2.17814623E+08   0.00000000E+00   2.24460126E+06   0.29752286      
  2                1.25892541E-07   2.33841728E-05   456.81160134     1.45040141E-09   3.70775241E+14   2.17814623E+08   0.00000000E+00   2.20161195E+06   0.29744209      
  3                1.58489319E-07   3.96991396E-05   462.47689091     2.43217261E-09   6.21751579E+14   2.17814623E+08   0.00000000E+00   2.17414282E+06   0.29743699      
  4                1.99526231E-07   5.99426313E-05   474.54473276     3.57900235E-09   9.14922875E+14   2.17814623E+08   0.00000000E+00   2.15244545E+06   0.29749789      
  5                2.51188643E-07   8.51119318E-05   477.55963226     5.04970704E-09   1.29088834E+15   2.17814623E+08   0.00000000E+00   2.13372324E+06   0.29747857      
  6                3.16227766E-07   1.16437048E-04   488.48615300     6.75370790E-09   1.72649278E+15   2.17814623E+08   0.00000000E+00   2.11676079E+06   0.29755729      
  7                3.98107171E-07   1.55418244E-04   491.48023118     8.95982021E-09   2.29045510E+15   2.17814623E+08   0.00000000E+00   2.10091426E+06   0.29753385      
  8                5.01187234E-07   2.03938293E-04   502.14429474     1.15073044E-08   2.94168447E+15   2.17814623E+08   0.00000000E+00   2.08580355E+06   0.29911247      
  9                6.30957344E-07   2.64301418E-04   505.52885087     1.48134736E-08   3.78686120E+15   2.17814623E+08   0.00000000E+00   2.07118324E+06   0.2991439       
  10               7.94328235E-07   3.39400264E-04   516.23290457     1.86281555E-08   4.76203225E+15   2.17814623E+08   0.00000000E+00   2.05688707E+06   0.29904698      
  11               1.00000000E-06   4.32802691E-04   520.08179304     2.35787985E-08   6.02759608E+15   2.17814623E+08   0.00000000E+00   2.04279378E+06   0.29907437      
  12               1.25892541E-06   5.48988241E-04   530.85684193     2.93014426E-08   7.49051129E+15   2.17814623E+08   0.00000000E+00   2.02881572E+06   0.2989741       
  13               1.58489319E-06   6.93471274E-04   535.09644886     3.67197566E-08   9.38690120E+15   2.17814623E+08   0.00000000E+00   2.01488664E+06   0.29899752      
  14               1.99526231E-06   8.73158262E-04   545.95358046     4.53148594E-08   1.15841211E+16   2.17814623E+08   0.00000000E+00   2.00095679E+06   0.29889363      
  15               2.51188643E-06   1.09655481E-03   550.55447748     5.64330395E-08   1.44263308E+16   2.17814623E+08   0.00000000E+00   1.98698702E+06   0.29891345      
  16               3.16227766E-06   1.37427835E-03   561.57762635     6.93375210E-08   1.77251839E+16   2.17814623E+08   0.00000000E+00   1.97294719E+06   0.29880055      
  17               3.98107171E-06   1.71941043E-03   566.53676215     8.59913709E-08   2.19825111E+16   2.17814623E+08   0.00000000E+00   1.95881291E+06   0.29881791      
  18               5.01187234E-06   2.14824703E-03   577.79079144     1.05345749E-07   2.69301916E+16   2.17814623E+08   0.00000000E+00   1.94456484E+06   0.29869397      
  19               6.30957344E-06   2.68090234E-03   583.00411705     1.30290517E-07   3.33069766E+16   2.17814623E+08   0.00000000E+00   1.93018741E+06   0.29871109      
  20               7.94328235E-06   3.34241824E-03   594.39728807     1.59326279E-07   4.07295689E+16   2.17814623E+08   0.00000000E+00   1.91566829E+06   0.298572        
  21               1.00000000E-05   4.16374744E-03   599.73211363     1.96711852E-07   5.02866743E+16   2.17814623E+08   0.00000000E+00   1.90099734E+06   0.29859004      
  22               1.25892541E-05   5.18339845E-03   611.16368779     2.40303755E-07   6.14303361E+16   2.17814623E+08   0.00000000E+00   1.88616683E+06   0.29843765      
  23               1.58489319E-05   6.44901087E-03   616.45427543     2.96411986E-07   7.57736276E+16   2.17814623E+08   0.00000000E+00   1.87117093E+06   0.29845783      
  24               1.99526231E-05   8.01995846E-03   627.87806989     3.61909807E-07   9.25172348E+16   2.17814623E+08   0.00000000E+00   1.85600344E+06   0.29828849      
  25               2.51188643E-05   9.97025916E-03   633.07756861     4.46224166E-07   1.14071029E+17   2.17814623E+08   0.00000000E+00   1.84065639E+06   0.2983127       
  26               3.16227766E-05   1.23920005E-02   644.45466244     5.44819672E-07   1.39275554E+17   2.17814623E+08   0.00000000E+00   1.82512449E+06   0.29812771      
  27               3.98107171E-05   1.53992195E-02   649.65356627     6.71615384E-07   1.71689100E+17   2.17814623E+08   0.00000000E+00   1.80940355E+06   0.29815632      
  28               5.01187234E-05   1.91332244E-02   661.21450845     8.19878734E-07   2.09590518E+17   2.17814623E+08   0.00000000E+00   1.79349100E+06   0.29796783      
  29               6.30957344E-05   2.37682409E-02   666.58887498     1.01028250E-06   2.58264563E+17   2.17814623E+08   0.00000000E+00   1.77738621E+06   0.2980389       
  30               7.94328235E-05   2.95191838E-02   678.62224944     1.23248219E-06   3.15066400E+17   2.17814623E+08   0.00000000E+00   1.76108847E+06   0.29778917      
  31               1.00000000E-04   3.66498645E-02   684.64790277     1.51673435E-06   3.87731362E+17   2.17814623E+08   0.00000000E+00   1.74459599E+06   0.29780643      
  32               1.25892541E-04   4.54830591E-02   697.62865136     1.84726853E-06   4.72227417E+17   2.17814623E+08   0.00000000E+00   1.72790823E+06   0.29754504      
  33               1.58489319E-04   5.64118854E-02   704.66887579     2.26824611E-06   5.79844263E+17   2.17814623E+08   0.00000000E+00   1.71102470E+06   0.29757751      
  34               1.99526231E-04   6.99158464E-02   719.08520995     2.75487655E-06   7.04240671E+17   2.17814623E+08   0.00000000E+00   1.69394165E+06   0.29729225      
  35               2.51188643E-04   8.65727803E-02   727.67368560     3.37094980E-06   8.61728655E+17   2.17814623E+08   0.00000000E+00   1.67665671E+06   0.2973202       
  36               3.16227766E-04   1.07078627E-01   743.89076461     4.07850707E-06   1.04260419E+18   2.17814622E+08   0.00000000E+00   1.65916827E+06   0.29692539      
  37               3.98107171E-04   1.32269017E-01   754.44972608     4.96747116E-06   1.26985362E+18   2.17814622E+08   0.00000000E+00   1.64147058E+06   0.29687417      
  38               5.01187234E-04   1.63155403E-01   772.89704698     5.98121932E-06   1.52899354E+18   2.17814621E+08   0.00000000E+00   1.62355195E+06   0.29642013      
  39               6.30957344E-04   2.00956161E-01   785.88873898     7.24519686E-06   1.85210711E+18   2.17814621E+08   0.00000000E+00   1.60539342E+06   0.29637653      
  40               7.94328235E-04   2.47138459E-01   806.95994390     8.67757281E-06   2.21826893E+18   2.17814620E+08   0.00000000E+00   1.58697505E+06   0.29586748      
  41               1.00000000E-03   3.03441142E-01   822.95582674     1.04473915E-05   2.67069184E+18   2.17814619E+08   0.00000000E+00   1.56827572E+06   0.29578168      
  42               1.25892541E-03   3.71908437E-01   847.23289314     1.24377882E-05   3.17950170E+18   2.17814617E+08   0.00000000E+00   1.54928210E+06   0.29511507      
  43               1.58489319E-03   4.54885462E-01   866.73261475     1.48705472E-05   3.80139288E+18   2.17814615E+08   0.00000000E+00   1.52998807E+06   0.29489103      
  44               1.99526231E-03   5.55147858E-01   894.72463349     1.75804392E-05   4.49412465E+18   2.17814613E+08   0.00000000E+00   1.51037888E+06   0.29400316      
  45               2.51188643E-03   6.75784983E-01   918.37759354     2.08496414E-05   5.32982681E+18   2.17814610E+08   0.00000000E+00   1.49045302E+06   0.29366774      
  46               3.16227766E-03   8.20303314E-01   950.64791599     2.44494731E-05   6.25000846E+18   2.17814607E+08   0.00000000E+00   1.47021168E+06   0.29259772      
  47               3.98107171E-03   9.92861193E-01   979.08997659     2.87336067E-05   7.34499951E+18   2.17814605E+08   0.00000000E+00   1.44962408E+06   0.29213849      
  48               5.01187234E-03   1.19843150E+00   1016.30648200    3.34126049E-05   8.54111085E+18   2.17814600E+08   0.00000000E+00   1.42864385E+06   0.29086056      
  49               6.30957344E-03   1.44240511E+00   1050.01259188    3.89234929E-05   9.94989696E+18   2.17814600E+08   0.00000000E+00   1.40725035E+06   0.29022952      
  50               7.94328235E-03   1.73071784E+00   1092.27949080    4.48958757E-05   1.14767344E+19   2.17814598E+08   0.00000000E+00   1.38544040E+06   0.28867605      
  51               1.00000000E-02   2.07007827E+00   1130.95670154    5.18620084E-05   1.32576524E+19   2.17814599E+08   0.00000000E+00   1.36320047E+06   0.28779867      
  52               1.25892541E-02   2.46889274E+00   1177.78573506    5.93932141E-05   1.51831461E+19   2.17814603E+08   0.00000000E+00   1.34047682E+06   0.28587009      
  53               1.58489319E-02   2.93707285E+00   1220.78310698    6.81669448E-05   1.74261740E+19   2.17814607E+08   0.00000000E+00   1.31720889E+06   0.28467684      
  54               1.99526231E-02   3.48677803E+00   1271.35711463    7.77066535E-05   1.98647262E+19   2.17814616E+08   0.00000000E+00   1.29332450E+06   0.28244148      
  55               2.51188643E-02   4.13677700E+00   1317.59590076    8.89603792E-05   2.27407987E+19   2.17814620E+08   0.00000000E+00   1.26860236E+06   0.28105882      
  56               3.16227766E-02   4.92252582E+00   1371.05532011    1.01731401E-04   2.60051201E+19   2.17814631E+08   0.00000000E+00   1.24248308E+06   0.27867946      
  57               3.98107171E-02   5.89225509E+00   1419.97070250    1.17572821E-04   3.00557795E+19   2.17814635E+08   0.00000000E+00   1.21444333E+06   0.27719426      
  58               5.01187234E-02   7.09846996E+00   1476.18273690    1.36240083E-04   3.48297587E+19   2.17814638E+08   0.00000000E+00   1.18430463E+06   0.27460265      
  59               6.30957344E-02   8.57079964E+00   1528.08681939    1.58906667E-04   4.06255406E+19   2.17814643E+08   0.00000000E+00   1.15266108E+06   0.27296803      
  60               7.94328235E-02   1.03262093E+01   1587.18138527    1.84330076E-04   4.71237890E+19   2.17814638E+08   0.00000000E+00   1.12022577E+06   0.27035582      
  61               1.00000000E-01   1.23354523E+01   1641.34640302    2.13016938E-04   5.44353061E+19   2.17814637E+08   0.00000000E+00   1.08815880E+06   0.26876628      
  62               1.25892541E-01   1.45372781E+01   1700.86248626    2.42260578E-04   6.19069969E+19   2.17814641E+08   0.00000000E+00   1.05750824E+06   0.2661814       
  63               1.58489319E-01   1.68574815E+01   1754.29483334    2.72429167E-04   6.96010748E+19   2.17805365E+08   0.00000000E+00   1.02894760E+06   0.26454372      
  64               1.99526231E-01   1.91016130E+01   1811.67890244    2.99115034E-04   7.63685695E+19   2.16440344E+08   1.37871972E+06   1.00408613E+06   0.26198287      
  65               2.51188643E-01   2.11915803E+01   1862.67076110    3.23060744E-04   8.24049094E+19   2.09513005E+08   8.31452070E+06   9.82824241E+05   0.26051631      
  66               3.16227766E-01   2.31317317E+01   1904.32172543    3.44911708E-04   8.79819663E+19   2.00501315E+08   1.73256945E+07   9.64444471E+05   0.25851415      
  67               3.98107171E-01   2.47884065E+01   1939.71279495    3.62961902E-04   9.25629141E+19   1.90508693E+08   2.72958389E+07   9.49637351E+05   0.25751514      
  68               5.01187234E-01   2.61069650E+01   1964.59309658    3.77420258E-04   9.62519667E+19   1.81069739E+08   3.67083880E+07   9.38371696E+05   0.25579228      
  69               6.30957344E-01   2.76608485E+01   1994.88473244    3.93801697E-04   1.00432328E+20   1.71042977E+08   4.67287405E+07   9.25625888E+05   0.25505214      
  70               7.94328235E-01   2.94768528E+01   2026.37861516    4.13105175E-04   1.05362571E+20   1.58576508E+08   5.91953912E+07   9.11387918E+05   0.25377226      
  71               1.00000000E+00   3.08250911E+01   2050.47930038    4.27303907E-04   1.08886696E+20   1.46162750E+08   7.16226691E+07   9.01238860E+05   0.25369518      
  72               1.25892541E+00   3.17974034E+01   2065.71386063    4.37523939E-04   1.11492931E+20   1.36216433E+08   8.15785244E+07   8.94127764E+05   0.25231372      
  73               1.58489319E+00   3.29722632E+01   2085.61650952    4.49349805E-04   1.14509137E+20   1.27475845E+08   9.03171996E+07   8.85748748E+05   0.25224014      
  74               1.99526231E+00   3.43826127E+01   2106.84886908    4.63835028E-04   1.18203771E+20   1.19058117E+08   9.87328285E+07   8.75979686E+05   0.25054566      
  75               2.51188643E+00   3.60699494E+01   2133.07125687    4.80597428E-04   1.22480234E+20   1.11120846E+08   1.06667463E+08   8.64678356E+05   0.25019845      
  76               3.16227766E+00   3.80756649E+01   2161.32377968    5.00667332E-04   1.27600831E+20   1.03118435E+08   1.14667169E+08   8.51748184E+05   0.24816343      
  77               3.98107171E+00   4.04451489E+01   2194.54675201    5.23741556E-04   1.33489603E+20   9.53683247E+07   1.22414223E+08   8.37115597E+05   0.24750042      
  78               5.01187234E+00   4.32271330E+01   2230.28281011    5.50757501E-04   1.40385526E+20   8.74157433E+07   1.30363889E+08   8.20735498E+05   0.24497736      
  79               6.30957344E+00   4.64755322E+01   2270.55400270    5.81588458E-04   1.48258081E+20   7.98055087E+07   1.37970978E+08   8.02585268E+05   0.24393632      
  80               7.94328235E+00   5.02486173E+01   2313.69549026    6.17007312E-04   1.57305445E+20   7.20077032E+07   1.45766105E+08   7.82667319E+05   0.24090567      
  81               1.00000000E+01   5.46113252E+01   2360.53274185    6.57243545E-04   1.67570871E+20   6.46679427E+07   1.53103227E+08   7.61002129E+05   0.23916967      
  82               1.25892541E+01   5.96364648E+01   2410.45072520    7.02732904E-04   1.79200606E+20   5.75585025E+07   1.60210682E+08   7.37619594E+05   0.23597464      
  83               1.58489319E+01   6.54080266E+01   2463.19623608    7.54075157E-04   1.92334802E+20   5.11710032E+07   1.66596483E+08   7.12547361E+05   0.23351897      
  84               1.99526231E+01   7.20181239E+01   2519.01762369    8.11666999E-04   2.07079180E+20   4.52147901E+07   1.72551476E+08   6.85828731E+05   0.23023024      
  85               2.51188643E+01   7.95762879E+01   2576.94095021    8.76412941E-04   2.23668615E+20   3.97745144E+07   1.77990770E+08   6.57490285E+05   0.22700954      
  86               3.16227766E+01   8.82119595E+01   2637.71709980    9.48773162E-04   2.42228419E+20   3.48823850E+07   1.82882121E+08   6.27542536E+05   0.22375185      
  87               3.98107171E+01   9.80765619E+01   2700.33535048    1.02994699E-03   2.63071239E+20   3.03839959E+07   1.87379902E+08   5.95985577E+05   0.22011359      
  88               5.01187234E+01   1.09347973E+02   2765.42440658    1.12068713E-03   2.86401169E+20   2.63535166E+07   1.91409878E+08   5.62808850E+05   0.21640221      
  89               6.30957344E+01   1.22233418E+02   2832.12051303    1.22249065E-03   3.12610864E+20   2.27552458E+07   1.95007817E+08   5.27995974E+05   0.21267221      
  90               7.94328235E+01   1.36971368E+02   2901.12054734    1.33634687E-03   3.41971456E+20   1.96656481E+07   1.98097588E+08   4.91532260E+05   0.20903743      
  91               1.00000000E+02   1.53830062E+02   2971.56291889    1.46405247E-03   3.74957570E+20   1.69910209E+07   2.00773608E+08   4.53417532E+05   0.2055344       
  92               1.25892541E+02   1.73110808E+02   3044.16355192    1.60675789E-03   4.11890752E+20   1.46301443E+07   2.03138859E+08   4.13663803E+05   0.2018435       
  93               1.58489319E+02   1.95116887E+02   3117.64369017    1.76649338E-03   4.53308873E+20   1.25113980E+07   2.05266769E+08   3.72357198E+05   0.19830888      
  94               1.99526231E+02   2.20155195E+02   3192.80801952    1.94399560E-03   4.99438448E+20   1.06375977E+07   2.07156771E+08   3.29629442E+05   0.19493053      
  95               2.51188643E+02   2.48559801E+02   3268.29385711    2.14142104E-03   5.50852893E+20   8.99243174E+06   2.08828456E+08   2.85604469E+05   0.19176779      
  96               3.16227766E+02   2.80695923E+02   3345.07640017    2.35951212E-03   6.07793293E+20   7.61548825E+06   2.10246725E+08   2.40393806E+05   0.18888471      
  97               3.98107171E+02   3.16955115E+02   3421.85333439    2.60069951E-03   6.70906830E+20   6.44905513E+06   2.11474263E+08   1.94105471E+05   0.18632542      
  98               5.01187234E+02   3.57756089E+02   3499.74089101    2.86559699E-03   7.40418023E+20   5.44582183E+06   2.12564207E+08   1.46841745E+05   0.18396185      
  99               6.30957344E+02   4.03551665E+02   3577.33413997    3.15705740E-03   8.17081684E+20   4.56430206E+06   2.13563191E+08   9.86930294E+04   0.18178545      
  100              7.94328235E+02   4.54840214E+02   3655.87408998    3.47569844E-03   9.01142484E+20   3.80655032E+06   2.14474252E+08   4.97299804E+04   0.17969564      
  101              1.00000000E+03   5.12179338E+02   3733.89703944    3.82510735E-03   9.93540457E+20   3.43803958E+06   2.14958085E+08   0.00000000E+00   0.17785962      
