# ATMO pressure-temperature profile
# Effective temperature = 1300.0K
# log(g) = 5.5cm/s^2
# M/H = 0.0
# Optical depth grid in band 17 (1.20-1.33microns)
# All parameters in cgs units
#
# Model Level      Optical Depth    Pressure         Temperature      Density          Number Density   Rad Flux         Conv Flux        Radial Extension Adiabatic Gradient
#                                   [Ba]             [K]              [g/cm^3]         [/cm^3]          [ergs/s/cm^2/sr] [ergs/s/cm^2/sr] [cm]             [K/Ba]          
  1                1.00000000E-07   1.00000000E-05   370.67420949     7.64344012E-10   1.95404009E+14   1.61949992E+08   0.00000000E+00   2.12986097E+06   0.29858533      
  2                1.25892541E-07   2.23614983E-05   412.97284390     1.53412549E-09   3.92197883E+14   1.61949992E+08   0.00000000E+00   2.09376187E+06   0.29765441      
  3                1.58489319E-07   3.73080677E-05   415.56431136     2.54358248E-09   6.50264960E+14   1.61949992E+08   0.00000000E+00   2.06983487E+06   0.29764427      
  4                1.99526231E-07   5.58196991E-05   431.87062388     3.66199730E-09   9.36180663E+14   1.61949992E+08   0.00000000E+00   2.05065422E+06   0.29749387      
  5                2.51188643E-07   7.88118796E-05   431.07906796     5.17987131E-09   1.32422136E+15   1.61949992E+08   0.00000000E+00   2.03396017E+06   0.29750869      
  6                3.16227766E-07   1.07451269E-04   444.64253243     6.84675453E-09   1.75035599E+15   1.61949992E+08   0.00000000E+00   2.01875252E+06   0.29744204      
  7                3.98107171E-07   1.43126514E-04   443.69458108     9.13945313E-09   2.33647861E+15   1.61949991E+08   0.00000000E+00   2.00449105E+06   0.29957504      
  8                5.01187234E-07   1.87595903E-04   456.70446206     1.16378385E-08   2.97518472E+15   1.61949991E+08   0.00000000E+00   1.99085574E+06   0.29947385      
  9                6.30957344E-07   2.42997369E-04   456.26321247     1.50893446E-08   3.85755349E+15   1.61949991E+08   0.00000000E+00   1.97763518E+06   0.29949447      
  10               7.94328235E-07   3.12034574E-04   469.17776487     1.88429781E-08   4.81716070E+15   1.61949991E+08   0.00000000E+00   1.96468806E+06   0.29940535      
  11               1.00000000E-06   3.98000003E-04   469.44223472     2.40206743E-08   6.14082549E+15   1.61949991E+08   0.00000000E+00   1.95191025E+06   0.29942007      
  12               1.25892541E-06   5.05053030E-04   482.39833413     2.96630257E-08   7.58327877E+15   1.61949991E+08   0.00000000E+00   1.93922793E+06   0.29933644      
  13               1.58489319E-06   6.38265333E-04   483.34184734     3.74137427E-08   9.56472964E+15   1.61949991E+08   0.00000000E+00   1.92658287E+06   0.29934621      
  14               1.99526231E-06   8.04033503E-04   496.34617358     4.58958852E-08   1.17331685E+16   1.61949991E+08   0.00000000E+00   1.91393263E+06   0.29926739      
  15               2.51188643E-06   1.01016509E-03   497.87993203     5.74846711E-08   1.46958116E+16   1.61949991E+08   0.00000000E+00   1.90124204E+06   0.29927321      
  16               3.16227766E-06   1.26647785E-03   510.96728120     7.02245250E-08   1.79527237E+16   1.61949991E+08   0.00000000E+00   1.88848501E+06   0.29919357      
  17               3.98107171E-06   1.58500976E-03   512.96840048     8.75438545E-08   2.23803651E+16   1.61949991E+08   0.00000000E+00   1.87563818E+06   0.29919821      
  18               5.01187234E-06   1.98095390E-03   526.15188418     1.06671294E-07   2.72702474E+16   1.61949991E+08   0.00000000E+00   1.86268140E+06   0.29911653      
  19               6.30957344E-06   2.47298691E-03   528.47341876     1.32581532E-07   3.38941314E+16   1.61949990E+08   0.00000000E+00   1.84959775E+06   0.29912125      
  20               7.94328235E-06   3.08453678E-03   541.68850458     1.61333549E-07   4.12445123E+16   1.61949988E+08   0.00000000E+00   1.83637481E+06   0.29903447      
  21               1.00000000E-05   3.84448748E-03   544.16099374     2.00168364E-07   5.11725293E+16   1.61949986E+08   0.00000000E+00   1.82300191E+06   0.29904038      
  22               1.25892541E-05   4.78891877E-03   557.45390348     2.43395704E-07   6.22234876E+16   1.61949984E+08   0.00000000E+00   1.80947134E+06   0.29894904      
  23               1.58489319E-05   5.96236719E-03   559.97276169     3.01672876E-07   7.71218885E+16   1.61949980E+08   0.00000000E+00   1.79577705E+06   0.29895627      
  24               1.99526231E-05   7.42033582E-03   573.38387121     3.66659156E-07   9.37354628E+16   1.61949976E+08   0.00000000E+00   1.78191432E+06   0.29885613      
  25               2.51188643E-05   9.23137055E-03   575.95584284     4.54110453E-07   1.16092145E+17   1.61949971E+08   0.00000000E+00   1.76787925E+06   0.29886461      
  26               3.16227766E-05   1.14807380E-02   589.46672355     5.51816923E-07   1.41070547E+17   1.61949965E+08   0.00000000E+00   1.75366964E+06   0.29875554      
  27               3.98107171E-05   1.42739097E-02   591.97054784     6.83167842E-07   1.74650038E+17   1.61949959E+08   0.00000000E+00   1.73928376E+06   0.29876432      
  28               5.01187234E-05   1.77417109E-02   605.69708715     8.29897776E-07   2.12161146E+17   1.61949952E+08   0.00000000E+00   1.72471984E+06   0.29867355      
  29               6.30957344E-05   2.20453467E-02   608.25578392     1.02686973E-06   2.62516452E+17   1.61949946E+08   0.00000000E+00   1.70997753E+06   0.29866792      
  30               7.94328235E-05   2.73832982E-02   622.44175758     1.24644095E-06   3.18649231E+17   1.61949942E+08   0.00000000E+00   1.69505711E+06   0.29850247      
  31               1.00000000E-04   3.40001742E-02   625.48549510     1.54009909E-06   3.93722051E+17   1.61949940E+08   0.00000000E+00   1.67995482E+06   0.29851508      
  32               1.25892541E-04   4.21977288E-02   640.61904522     1.86626821E-06   4.77106211E+17   1.61949940E+08   0.00000000E+00   1.66466428E+06   0.29837593      
  33               1.58489319E-04   5.23442135E-02   644.54731401     2.30090560E-06   5.88219903E+17   1.61949943E+08   0.00000000E+00   1.64918042E+06   0.29837916      
  34               1.99526231E-04   6.48907571E-02   661.09564115     2.78101590E-06   7.10958723E+17   1.61949949E+08   0.00000000E+00   1.63349584E+06   0.2981969       
  35               2.51188643E-04   8.03839456E-02   666.45013860     3.41732900E-06   8.73629915E+17   1.61949959E+08   0.00000000E+00   1.61760321E+06   0.29818677      
  36               3.16227766E-04   9.94875585E-02   684.70139673     4.11673312E-06   1.05243043E+18   1.61949975E+08   0.00000000E+00   1.60149691E+06   0.2979531       
  37               3.98107171E-04   1.22998833E-01   691.84927188     5.03703229E-06   1.28770191E+18   1.61950001E+08   0.00000000E+00   1.58516968E+06   0.29790463      
  38               5.01187234E-04   1.51885514E-01   712.17614309     6.04247126E-06   1.54473780E+18   1.61950043E+08   0.00000000E+00   1.56861187E+06   0.2976026       
  39               6.30957344E-04   1.87287183E-01   721.56449566     7.35391407E-06   1.88000386E+18   1.61950104E+08   0.00000000E+00   1.55181775E+06   0.29751828      
  40               7.94328235E-04   2.30567177E-01   744.26480690     8.77724942E-06   2.24386042E+18   1.61950194E+08   0.00000000E+00   1.53478247E+06   0.2971274       
  41               1.00000000E-03   2.83327418E-01   756.34681123     1.06134362E-05   2.71327282E+18   1.61950320E+08   0.00000000E+00   1.51749627E+06   0.29703182      
  42               1.25892541E-03   3.47512783E-01   781.87074843     1.25929362E-05   3.21930155E+18   1.61950493E+08   0.00000000E+00   1.49993948E+06   0.29659895      
  43               1.58489319E-03   4.25424351E-01   797.18326473     1.51201256E-05   3.86536057E+18   1.61950725E+08   0.00000000E+00   1.48208444E+06   0.29641412      
  44               1.99526231E-03   5.19831739E-01   826.08284048     1.78291385E-05   4.55790250E+18   1.61951031E+08   0.00000000E+00   1.46390154E+06   0.29577027      
  45               2.51188643E-03   6.33901217E-01   845.36822628     2.12454953E-05   5.43127140E+18   1.61951422E+08   0.00000000E+00   1.44536747E+06   0.29546062      
  46               3.16227766E-03   7.71269304E-01   878.30120692     2.48801993E-05   6.36045826E+18   1.61951911E+08   0.00000000E+00   1.42647340E+06   0.29464358      
  47               3.98107171E-03   9.35884298E-01   902.14164151     2.93926674E-05   7.51403599E+18   1.61952493E+08   0.00000000E+00   1.40722374E+06   0.2942224       
  48               5.01187234E-03   1.13239290E+00   939.55947487     3.41480767E-05   8.72968760E+18   1.61953144E+08   0.00000000E+00   1.38760915E+06   0.29318724      
  49               6.30957344E-03   1.36609500E+00   968.38824616     3.99694797E-05   1.02177961E+19   1.61953822E+08   0.00000000E+00   1.36760521E+06   0.29259742      
  50               7.94328235E-03   1.64322944E+00   1010.55468960    4.60727091E-05   1.17778014E+19   1.61954479E+08   0.00000000E+00   1.34718289E+06   0.29131036      
  51               1.00000000E-02   1.97061518E+00   1044.37908567    5.34622703E-05   1.36668837E+19   1.61954992E+08   0.00000000E+00   1.32632289E+06   0.29053006      
  52               1.25892541E-02   2.35663693E+00   1091.10772092    6.11962913E-05   1.56441110E+19   1.61955254E+08   0.00000000E+00   1.30498136E+06   0.28894635      
  53               1.58489319E-02   2.81017264E+00   1129.39055349    7.04994449E-05   1.80224857E+19   1.61955159E+08   0.00000000E+00   1.28314621E+06   0.2879075       
  54               1.99526231E-02   3.34179690E+00   1179.88301238    8.02477380E-05   2.05147837E+19   1.61954661E+08   0.00000000E+00   1.26079527E+06   0.28595684      
  55               2.51188643E-02   3.96458710E+00   1221.42118156    9.19659549E-05   2.35103100E+19   1.61953724E+08   0.00000000E+00   1.23787014E+06   0.28466235      
  56               3.16227766E-02   4.69648423E+00   1274.69533050    1.04394538E-04   2.66865427E+19   1.61952224E+08   0.00000000E+00   1.21424915E+06   0.28247188      
  57               3.98107171E-02   5.56275618E+00   1318.63433407    1.19539803E-04   3.05556471E+19   1.61950155E+08   0.00000000E+00   1.18972688E+06   0.28103494      
  58               5.01187234E-02   6.60890610E+00   1374.38078733    1.36268437E-04   3.48295887E+19   1.61947874E+08   0.00000000E+00   1.16380622E+06   0.27869274      
  59               6.30957344E-02   7.89091259E+00   1420.69108325    1.57392022E-04   4.02303135E+19   1.61945623E+08   0.00000000E+00   1.13612368E+06   0.27715858      
  60               7.94328235E-02   9.48252935E+00   1479.18051457    1.81646519E-04   4.64332260E+19   1.61943642E+08   0.00000000E+00   1.10635624E+06   0.27463334      
  61               1.00000000E-01   1.14261758E+01   1528.34186842    2.11831922E-04   5.41509686E+19   1.61941974E+08   0.00000000E+00   1.07502258E+06   0.2730208       
  62               1.25892541E-01   1.37459575E+01   1589.51278161    2.45026741E-04   6.26378457E+19   1.61940870E+08   0.00000000E+00   1.04282283E+06   0.27047456      
  63               1.58489319E-01   1.63986485E+01   1640.55719746    2.83341570E-04   7.24006593E+19   1.61940562E+08   0.00000000E+00   1.01098361E+06   0.26884619      
  64               1.99526231E-01   1.93461335E+01   1701.95480472    3.22206803E-04   8.23326315E+19   1.61940981E+08   0.00000000E+00   9.80135174E+05   0.26631373      
  65               2.51188643E-01   2.25189791E+01   1753.07695461    3.64156351E-04   9.30408260E+19   1.62018470E+08   0.00000000E+00   9.50843494E+05   0.26469351      
  66               3.16227766E-01   2.57102461E+01   1815.04491604    4.01762955E-04   1.02599371E+20   1.61019513E+08   9.62238239E+05   9.24458582E+05   0.26217623      
  67               3.98107171E-01   2.85979358E+01   1866.42812103    4.35123802E-04   1.10981159E+20   1.53549686E+08   8.27084858E+06   9.02616038E+05   0.26048285      
  68               5.01187234E-01   3.10253444E+01   1906.10004311    4.62219388E-04   1.17895373E+20   1.45025710E+08   1.66433291E+07   8.85499617E+05   0.2585756       
  69               6.30957344E-01   3.38100188E+01   1949.00417258    4.92595361E-04   1.25648840E+20   1.35307149E+08   2.62995744E+07   8.67044967E+05   0.25729604      
  70               7.94328235E-01   3.61755729E+01   1982.92987290    5.18183924E-04   1.32139878E+20   1.24447369E+08   3.70762386E+07   8.52238075E+05   0.25571173      
  71               1.00000000E+00   3.80742898E+01   2009.11277899    5.38261552E-04   1.37262952E+20   1.14681573E+08   4.67811740E+07   8.40869088E+05   0.25460719      
  72               1.25892541E+00   4.03143449E+01   2038.38141299    5.61730517E-04   1.43251770E+20   1.05266269E+08   5.61867721E+07   8.27986643E+05   0.25329246      
  73               1.58489319E+00   4.29365308E+01   2071.21564631    5.88741634E-04   1.50150739E+20   9.41612359E+07   6.73058967E+07   8.13567565E+05   0.25268206      
  74               1.99526231E+00   4.49554719E+01   2095.28675878    6.09860005E-04   1.55404980E+20   8.29121006E+07   7.86278311E+07   8.02911503E+05   0.25190357      
  75               2.51188643E+00   4.64745995E+01   2112.94519378    6.25186390E-04   1.59313751E+20   7.44203479E+07   8.71567284E+07   7.95131593E+05   0.25122864      
  76               3.16227766E+00   4.83078884E+01   2133.49181516    6.43572242E-04   1.64003423E+20   6.81626568E+07   9.33924806E+07   7.85991984E+05   0.25037951      
  77               3.98107171E+00   5.05110066E+01   2157.47046518    6.65420921E-04   1.69577022E+20   6.29743209E+07   9.85617194E+07   7.75345869E+05   0.249396        
  78               5.01187234E+00   5.31421488E+01   2184.84976531    6.91280402E-04   1.76174631E+20   5.83581491E+07   1.03161824E+08   7.63077996E+05   0.24830496      
  79               6.30957344E+00   5.62649114E+01   2216.04585199    7.21559646E-04   1.83901274E+20   5.40522387E+07   1.07455277E+08   7.49095776E+05   0.24697532      
  80               7.94328235E+00   5.99487098E+01   2250.86205561    7.56859468E-04   1.92910915E+20   4.99111486E+07   1.11587594E+08   7.33332276E+05   0.24549146      
  81               1.00000000E+01   6.42694106E+01   2289.60430177    7.97610189E-04   2.03315142E+20   4.58349448E+07   1.15659989E+08   7.15746888E+05   0.24343296      
  82               1.25892541E+01   6.93095633E+01   2331.78706503    8.44597438E-04   2.15293101E+20   4.19113640E+07   1.19583466E+08   6.96327390E+05   0.24188377      
  83               1.58489319E+01   7.51609360E+01   2377.96851578    8.97997423E-04   2.28934855E+20   3.80466768E+07   1.23454274E+08   6.75080440E+05   0.23935153      
  84               1.99526231E+01   8.19270397E+01   2427.02634165    9.58899575E-04   2.44499859E+20   3.43354913E+07   1.27175428E+08   6.52022735E+05   0.236985        
  85               2.51188643E+01   8.97232560E+01   2479.89796324    1.02755751E-03   2.62057777E+20   3.07871758E+07   1.30737353E+08   6.27185905E+05   0.2345008       
  86               3.16227766E+01   9.86795768E+01   2535.26099182    1.10518957E-03   2.81922958E+20   2.72656924E+07   1.34275363E+08   6.00608628E+05   0.23103036      
  87               3.98107171E+01   1.08954925E+02   2593.70061254    1.19243401E-03   3.04265606E+20   2.40985139E+07   1.37458183E+08   5.72303588E+05   0.22842418      
  88               5.01187234E+01   1.20735550E+02   2654.81904754    1.29049940E-03   3.29401884E+20   2.11085209E+07   1.40464876E+08   5.42272192E+05   0.22492122      
  89               6.30957344E+01   1.34243014E+02   2718.36808402    1.40075833E-03   3.57692038E+20   1.84734089E+07   1.43114865E+08   5.10502195E+05   0.22177437      
  90               7.94328235E+01   1.49733376E+02   2784.63072306    1.52447283E-03   3.89472544E+20   1.61351445E+07   1.45467063E+08   4.76980605E+05   0.21830267      
  91               1.00000000E+02   1.67504347E+02   2852.95605774    1.66361877E-03   4.25262256E+20   1.40541557E+07   1.47559900E+08   4.41692406E+05   0.21501207      
  92               1.25892541E+02   1.87899088E+02   2923.94704945    1.81965958E-03   4.65458546E+20   1.21822945E+07   1.49442444E+08   4.04624156E+05   0.2113949       
  93               1.58489319E+02   2.11314566E+02   2996.58024576    1.99530988E-03   5.10774682E+20   1.05040304E+07   1.51132625E+08   3.65763579E+05   0.20796161      
  94               1.99526231E+02   2.38199287E+02   3071.80173416    2.19217903E-03   5.61659508E+20   9.00184865E+06   1.52652101E+08   3.25112728E+05   0.20428727      
  95               2.51188643E+02   2.68998961E+02   3148.03726924    2.41334322E-03   6.18922936E+20   7.69178307E+06   1.53982738E+08   2.82767319E+05   0.20091895      
  96               3.16227766E+02   3.04186870E+02   3226.49555635    2.65976306E-03   6.82865597E+20   6.57943919E+06   1.55116671E+08   2.38846442E+05   0.19757736      
  97               3.98107171E+02   3.44271113E+02   3305.29742923    2.93500446E-03   7.54424663E+20   5.59633449E+06   1.56122523E+08   1.93477711E+05   0.19443677      
  98               5.01187234E+02   3.89795086E+02   3385.87841024    3.23977109E-03   8.33855583E+20   4.73428997E+06   1.57008843E+08   1.46791560E+05   0.19158478      
  99               6.30957344E+02   4.41337109E+02   3466.38654875    3.57797885E-03   9.22187635E+20   3.96865067E+06   1.57800948E+08   9.89180883E+04   0.1890772       
  100              7.94328235E+02   4.99516568E+02   3548.44217839    3.95000806E-03   1.01961920E+21   3.29411756E+06   1.58504626E+08   4.99783243E+04   0.18671919      
  101              1.00000000E+03   5.65112257E+02   3630.14642041    4.36123121E-03   1.12755160E+21   2.95313762E+06   1.58855374E+08   0.00000000E+00   0.18449865      
