# ATMO pressure-temperature profile
# Effective temperature = 550.0K
# log(g) = 4.0cm/s^2
# M/H = 0.0
# Optical depth grid in band 17 (1.20-1.33microns)
# All parameters in cgs units
#
# Model Level      Optical Depth    Pressure         Temperature      Density          Number Density   Rad Flux         Conv Flux        Radial Extension Adiabatic Gradient
#                                   [Ba]             [K]              [g/cm^3]         [/cm^3]          [ergs/s/cm^2/sr] [ergs/s/cm^2/sr] [cm]             [K/Ba]          
  1                5.00000000E-05   1.00000000E-05   84.28098068      3.36175221E-09   8.59401801E+14   5.18817833E+06   0.00000000E+00   3.40660284E+07   0.34574874      
  2                5.91534807E-05   2.23503197E-04   110.67067683     5.72198150E-08   1.46277326E+16   5.18817833E+06   0.00000000E+00   3.25266397E+07   0.31664035      
  3                6.99826855E-05   4.50160074E-04   132.40011803     9.63327288E-08   2.46265991E+16   5.18817833E+06   0.00000000E+00   3.22213524E+07   0.3238759       
  4                8.27943887E-05   7.02864356E-04   145.61792638     1.36757665E-07   3.49608930E+16   5.18817833E+06   0.00000000E+00   3.20011866E+07   0.32586585      
  5                9.79515255E-05   9.91031145E-04   157.78909034     1.77952465E-07   4.54921194E+16   5.18817833E+06   0.00000000E+00   3.18164657E+07   0.32568902      
  6                1.15883473E-04   1.32253306E-03   166.94793337     2.24446522E-07   5.73787826E+16   5.18817833E+06   0.00000000E+00   3.16505920E+07   0.32461331      
  7                1.37098216E-04   1.70597557E-03   176.52761794     2.73798715E-07   6.99980574E+16   5.18817833E+06   0.00000000E+00   3.14959141E+07   0.32352521      
  8                1.62196734E-04   2.15055880E-03   184.22810683     3.30683904E-07   8.45514913E+16   5.18817833E+06   0.00000000E+00   3.13481630E+07   0.3219233       
  9                1.91890027E-04   2.66665512E-03   192.81304884     3.91652492E-07   1.00174289E+17   5.18817833E+06   0.00000000E+00   3.12047548E+07   0.32072768      
  10               2.27019260E-04   3.26628010E-03   199.95663363     4.62823853E-07   1.18315992E+17   5.18817833E+06   0.00000000E+00   3.10639163E+07   0.31899564      
  11               2.68579588E-04   3.96391363E-03   208.14153994     5.39587302E-07   1.37940329E+17   5.18817833E+06   0.00000000E+00   3.09243153E+07   0.31779279      
  12               3.17748350E-04   4.77582587E-03   214.97338451     6.29450999E-07   1.60912443E+17   5.18817833E+06   0.00000000E+00   3.07850005E+07   0.31610125      
  13               3.75918418E-04   5.72071515E-03   222.90226994     7.27166687E-07   1.85892416E+17   5.18817833E+06   0.00000000E+00   3.06453370E+07   0.31493296      
  14               4.44737657E-04   6.82059361E-03   229.56689696     8.41804096E-07   2.15198257E+17   5.18817833E+06   0.00000000E+00   3.05047574E+07   0.31337403      
  15               5.26155608E-04   8.10108190E-03   237.25010400     9.67463868E-07   2.47321830E+17   5.18817833E+06   0.00000000E+00   3.03628671E+07   0.31233509      
  16               6.22478712E-04   9.59213932E-03   243.68382039     1.11528774E-06   2.85111426E+17   5.18817833E+06   0.00000000E+00   3.02193236E+07   0.31097707      
  17               7.36435649E-04   1.13285780E-02   251.25690965     1.27748418E-06   3.26575218E+17   5.18817833E+06   0.00000000E+00   3.00738487E+07   0.31008009      
  18               8.71254639E-04   1.33505496E-02   257.73759749     1.46763991E-06   3.75186504E+17   5.18817833E+06   0.00000000E+00   2.99261803E+07   0.30892002      
  19               1.03075489E-03   1.57050039E-02   265.39713376     1.67664054E-06   4.28615289E+17   5.18817833E+06   0.00000000E+00   2.97760873E+07   0.3081554       
  20               1.21945479E-03   1.84461575E-02   272.02891693     1.92127259E-06   4.91152864E+17   5.18817833E+06   0.00000000E+00   2.96233592E+07   0.30715453      
  21               1.44269991E-03   2.16368584E-02   279.90492355     2.19019010E-06   5.59898759E+17   5.18817833E+06   0.00000000E+00   2.94678161E+07   0.30653716      
  22               1.70681442E-03   2.53493592E-02   286.88528149     2.50355343E-06   6.40006755E+17   5.18817833E+06   0.00000000E+00   2.93092730E+07   0.30568586      
  23               2.01928028E-03   2.96684486E-02   295.10708191     2.84848116E-06   7.28183854E+17   5.18817833E+06   0.00000000E+00   2.91475369E+07   0.30508644      
  24               2.38894914E-03   3.46919661E-02   302.47330227     3.24967562E-06   8.30744940E+17   5.18817833E+06   0.00000000E+00   2.89824239E+07   0.30433677      
  25               2.82629313E-03   4.05326954E-02   311.16145952     3.69077724E-06   9.43507864E+17   5.18817833E+06   0.00000000E+00   2.88137732E+07   0.30382471      
  26               3.34370152E-03   4.73196276E-02   319.11093674     4.20143626E-06   1.07405240E+18   5.18817833E+06   0.00000000E+00   2.86414214E+07   0.30322817      
  27               3.95583167E-03   5.52014938E-02   328.44531270     4.76196190E-06   1.21734479E+18   5.18817833E+06   0.00000000E+00   2.84652087E+07   0.3028271       
  28               4.68002425E-03   6.43498025E-02   337.05913855     5.40927755E-06   1.38282414E+18   5.18817833E+06   0.00000000E+00   2.82849575E+07   0.30234144      
  29               5.53679448E-03   7.49621587E-02   347.09493256     6.11916242E-06   1.56429858E+18   5.18817833E+06   0.00000000E+00   2.81005001E+07   0.30199303      
  30               6.55041330E-03   8.72670650E-02   356.55116029     6.93468409E-06   1.77277801E+18   5.18817833E+06   0.00000000E+00   2.79116057E+07   0.30160164      
  31               7.74959494E-03   1.01526158E-01   367.66296335     7.82395490E-06   2.00011013E+18   5.18817833E+06   0.00000000E+00   2.77180235E+07   0.30131174      
  32               9.16831029E-03   1.18035331E-01   378.43680858     8.83724547E-06   2.25914699E+18   5.18817833E+06   0.00000000E+00   2.75194809E+07   0.30097155      
  33               1.08467493E-02   1.37129400E-01   390.97220825     9.93763085E-06   2.54044927E+18   5.18817833E+06   0.00000000E+00   2.73157305E+07   0.30071818      
  34               1.28324595E-02   1.59180878E-01   403.27599003     1.11837910E-05   2.85900142E+18   5.18817833E+06   0.00000000E+00   2.71065590E+07   0.30046941      
  35               1.51816929E-02   1.84602145E-01   417.49288018     1.25281855E-05   3.20267971E+18   5.18817833E+06   0.00000000E+00   2.68917964E+07   0.30032345      
  36               1.79609996E-02   2.13846404E-01   431.78784532     1.40324033E-05   3.58721477E+18   5.18817833E+06   0.00000000E+00   2.66712345E+07   0.30016971      
  37               2.12491128E-02   2.47436654E-01   448.32943823     1.56374981E-05   3.99753815E+18   5.18817833E+06   0.00000000E+00   2.64444760E+07   0.30002504      
  38               2.51391797E-02   2.85931919E-01   465.48200951     1.74043951E-05   4.44923739E+18   5.18817832E+06   0.00000000E+00   2.62111332E+07   0.29985221      
  39               2.97413996E-02   3.29900721E-01   485.93607786     1.92372069E-05   4.91733686E+18   5.18439071E+06   3.78765242E+03   2.59708323E+07   0.29973253      
  40               3.51861462E-02   3.79944529E-01   506.88239779     2.12398112E-05   5.42923731E+18   5.16555789E+06   2.26204203E+04   2.57232588E+07   0.2996475       
  41               4.16276604E-02   4.36833222E-01   528.58650037     2.34173193E-05   5.98584453E+18   5.13063303E+06   5.75453442E+04   2.54681755E+07   0.29954321      
  42               4.92484201E-02   5.01518675E-01   550.83625777     2.57989213E-05   6.59462994E+18   5.08012699E+06   1.08051325E+05   2.52050050E+07   0.29939785      
  43               5.82643093E-02   5.75047463E-01   573.93274611     2.83908816E-05   7.25719056E+18   5.01333366E+06   1.74844723E+05   2.49333190E+07   0.29923122      
  44               6.89307339E-02   6.58539599E-01   597.61367291     3.12245770E-05   7.98154946E+18   4.92977903E+06   2.58399292E+05   2.46528998E+07   0.29907783      
  45               8.15498567E-02   7.53191957E-01   622.17723119     3.43025023E-05   8.76834037E+18   4.83034298E+06   3.57835401E+05   2.43636851E+07   0.29891989      
  46               9.64791575E-02   8.60361976E-01   647.32976735     3.76607409E-05   9.62678936E+18   4.71934449E+06   4.68833852E+05   2.40655137E+07   0.29870217      
  47               1.14141560E-01   9.81780176E-01   673.43859744     4.13093776E-05   1.05594694E+19   4.60301731E+06   5.85161060E+05   2.37576808E+07   0.29841649      
  48               1.35037411E-01   1.11929322E+00   700.20333742     4.52951090E-05   1.15783197E+19   4.48629937E+06   7.01878993E+05   2.34397784E+07   0.29808446      
  49               1.59758657E-01   1.27480048E+00   727.96392783     4.96207636E-05   1.26840574E+19   4.37298825E+06   8.15190096E+05   2.31117637E+07   0.29773799      
  50               1.89005613E-01   1.45025890E+00   756.34672828     5.43319637E-05   1.38883434E+19   4.26718740E+06   9.20990987E+05   2.27738429E+07   0.29733103      
  51               2.23606798E-01   1.64787275E+00   785.70129922     5.94291241E-05   1.51911986E+19   4.17437403E+06   1.01380428E+06   2.24260741E+07   0.29683651      
  52               2.64542408E-01   1.87055654E+00   815.69831198     6.49792566E-05   1.66099038E+19   4.10078974E+06   1.08738865E+06   2.20677288E+07   0.29620214      
  53               3.12972084E-01   2.12156916E+00   846.76212070     7.09955492E-05   1.81477009E+19   4.05105608E+06   1.13712221E+06   2.16981620E+07   0.29548126      
  54               3.70267763E-01   2.40417904E+00   878.48920433     7.75470914E-05   1.98223992E+19   4.02935487E+06   1.15882352E+06   2.13172813E+07   0.29468252      
  55               4.38052539E-01   2.72161693E+00   911.25037291     8.46300234E-05   2.16329187E+19   4.03935199E+06   1.14882634E+06   2.09254367E+07   0.2938418       
  56               5.18246648E-01   3.07713010E+00   944.56229144     9.23105381E-05   2.35961471E+19   4.08302317E+06   1.10515517E+06   2.05232127E+07   0.29287346      
  57               6.13121862E-01   3.47482920E+00   978.84497396     1.00590795E-04   2.57125641E+19   4.16115262E+06   1.02702575E+06   2.01104978E+07   0.29182215      
  58               7.25365844E-01   3.91963592E+00   1013.68131510    1.09570871E-04   2.80072280E+19   4.27601480E+06   9.12163468E+05   1.96868100E+07   0.29062629      
  59               8.58158289E-01   4.41717618E+00   1049.54424918    1.19259778E-04   3.04838494E+19   4.42661162E+06   7.61566811E+05   1.92515651E+07   0.2893775       
  60               1.01526100E+00   4.97337551E+00   1085.98772911    1.29770303E-04   3.31705119E+19   4.60472163E+06   5.83456534E+05   1.88044742E+07   0.28802739      
  61               1.20112443E+00   5.59435511E+00   1123.45085456    1.41105608E-04   3.60679776E+19   4.80205309E+06   3.86125414E+05   1.83455747E+07   0.28666162      
  62               1.42101382E+00   6.28684599E+00   1161.45373726    1.53383907E-04   3.92063801E+19   5.00668194E+06   1.81496076E+05   1.78748661E+07   0.28520304      
  63               1.68115827E+00   7.05886716E+00   1200.48122319    1.66622801E-04   4.25897879E+19   5.18817845E+06   0.00000000E+00   1.73919494E+07   0.28400294      
  64               1.98892727E+00   7.92024296E+00   1239.75546451    1.81040029E-04   4.62730698E+19   5.18817834E+06   0.00000000E+00   1.68959987E+07   0.28266485      
  65               2.35303941E+00   8.88629592E+00   1274.49232703    1.97601099E-04   5.05020940E+19   5.18817829E+06   0.00000000E+00   1.63852351E+07   0.28151639      
  66               2.78380943E+00   9.97499815E+00   1311.61806256    2.15553862E-04   5.50847363E+19   5.18817834E+06   0.00000000E+00   1.58577153E+07   0.28018866      
  67               3.29344035E+00   1.12094156E+01   1345.60699405    2.36125161E-04   6.03379532E+19   5.18817828E+06   0.00000000E+00   1.53105534E+07   0.27903836      
  68               3.89636920E+00   1.26193520E+01   1383.15464145    2.58611277E-04   6.60833659E+19   5.18817833E+06   0.00000000E+00   1.47399839E+07   0.2776952       
  69               4.60967600E+00   1.42368210E+01   1418.60407694    2.84456499E-04   7.26905009E+19   5.18817826E+06   0.00000000E+00   1.41436252E+07   0.2764848       
  70               5.45356761E+00   1.60970201E+01   1458.48714324    3.12813307E-04   7.99408424E+19   5.18817834E+06   0.00000000E+00   1.35200153E+07   0.27501688      
  71               6.45195012E+00   1.82338799E+01   1496.98473108    3.45210619E-04   8.82241653E+19   5.18817828E+06   0.00000000E+00   1.28697442E+07   0.27367722      
  72               7.63310614E+00   2.06765473E+01   1540.31943691    3.80424520E-04   9.72283830E+19   5.18817828E+06   0.00000000E+00   1.21956943E+07   0.27211887      
  73               9.03049593E+00   2.34418786E+01   1582.66813859    4.19750805E-04   1.07282378E+20   5.18817834E+06   0.00000000E+00   1.15036706E+07   0.27068648      
  74               1.06837053E+01   2.65278225E+01   1630.01611972    4.61204668E-04   1.17878756E+20   5.18817795E+06   0.00000000E+00   1.08022935E+07   0.26904633      
  75               1.26395671E+01   2.98881958E+01   1676.52040958    5.05417458E-04   1.29126891E+20   5.18822502E+06   0.00000000E+00   1.01062275E+07   0.26752403      
  76               1.49534878E+01   3.34854942E+01   1728.05035430    5.49353460E-04   1.40354441E+20   5.13975084E+06   6.03980965E+04   9.42352712E+06   0.26577174      
  77               1.76910170E+01   3.72547548E+01   1777.61795211    5.94179023E-04   1.51799074E+20   4.71960119E+06   4.68574484E+05   8.76378097E+06   0.26411286      
  78               2.09297047E+01   4.11103360E+01   1824.26269286    6.39076193E-04   1.63226057E+20   4.21949684E+06   9.68678854E+05   8.13808198E+06   0.26248265      
  79               2.47612977E+01   4.48990968E+01   1866.87067345    6.82395567E-04   1.74200425E+20   3.62020668E+06   1.56796897E+06   7.56433929E+06   0.26105018      
  80               2.92943389E+01   4.83305875E+01   1902.96890087    7.21305791E-04   1.83956960E+20   3.00751488E+06   2.18066080E+06   7.07520211E+06   0.25974575      
  81               3.46572422E+01   5.12751815E+01   1932.38523237    7.53584656E-04   1.92193783E+20   2.66051500E+06   2.52766095E+06   6.67580945E+06   0.25876172      
  82               4.10019301E+01   5.45315171E+01   1963.34872884    7.88782862E-04   2.01175910E+20   2.52693559E+06   2.66124094E+06   6.25344749E+06   0.25764396      
  83               4.85081376E+01   5.81186497E+01   1995.77567012    8.26977015E-04   2.10925764E+20   2.23585466E+06   2.95232357E+06   5.80930493E+06   0.25647971      
  84               5.73885036E+01   6.10605040E+01   2021.12848146    8.58180138E-04   2.18822665E+20   1.82687028E+06   3.36131527E+06   5.46008116E+06   0.25552876      
  85               6.78945948E+01   6.33311684E+01   2040.06255574    8.81817281E-04   2.24853605E+20   1.61116452E+06   3.57703868E+06   5.19906071E+06   0.25483701      
  86               8.03240320E+01   6.59060808E+01   2060.84650012    9.08397895E-04   2.31635800E+20   1.55049235E+06   3.63773123E+06   4.91136377E+06   0.25403945      
  87               9.50289215E+01   6.88140683E+01   2083.55087241    9.38123294E-04   2.39220815E+20   1.48610857E+06   3.70214143E+06   4.59635352E+06   0.25320061      
  88               1.12425830E+02   7.20860098E+01   2108.15061930    9.71237336E-04   2.47671018E+20   1.41762359E+06   3.77066281E+06   4.25357540E+06   0.25221395      
  89               1.33007583E+02   7.57527975E+01   2134.65094794    1.00790503E-03   2.57038184E+20   1.24910085E+06   3.93917610E+06   3.88296848E+06   0.25121945      
  90               1.57357229E+02   7.84755467E+01   2153.61210185    1.03582134E-03   2.63932400E+20   1.01625593E+06   4.17194034E+06   3.61646326E+06   0.25041838      
  91               1.86164557E+02   8.04405649E+01   2166.99001244    1.05518520E-03   2.68871049E+20   9.04316502E+05   4.28385588E+06   3.42850566E+06   0.24988157      
  92               2.20245630E+02   8.26998734E+01   2182.01347135    1.07733099E-03   2.74519536E+20   8.78633599E+05   4.30953868E+06   3.21660287E+06   0.24920424      
  93               2.60565913E+02   8.52895190E+01   2198.83093606    1.10254242E-03   2.80950407E+20   8.51000957E+05   4.33717140E+06   2.97899096E+06   0.24852221      
  94               3.08267614E+02   8.82483460E+01   2217.51315392    1.13114914E-03   2.88247938E+20   8.20597228E+05   4.36757528E+06   2.71404206E+06   0.24763668      
  95               3.64702046E+02   9.16181075E+01   2238.15319131    1.16347484E-03   2.96494982E+20   7.88384013E+05   4.39978842E+06   2.42030353E+06   0.2467786       
  96               4.31467909E+02   9.54435282E+01   2260.82293504    1.19985573E-03   3.05777675E+20   7.53629370E+05   4.43454300E+06   2.09653368E+06   0.24565777      
  97               5.10456573E+02   9.97726047E+01   2285.52796517    1.24066557E-03   3.16191805E+20   7.17520969E+05   4.47065162E+06   1.74171733E+06   0.24462938      
  98               6.03905660E+02   1.04656783E+02   2312.36753489    1.28622525E-03   3.27820687E+20   6.78766683E+05   4.50940608E+06   1.35507809E+06   0.24324347      
  99               7.14462436E+02   1.10150870E+02   2341.20988671    1.33712353E-03   3.40779468E+20   6.38891233E+05   4.54928145E+06   9.36124951E+05   0.2420254       
  100              8.45258798E+02   1.16315148E+02   2372.23839261    1.39338553E-03   3.55143433E+20   5.98133908E+05   4.59003887E+06   4.84517250E+05   0.2403329       
  101              1.00000000E+03   1.23215746E+02   2405.13451600    1.45574325E-03   3.71067296E+20   5.76428901E+05   4.61174389E+06   0.00000000E+00   0.23895495      
