# ATMO pressure-temperature profile
# Effective temperature = 1800.0K
# log(g) = 4.0cm/s^2
# M/H = 0.0
# Optical depth grid in band 17 (1.20-1.33microns)
# All parameters in cgs units
#
# Model Level      Optical Depth    Pressure         Temperature      Density          Number Density   Rad Flux         Conv Flux        Radial Extension Adiabatic Gradient
#                                   [Ba]             [K]              [g/cm^3]         [/cm^3]          [ergs/s/cm^2/sr] [ergs/s/cm^2/sr] [cm]             [K/Ba]          
  1                1.00000000E-06   1.00000000E-05   444.93799476     6.37147269E-10   1.62789484E+14   5.95203358E+08   0.00000000E+00   7.46283367E+07   0.2980103       
  2                1.23026877E-06   1.71557267E-05   500.80425531     9.71136416E-10   2.48122957E+14   5.95203358E+08   0.00000000E+00   7.37186454E+07   0.29792866      
  3                1.51356125E-06   2.54345424E-05   525.43538714     1.37228234E-09   3.50614965E+14   5.95203358E+08   0.00000000E+00   7.30015014E+07   0.29774599      
  4                1.86208714E-06   3.52968069E-05   545.58603217     1.83404726E-09   4.68595393E+14   5.95203358E+08   0.00000000E+00   7.23798461E+07   0.29763241      
  5                2.29086765E-06   4.71350812E-05   560.61420369     2.38351520E-09   6.08984168E+14   5.95203358E+08   0.00000000E+00   7.18136404E+07   0.29739658      
  6                2.81838293E-06   6.13936503E-05   576.22331336     3.02043302E-09   7.71717716E+14   5.95203358E+08   0.00000000E+00   7.12822272E+07   0.29727932      
  7                3.46736850E-06   7.85939784E-05   588.91142983     3.78333663E-09   9.66640816E+14   5.95203358E+08   0.00000000E+00   7.07734065E+07   0.29699646      
  8                4.26579519E-06   9.93625212E-05   603.00630264     4.67125832E-09   1.19351145E+15   5.95203358E+08   0.00000000E+00   7.02793784E+07   0.29687233      
  9                5.24807460E-06   1.24450976E-04   614.70796056     5.73934399E-09   1.46640965E+15   5.95203358E+08   0.00000000E+00   6.97948422E+07   0.29693989      
  10               6.45654229E-06   1.54770306E-04   628.02562032     6.98617353E-09   1.78499137E+15   5.95203358E+08   0.00000000E+00   6.93160259E+07   0.29685002      
  11               7.94328235E-06   1.91438776E-04   639.19771678     8.49024129E-09   2.16930458E+15   5.95203358E+08   0.00000000E+00   6.88399096E+07   0.29659427      
  12               9.77237221E-06   2.35812317E-04   652.24547832     1.02489016E-08   2.61867287E+15   5.95203358E+08   0.00000000E+00   6.83642177E+07   0.29649802      
  13               1.20226443E-05   2.89519580E-04   663.43302851     1.23708144E-08   3.16087041E+15   5.95203358E+08   0.00000000E+00   6.78872431E+07   0.29622051      
  14               1.47910839E-05   3.54521086E-04   676.68154017     1.48514360E-08   3.79475360E+15   5.95203358E+08   0.00000000E+00   6.74076863E+07   0.29611618      
  15               1.81970086E-05   4.33172707E-04   688.13478511     1.78440494E-08   4.55946003E+15   5.95203358E+08   0.00000000E+00   6.69245421E+07   0.29581205      
  16               2.23872114E-05   5.28313166E-04   701.63074825     2.13442977E-08   5.45391871E+15   5.95203358E+08   0.00000000E+00   6.64370388E+07   0.29569884      
  17               2.75422870E-05   6.43354273E-04   713.27305548     2.55675383E-08   6.53311362E+15   5.95203358E+08   0.00000000E+00   6.59445825E+07   0.29536889      
  18               3.38844156E-05   7.82403133E-04   726.92704658     3.05090212E-08   7.79588803E+15   5.95203358E+08   0.00000000E+00   6.54467206E+07   0.2952472       
  19               4.16869383E-05   9.50387864E-04   738.70863941     3.64680451E-08   9.31866165E+15   5.95203358E+08   0.00000000E+00   6.49431047E+07   0.29488762      
  20               5.12861384E-05   1.15322518E-03   752.52362016     4.34384458E-08   1.10999193E+16   5.95203358E+08   0.00000000E+00   6.44334752E+07   0.29475606      
  21               6.30957344E-05   1.39804300E-03   764.44900411     5.18381135E-08   1.32463995E+16   5.95203358E+08   0.00000000E+00   6.39175565E+07   0.29436579      
  22               7.76247117E-05   1.69362951E-03   778.42733619     6.16701648E-08   1.57589100E+16   5.95203358E+08   0.00000000E+00   6.33947720E+07   0.29422369      
  23               9.54992586E-05   2.05059810E-03   790.50996160     7.35267545E-08   1.87888000E+16   5.95203358E+08   0.00000000E+00   6.28646574E+07   0.29380069      
  24               1.17489755E-04   2.48170040E-03   804.70659940     8.74148203E-08   2.23376575E+16   5.95203358E+08   0.00000000E+00   6.23269259E+07   0.29364823      
  25               1.44543977E-04   3.00225943E-03   816.99153595     1.04160175E-07   2.66168404E+16   5.95203358E+08   0.00000000E+00   6.17813859E+07   0.29319017      
  26               1.77827941E-04   3.63058739E-03   831.53607264     1.23758448E-07   3.16243524E+16   5.95203358E+08   0.00000000E+00   6.12279734E+07   0.29302502      
  27               2.18776162E-04   4.38860849E-03   844.20998135     1.47351259E-07   3.76532264E+16   5.95203359E+08   0.00000000E+00   6.06666451E+07   0.29252938      
  28               2.69153480E-04   5.30260899E-03   859.24649777     1.74923013E-07   4.46989862E+16   5.95203359E+08   0.00000000E+00   6.00973387E+07   0.29234845      
  29               3.31131121E-04   6.40364460E-03   872.57709430     2.08016194E-07   5.31556279E+16   5.95203359E+08   0.00000000E+00   5.95201347E+07   0.29180794      
  30               4.07380278E-04   7.72846952E-03   888.50900003     2.46549022E-07   6.30024600E+16   5.95203359E+08   0.00000000E+00   5.89351314E+07   0.29160442      
  31               5.01187234E-04   9.32039847E-03   902.79197539     2.92628834E-07   7.47777907E+16   5.95203360E+08   0.00000000E+00   5.83424606E+07   0.29146351      
  32               6.16595002E-04   1.12302985E-02   919.84721034     3.46054107E-07   8.84303701E+16   5.95203360E+08   0.00000000E+00   5.77422826E+07   0.29120626      
  33               7.58577575E-04   1.35185251E-02   935.37922517     4.09645995E-07   1.04680896E+17   5.95203361E+08   0.00000000E+00   5.71345358E+07   0.29042354      
  34               9.33254301E-04   1.62586792E-02   953.94469766     4.83089230E-07   1.23449093E+17   5.95203362E+08   0.00000000E+00   5.65185694E+07   0.290032        
  35               1.14815362E-03   1.95373154E-02   971.06393380     5.70270700E-07   1.45727966E+17   5.95203363E+08   0.00000000E+00   5.58939161E+07   0.28914436      
  36               1.41253754E-03   2.34553868E-02   991.47776621     6.70535723E-07   1.71350533E+17   5.95203364E+08   0.00000000E+00   5.52603078E+07   0.28874381      
  37               1.73780083E-03   2.81291506E-02   1010.78338569    7.88786698E-07   2.01569289E+17   5.95203365E+08   0.00000000E+00   5.46176555E+07   0.28779737      
  38               2.13796209E-03   3.36918507E-02   1033.74126626    9.23788566E-07   2.36068942E+17   5.95203366E+08   0.00000000E+00   5.39659977E+07   0.28736828      
  39               2.63026799E-03   4.02942136E-02   1055.71540246    1.08181826E-06   2.76453229E+17   5.95203367E+08   0.00000000E+00   5.33055537E+07   0.28646077      
  40               3.23593657E-03   4.81047053E-02   1081.66020202    1.26053231E-06   3.22123603E+17   5.95203368E+08   0.00000000E+00   5.26367106E+07   0.2860223       
  41               3.98107171E-03   5.73074749E-02   1107.04321339    1.46724645E-06   3.74949293E+17   5.95203368E+08   0.00000000E+00   5.19600201E+07   0.2850168       
  42               4.89778819E-03   6.81030948E-02   1136.79468739    1.69801002E-06   4.33920983E+17   5.95203369E+08   0.00000000E+00   5.12760676E+07   0.28440441      
  43               6.02559586E-03   8.07369053E-02   1166.07149677    1.96246380E-06   5.01502103E+17   5.95203368E+08   0.00000000E+00   5.05839762E+07   0.28314338      
  44               7.41310241E-03   9.54909796E-02   1200.13357666    2.25520907E-06   5.76313246E+17   5.95203368E+08   0.00000000E+00   4.98826537E+07   0.28225895      
  45               9.12010839E-03   1.12664331E-01   1234.25908168    2.58722146E-06   6.61159057E+17   5.95203367E+08   0.00000000E+00   4.91716941E+07   0.2805338       
  46               1.12201845E-02   1.32571554E-01   1273.60077460    2.95032683E-06   7.53950566E+17   5.95203365E+08   0.00000000E+00   4.84511527E+07   0.27926843      
  47               1.38038426E-02   1.55526958E-01   1313.26106889    3.35666199E-06   8.57788950E+17   5.95203362E+08   0.00000000E+00   4.77217015E+07   0.27771017      
  48               1.69824365E-02   1.81838617E-01   1358.47647423    3.79392758E-06   9.69526840E+17   5.95203360E+08   0.00000000E+00   4.69843906E+07   0.2765407       
  49               2.08929613E-02   2.11793422E-01   1404.47724008    4.27428985E-06   1.09225389E+18   5.95203357E+08   0.00000000E+00   4.62405280E+07   0.27426225      
  50               2.57039578E-02   2.45754721E-01   1456.75412474    4.78204679E-06   1.22191628E+18   5.95203357E+08   0.00000000E+00   4.54893323E+07   0.27181559      
  51               3.16227766E-02   2.83762854E-01   1514.61525057    5.31224091E-06   1.35699753E+18   5.94253429E+08   9.52528175E+05   4.47351910E+07   0.26950427      
  52               3.89045145E-02   3.24676272E-01   1570.30574296    5.86383792E-06   1.49758738E+18   5.91899372E+08   3.30930278E+06   4.40021102E+07   0.26752044      
  53               4.78630092E-02   3.66625858E-01   1622.07912069    6.41289832E-06   1.63710637E+18   5.88472665E+08   6.72730823E+06   4.33179900E+07   0.26583651      
  54               5.88843655E-02   4.07577794E-01   1668.17870232    6.93821247E-06   1.76967608E+18   5.84354075E+08   1.08486985E+07   4.27040045E+07   0.26419055      
  55               7.24435960E-02   4.45320207E-01   1707.60511878    7.40531717E-06   1.88890795E+18   5.79941999E+08   1.52661226E+07   4.21774608E+07   0.26275112      
  56               8.91250938E-02   4.77346133E-01   1738.91271764    7.80247121E-06   1.98829795E+18   5.75632640E+08   1.96914591E+07   4.17560699E+07   0.26159232      
  57               1.09647820E-01   5.01340339E-01   1761.37899075    8.08995601E-06   2.06160604E+18   5.72102733E+08   2.32748329E+07   4.14540624E+07   0.26044104      
  58               1.34896288E-01   5.28882411E-01   1785.98415119    8.41655621E-06   2.14490155E+18   5.67900262E+08   2.73348295E+07   4.11202852E+07   0.25907862      
  59               1.65958691E-01   5.60552432E-01   1813.08400823    8.78683679E-06   2.23936122E+18   5.62747294E+08   3.24908075E+07   4.07520161E+07   0.25755489      
  60               2.04173794E-01   5.96683599E-01   1842.35914470    9.20405627E-06   2.34582519E+18   5.56405420E+08   3.88387950E+07   4.03502468E+07   0.25579894      
  61               2.51188643E-01   6.37465066E-01   1873.73049523    9.66777621E-06   2.46419518E+18   5.48757166E+08   4.64895890E+07   3.99179214E+07   0.25376705      
  62               3.09029543E-01   6.83128962E-01   1906.73920069    1.01800050E-05   2.59499928E+18   5.39970445E+08   5.52627874E+07   3.94576259E+07   0.25143357      
  63               3.80189396E-01   7.34650723E-01   1941.81685270    1.07487322E-05   2.74030236E+18   5.30132619E+08   6.50861938E+07   3.89650884E+07   0.24887458      
  64               4.67735141E-01   7.93145081E-01   1978.96517036    1.13850055E-05   2.90295513E+18   5.18807351E+08   7.64065901E+07   3.84363141E+07   0.24593249      
  65               5.75439937E-01   8.59369387E-01   2018.19932250    1.20934813E-05   3.08419382E+18   5.05523243E+08   8.96839992E+07   3.78719268E+07   0.24256037      
  66               7.07945784E-01   9.34177099E-01   2059.14632581    1.28817156E-05   3.28600218E+18   4.89968784E+08   1.05230072E+08   3.72725687E+07   0.23878632      
  67               8.70963590E-01   1.01853192E+00   2101.81531269    1.37557015E-05   3.50999042E+18   4.71927590E+08   1.23261213E+08   3.66388670E+07   0.23469517      
  68               1.07151931E+00   1.11351918E+00   2145.83800870    1.47246624E-05   3.75860430E+18   4.51248229E+08   1.43929697E+08   3.59714380E+07   0.23023589      
  69               1.31825674E+00   1.22036368E+00   2191.19895459    1.57964509E-05   4.03397594E+18   4.27867762E+08   1.67298055E+08   3.52708635E+07   0.22556323      
  70               1.62181010E+00   1.34044335E+00   2237.57197043    1.69821414E-05   4.33907634E+18   4.01755858E+08   1.93396697E+08   3.45377035E+07   0.22052688      
  71               1.99526231E+00   1.47531079E+00   2284.87824166    1.82921843E-05   4.67677306E+18   3.72913017E+08   2.22226201E+08   3.37724873E+07   0.2151339       
  72               2.45470892E+00   1.62651230E+00   2332.71391108    1.97407242E-05   5.05035275E+18   3.41576424E+08   2.53549137E+08   3.29767660E+07   0.20948158      
  73               3.01995172E+00   1.79600103E+00   2381.05276811    2.13369552E-05   5.46340505E+18   3.08654870E+08   2.86457318E+08   3.21509170E+07   0.20393969      
  74               3.71535229E+00   1.98616339E+00   2429.77570253    2.31002702E-05   5.92072141E+18   2.74940132E+08   3.20159948E+08   3.12943563E+07   0.19834819      
  75               4.57088190E+00   2.19940713E+00   2478.76141271    2.50470033E-05   6.42682894E+18   2.40985674E+08   3.54103324E+08   3.04078152E+07   0.1928456       
  76               5.62341325E+00   2.43841238E+00   2527.89037841    2.71951930E-05   6.98674282E+18   2.07654309E+08   3.87424731E+08   2.94920311E+07   0.18757418      
  77               6.91830971E+00   2.70614264E+00   2577.12527791    2.95635643E-05   7.60573155E+18   1.76292754E+08   4.18777614E+08   2.85477895E+07   0.18246451      
  78               8.51138038E+00   3.00586356E+00   2626.31966976    3.21738435E-05   8.28986611E+18   1.48009522E+08   4.47053734E+08   2.75759428E+07   0.17749777      
  79               1.04712855E+01   3.34115715E+00   2675.43559621    3.50481416E-05   9.04540968E+18   1.23577827E+08   4.71479577E+08   2.65774332E+07   0.1729086       
  80               1.28824955E+01   3.71591656E+00   2724.46375175    3.82094883E-05   9.87894936E+18   1.03111419E+08   4.91941742E+08   2.55533254E+07   0.16845181      
  81               1.58489319E+01   4.13439647E+00   2773.23944726    4.16852448E-05   1.07981807E+19   8.63742479E+07   5.08676471E+08   2.45047270E+07   0.16428352      
  82               1.94984460E+01   4.60115792E+00   2821.85448278    4.54997572E-05   1.18102302E+19   7.27920877E+07   5.22257603E+08   2.34329345E+07   0.16051986      
  83               2.39883292E+01   5.12106405E+00   2870.21633391    4.96813925E-05   1.29232402E+19   6.16675703E+07   5.33381917E+08   2.23393937E+07   0.15715894      
  84               2.95120923E+01   5.69930526E+00   2918.43439794    5.42555620E-05   1.41448330E+19   5.24053184E+07   5.42645867E+08   2.12256084E+07   0.15404685      
  85               3.63078055E+01   6.34147109E+00   2966.33944734    5.92552022E-05   1.54844224E+19   4.46190535E+07   5.50436527E+08   2.00930173E+07   0.15122919      
  86               4.46683592E+01   7.05360296E+00   3014.09997674    6.47075175E-05   1.69503705E+19   3.80628296E+07   5.57000870E+08   1.89429294E+07   0.14870087      
  87               5.49540874E+01   7.84211410E+00   3061.55830329    7.06486942E-05   1.85530990E+19   3.24924005E+07   5.62585364E+08   1.77766855E+07   0.14635562      
  88               6.76082975E+01   8.71367576E+00   3108.82509372    7.71078183E-05   2.03016318E+19   2.77552643E+07   5.67344621E+08   1.65958004E+07   0.14420532      
  89               8.31763771E+01   9.67565921E+00   3155.76804977    8.41250139E-05   2.22075848E+19   2.37149523E+07   5.71416949E+08   1.54013550E+07   0.14230798      
  90               1.02329299E+02   1.07362318E+01   3202.58287786    9.17339365E-05   2.42816022E+19   2.02738222E+07   5.74901852E+08   1.41940331E+07   0.14066861      
  91               1.25892541E+02   1.19044460E+01   3249.17226167    9.99825409E-05   2.65376396E+19   1.73202891E+07   5.77913093E+08   1.29741859E+07   0.13920442      
  92               1.54881662E+02   1.31903945E+01   3295.71179981    1.08913520E-04   2.89890775E+19   1.47875862E+07   5.80519208E+08   1.17418463E+07   0.13789399      
  93               1.90546072E+02   1.46053376E+01   3342.11146398    1.18586025E-04   3.16531188E+19   1.26194317E+07   5.82777769E+08   1.04967845E+07   0.13674494      
  94               2.34422882E+02   1.61618324E+01   3388.57609932    1.29051727E-04   3.45461134E+19   1.07785578E+07   5.84727322E+08   9.23855906E+06   0.13575212      
  95               2.88403150E+02   1.78738479E+01   3435.02315240    1.40382168E-04   3.76889666E+19   9.20712488E+06   5.86425968E+08   7.96658269E+06   0.13487813      
  96               3.54813389E+02   1.97569516E+01   3481.64728193    1.52640894E-04   4.11018154E+19   7.86413834E+06   5.87914308E+08   6.68013557E+06   0.13411576      
  97               4.36515832E+02   2.18284845E+01   3528.36637131    1.65914535E-04   4.48100832E+19   6.71124515E+06   5.89229452E+08   5.37839895E+06   0.13347403      
  98               5.37031796E+02   2.41077504E+01   3575.39217286    1.80278922E-04   4.88381091E+19   5.72431312E+06   5.90394259E+08   4.06047843E+06   0.13295662      
  99               6.60693448E+02   2.66162094E+01   3622.64644761    1.95837384E-04   5.32164737E+19   4.87697409E+06   5.91432690E+08   2.72543451E+06   0.13254401      
  100              8.12830516E+02   2.93777528E+01   3670.33524662    2.12681254E-04   5.79747224E+19   4.15393732E+06   5.92355739E+08   1.37227712E+06   0.13221375      
  101              1.00000000E+03   3.24189376E+01   3718.36353085    2.30935303E-04   6.31499151E+19   3.81789370E+06   5.92853983E+08   0.00000000E+00   0.13196392      
