# ATMO pressure-temperature profile
# Effective temperature = 1200.0K
# log(g) = 5.0cm/s^2
# M/H = 0.0
# Optical depth grid in band 17 (1.20-1.33microns)
# All parameters in cgs units
#
# Model Level      Optical Depth    Pressure         Temperature      Density          Number Density   Rad Flux         Conv Flux        Radial Extension Adiabatic Gradient
#                                   [Ba]             [K]              [g/cm^3]         [/cm^3]          [ergs/s/cm^2/sr] [ergs/s/cm^2/sr] [cm]             [K/Ba]          
  1                1.00000000E-07   1.00000000E-05   324.02402930     8.74368367E-10   2.23536590E+14   1.17570814E+08   0.00000000E+00   6.08791328E+06   0.30001956      
  2                1.25892541E-07   1.52808293E-05   360.75926909     1.20005309E-09   3.06799936E+14   1.17570814E+08   0.00000000E+00   6.03636020E+06   0.29861296      
  3                1.58489319E-07   2.16669753E-05   366.40383012     1.67536456E-09   4.28315827E+14   1.17570814E+08   0.00000000E+00   5.99132169E+06   0.29837266      
  4                1.99526231E-07   2.95914815E-05   376.86416080     2.22460349E-09   5.68732059E+14   1.17570814E+08   0.00000000E+00   5.95027376E+06   0.29816367      
  5                2.51188643E-07   3.94506131E-05   379.61087159     2.94437276E-09   7.52732998E+14   1.17570814E+08   0.00000000E+00   5.91175104E+06   0.2980595       
  6                3.16227766E-07   5.17294470E-05   389.10281148     3.76661414E-09   9.62940176E+14   1.17570814E+08   0.00000000E+00   5.87488002E+06   0.29791298      
  7                3.98107171E-07   6.70208577E-05   391.86379467     4.84565548E-09   1.23879853E+15   1.17570814E+08   0.00000000E+00   5.83908722E+06   0.29783481      
  8                5.01187234E-07   8.60721718E-05   400.99645876     6.08134877E-09   1.55470524E+15   1.17570814E+08   0.00000000E+00   5.80399194E+06   0.29772572      
  9                6.30957344E-07   1.09800875E-04   404.01328732     7.69994928E-09   1.96850260E+15   1.17570814E+08   0.00000000E+00   5.76931585E+06   0.29766643      
  10               7.94328235E-07   1.39359231E-04   413.08626150     9.55809973E-09   2.44354774E+15   1.17570814E+08   0.00000000E+00   5.73486098E+06   0.29758468      
  11               1.00000000E-06   1.76160778E-04   416.57023089     1.19819219E-08   3.06299881E+15   1.17570814E+08   0.00000000E+00   5.70047181E+06   0.29975619      
  12               1.25892541E-06   2.21980741E-04   425.83812973     1.47698726E-08   3.77569226E+15   1.17570814E+08   0.00000000E+00   5.66602863E+06   0.29969144      
  13               1.58489319E-06   2.79004224E-04   429.92254915     1.83876572E-08   4.70052528E+15   1.17570814E+08   0.00000000E+00   5.63142655E+06   0.2996506       
  14               1.99526231E-06   3.49963367E-04   439.53533530     2.25599033E-08   5.76706214E+15   1.17570814E+08   0.00000000E+00   5.59658664E+06   0.29959282      
  15               2.51188643E-06   4.38210228E-04   444.28440064     2.79466595E-08   7.14409605E+15   1.17570814E+08   0.00000000E+00   5.56144146E+06   0.29955502      
  16               3.16227766E-06   5.48024728E-04   453.57403635     3.42342187E-08   8.75140552E+15   1.17570814E+08   0.00000000E+00   5.52593851E+06   0.29950433      
  17               3.98107171E-06   6.84644841E-04   458.60675456     4.22993176E-08   1.08131128E+16   1.17570814E+08   0.00000000E+00   5.49003658E+06   0.29946963      
  18               5.01187234E-06   8.54594561E-04   468.12666265     5.17255612E-08   1.32227743E+16   1.17570814E+08   0.00000000E+00   5.45370359E+06   0.2994236       
  19               6.30957344E-06   1.06594286E-03   473.43743748     6.37939961E-08   1.63078672E+16   1.17570814E+08   0.00000000E+00   5.41691135E+06   0.29938992      
  20               7.94328235E-06   1.32873409E-03   483.15526741     7.79219546E-08   1.99194433E+16   1.17570814E+08   0.00000000E+00   5.37963863E+06   0.29934556      
  21               1.00000000E-05   1.65540843E-03   488.61356851     9.59948954E-08   2.45394870E+16   1.17570814E+08   0.00000000E+00   5.34186741E+06   0.29931331      
  22               1.25892541E-05   2.06144366E-03   498.45215795     1.17180808E-07   2.99553107E+16   1.17570814E+08   0.00000000E+00   5.30358393E+06   0.29927023      
  23               1.58489319E-05   2.56604145E-03   503.88618959     1.44291164E-07   3.68856169E+16   1.17570814E+08   0.00000000E+00   5.26477808E+06   0.29923742      
  24               1.99526231E-05   3.19307407E-03   513.75391201     1.76101227E-07   4.50173256E+16   1.17570814E+08   0.00000000E+00   5.22544218E+06   0.29919389      
  25               2.51188643E-05   3.97228463E-03   519.22246146     2.16768138E-07   5.54131359E+16   1.17570814E+08   0.00000000E+00   5.18556027E+06   0.29916147      
  26               3.16227766E-05   4.94070151E-03   529.18585478     2.64538545E-07   6.76248367E+16   1.17570814E+08   0.00000000E+00   5.14511943E+06   0.29911689      
  27               3.98107171E-05   6.14425710E-03   534.65804243     3.25613109E-07   8.32375168E+16   1.17570814E+08   0.00000000E+00   5.10411123E+06   0.29908273      
  28               5.01187234E-05   7.63990740E-03   544.86014835     3.97293692E-07   1.01561449E+17   1.17570814E+08   0.00000000E+00   5.06252751E+06   0.29903605      
  29               6.30957344E-05   9.49822006E-03   550.46993125     4.88896905E-07   1.24978258E+17   1.17570814E+08   0.00000000E+00   5.02036230E+06   0.2990009       
  30               7.94328235E-05   1.18065136E-02   560.95652650     5.96349892E-07   1.52446797E+17   1.17570814E+08   0.00000000E+00   4.97761272E+06   0.29894995      
  31               1.00000000E-04   1.46726411E-02   566.85500409     7.33406972E-07   1.87483110E+17   1.17570814E+08   0.00000000E+00   4.93427437E+06   0.29890932      
  32               1.25892541E-04   1.82295387E-02   577.94561133     8.93711737E-07   2.28462302E+17   1.17570814E+08   0.00000000E+00   4.89034043E+06   0.29886681      
  33               1.58489319E-04   2.26403859E-02   584.41765538     1.09766369E-06   2.80599141E+17   1.17570814E+08   0.00000000E+00   4.84580675E+06   0.29884128      
  34               1.99526231E-04   2.81049495E-02   596.40846270     1.33520462E-06   3.41322448E+17   1.17570814E+08   0.00000000E+00   4.80066827E+06   0.29873211      
  35               2.51188643E-04   3.48673495E-02   603.91181122     1.63589066E-06   4.18187697E+17   1.17570814E+08   0.00000000E+00   4.75491208E+06   0.29865884      
  36               3.16227766E-04   4.32244408E-02   617.20095185     1.98431980E-06   5.07257686E+17   1.17570814E+08   0.00000000E+00   4.70852766E+06   0.29859394      
  37               3.98107171E-04   5.35355491E-02   626.05706202     2.42290986E-06   6.19375728E+17   1.17570814E+08   0.00000000E+00   4.66150243E+06   0.29852965      
  38               5.01187234E-04   6.62435953E-02   641.07053177     2.92783769E-06   7.48451944E+17   1.17570814E+08   0.00000000E+00   4.61378944E+06   0.29841434      
  39               6.30957344E-04   8.18840094E-02   651.75257447     3.55979771E-06   9.10001658E+17   1.17570814E+08   0.00000000E+00   4.56534298E+06   0.29831163      
  40               7.94328235E-04   1.01100132E-01   668.89300676     4.28256575E-06   1.09476501E+18   1.17570814E+08   0.00000000E+00   4.51612757E+06   0.29816918      
  41               1.00000000E-03   1.24661936E-01   681.86993294     5.18013954E-06   1.32421398E+18   1.17570814E+08   0.00000000E+00   4.46610272E+06   0.29801213      
  42               1.25892541E-03   1.53491054E-01   701.63699499     6.19840208E-06   1.58451526E+18   1.17570814E+08   0.00000000E+00   4.41522580E+06   0.29779931      
  43               1.58489319E-03   1.88661960E-01   717.44095514     7.45088812E-06   1.90468875E+18   1.17570814E+08   0.00000000E+00   4.36347229E+06   0.29756841      
  44               1.99526231E-03   2.31432619E-01   740.28940460     8.85795020E-06   2.26437774E+18   1.17570814E+08   0.00000000E+00   4.31082508E+06   0.29725424      
  45               2.51188643E-03   2.83263146E-01   759.59012014     1.05662981E-05   2.70107477E+18   1.17570814E+08   0.00000000E+00   4.25725061E+06   0.29697214      
  46               3.16227766E-03   3.45900846E-01   786.14534815     1.24670467E-05   3.18694534E+18   1.17570814E+08   0.00000000E+00   4.20267568E+06   0.29661189      
  47               3.98107171E-03   4.21415815E-01   809.55410394     1.47495816E-05   3.77042920E+18   1.17570814E+08   0.00000000E+00   4.14698771E+06   0.2961766       
  48               5.01187234E-03   5.12219475E-01   840.59632523     1.72656635E-05   4.41361492E+18   1.17570814E+08   0.00000000E+00   4.09008645E+06   0.29558168      
  49               6.30957344E-03   6.21005628E-01   869.02598975     2.02477818E-05   5.17593258E+18   1.17570814E+08   0.00000000E+00   4.03190383E+06   0.29493317      
  50               7.94328235E-03   7.50704631E-01   905.18351585     2.34989019E-05   6.00700922E+18   1.17570814E+08   0.00000000E+00   3.97244392E+06   0.2941266       
  51               1.00000000E-02   9.04359604E-01   938.89139850     2.72924537E-05   6.97672547E+18   1.17570814E+08   0.00000000E+00   3.91177002E+06   0.29324894      
  52               1.25892541E-02   1.08586781E+00   980.23376873     3.13889305E-05   8.02367150E+18   1.17570814E+08   0.00000000E+00   3.84975622E+06   0.2921705       
  53               1.58489319E-02   1.29973297E+00   1019.16514904    3.61356870E-05   9.23709504E+18   1.17570814E+08   0.00000000E+00   3.78625476E+06   0.29100421      
  54               1.99526231E-02   1.55094389E+00   1065.24025103    4.12544614E-05   1.05456744E+19   1.17570814E+08   0.00000000E+00   3.72119162E+06   0.28961749      
  55               2.51188643E-02   1.84487438E+00   1108.30882160    4.71652713E-05   1.20567943E+19   1.17570814E+08   0.00000000E+00   3.65455728E+06   0.28813648      
  56               3.16227766E-02   2.18826679E+00   1157.66373466    5.35581462E-05   1.36912683E+19   1.17570814E+08   0.00000000E+00   3.58623428E+06   0.28642382      
  57               3.98107171E-02   2.58969649E+00   1203.27775560    6.09793934E-05   1.55886612E+19   1.17570814E+08   0.00000000E+00   3.51599090E+06   0.28468165      
  58               5.01187234E-02   3.05955572E+00   1254.67799030    6.90912957E-05   1.76624899E+19   1.17570814E+08   0.00000000E+00   3.44360320E+06   0.28283965      
  59               6.30957344E-02   3.61187704E+00   1301.88261905    7.86079961E-05   2.00949518E+19   1.17570814E+08   0.00000000E+00   3.36865741E+06   0.28107209      
  60               7.94328235E-02   4.27256065E+00   1354.99214791    8.93437831E-05   2.28390112E+19   1.17570814E+08   0.00000000E+00   3.28982043E+06   0.27920772      
  61               1.00000000E-01   5.08416996E+00   1404.05663324    1.02596867E-04   2.62277644E+19   1.17570814E+08   0.00000000E+00   3.20504846E+06   0.27739083      
  62               1.25892541E-01   6.09839365E+00   1459.63275608    1.18371261E-04   3.02620046E+19   1.17570814E+08   0.00000000E+00   3.11301431E+06   0.27537811      
  63               1.58489319E-01   7.34775663E+00   1511.49895599    1.37723722E-04   3.52105453E+19   1.17570814E+08   0.00000000E+00   3.01516330E+06   0.27337762      
  64               1.99526231E-01   8.84951970E+00   1569.69971442    1.59721288E-04   4.08346616E+19   1.17570814E+08   0.00000000E+00   2.91390711E+06   0.27131255      
  65               2.51188643E-01   1.05868088E+01   1623.26549146    1.84853356E-04   4.72390717E+19   1.17570815E+08   0.00000000E+00   2.81279221E+06   0.26939904      
  66               3.16227766E-01   1.25194516E+01   1682.25746888    2.10934086E-04   5.39037128E+19   1.17570815E+08   0.00000000E+00   2.71491817E+06   0.26742692      
  67               3.98107171E-01   1.45787944E+01   1736.80841306    2.37956531E-04   6.07988740E+19   1.17571360E+08   0.00000000E+00   2.62299695E+06   0.26546829      
  68               5.01187234E-01   1.65903931E+01   1797.85411489    2.61745308E-04   6.68387114E+19   1.14937428E+08   2.63331369E+06   2.54238941E+06   0.26336096      
  69               6.30957344E-01   1.83847994E+01   1846.21535893    2.82779744E-04   7.21277483E+19   1.07594516E+08   9.97624806E+06   2.47642752E+06   0.26134745      
  70               7.94328235E-01   1.98874733E+01   1885.07570618    2.99578221E-04   7.64146542E+19   9.99898194E+07   1.75809536E+07   2.42479942E+06   0.2598699       
  71               1.00000000E+00   2.16166531E+01   1925.56984111    3.18766417E-04   8.13120700E+19   9.17861026E+07   2.57846801E+07   2.36884311E+06   0.25844244      
  72               1.25892541E+00   2.30987728E+01   1959.43283987    3.34832657E-04   8.53855468E+19   8.28288654E+07   3.47419153E+07   2.32347495E+06   0.25760262      
  73               1.58489319E+00   2.42981334E+01   1984.45779866    3.47768233E-04   8.86863709E+19   7.51594389E+07   4.26688103E+07   2.28832772E+06   0.2563326       
  74               1.99526231E+00   2.57028181E+01   2013.82861559    3.62496162E-04   9.24451378E+19   6.82809578E+07   4.92898304E+07   2.24876532E+06   0.25518227      
  75               2.51188643E+00   2.73514446E+01   2045.31669315    3.79786424E-04   9.68602410E+19   6.02506303E+07   5.73201892E+07   2.20433280E+06   0.25411188      
  76               3.16227766E+00   2.86589616E+01   2070.31904612    3.93463292E-04   1.00264920E+20   5.21058760E+07   6.54649398E+07   2.17050512E+06   0.25361475      
  77               3.98107171E+00   2.96713676E+01   2087.98817992    4.03906990E-04   1.02928434E+20   4.63051593E+07   7.12656349E+07   2.14510931E+06   0.2527005       
  78               5.01187234E+00   3.08889400E+01   2109.89634957    4.16103954E-04   1.06039513E+20   4.24055209E+07   7.51652740E+07   2.11540952E+06   0.25193266      
  79               6.30957344E+00   3.23436770E+01   2133.84931354    4.30795172E-04   1.09787143E+20   3.91839733E+07   7.83868222E+07   2.08104990E+06   0.25069961      
  80               7.94328235E+00   3.40747557E+01   2162.46358159    4.47826109E-04   1.14132620E+20   3.64919366E+07   8.10788591E+07   2.04163803E+06   0.24960951      
  81               1.00000000E+01   3.61215531E+01   2193.51057643    4.67981241E-04   1.19275851E+20   3.38961740E+07   8.36746216E+07   1.99692786E+06   0.24803251      
  82               1.25892541E+01   3.85268657E+01   2229.34410314    4.91085572E-04   1.25173504E+20   3.14653293E+07   8.61054658E+07   1.94675379E+06   0.24656825      
  83               1.58489319E+01   4.13370602E+01   2267.68407287    5.17952444E-04   1.32033117E+20   2.89437503E+07   8.86270445E+07   1.89103347E+06   0.24451449      
  84               1.99526231E+01   4.46031005E+01   2310.62315419    5.48427061E-04   1.39817576E+20   2.64965288E+07   9.10742656E+07   1.82975354E+06   0.24259518      
  85               2.51188643E+01   4.83800801E+01   2355.91122225    5.83411687E-04   1.48741960E+20   2.39464697E+07   9.36243241E+07   1.76297878E+06   0.24008419      
  86               3.16227766E+01   5.27309636E+01   2405.38156354    6.22692786E-04   1.58784304E+20   2.15740868E+07   9.59967065E+07   1.69079249E+06   0.23772524      
  87               3.98107171E+01   5.77269285E+01   2456.94732270    6.67242909E-04   1.70179971E+20   1.92273214E+07   9.83434712E+07   1.61328520E+06   0.23477441      
  88               5.01187234E+01   6.34477911E+01   2512.16903633    7.17060640E-04   1.82933603E+20   1.71009831E+07   1.00469808E+08   1.53057783E+06   0.2320097       
  89               6.30957344E+01   6.99860239E+01   2569.21256098    7.73151863E-04   1.97304561E+20   1.50968889E+07   1.02473901E+08   1.44276600E+06   0.22861479      
  90               7.94328235E+01   7.74521057E+01   2629.36729836    8.35740220E-04   2.13357450E+20   1.33212673E+07   1.04249521E+08   1.34988468E+06   0.22543974      
  91               1.00000000E+02   8.59744034E+01   2691.19618496    9.05983169E-04   2.31392699E+20   1.16616194E+07   1.05909166E+08   1.25194355E+06   0.22170647      
  92               1.25892541E+02   9.57037670E+01   2755.66002927    9.84395877E-04   2.51552846E+20   1.01806668E+07   1.07390116E+08   1.14891813E+06   0.21818208      
  93               1.58489319E+02   1.06814944E+02   2821.70937344    1.07230859E-03   2.74186191E+20   8.81617368E+06   1.08754608E+08   1.04076956E+06   0.21429769      
  94               1.99526231E+02   1.19511166E+02   2890.02360410    1.17056823E-03   2.99524901E+20   7.61286317E+06   1.09957918E+08   9.27445414E+05   0.21068742      
  95               2.51188643E+02   1.34024287E+02   2959.89455534    1.28068606E-03   3.27969233E+20   6.55313692E+06   1.11017643E+08   8.08910047E+05   0.20689606      
  96               3.16227766E+02   1.50614356E+02   3031.69915228    1.40382040E-03   3.59837240E+20   5.64044594E+06   1.11930334E+08   6.85179004E+05   0.2031634       
  97               3.98107171E+02   1.69548501E+02   3104.71464173    1.54152882E-03   3.95547009E+20   4.83097997E+06   1.12739801E+08   5.56466052E+05   0.19946078      
  98               5.01187234E+02   1.91088133E+02   3179.09970597    1.69474869E-03   4.35366901E+20   4.11204195E+06   1.13458739E+08   4.23200302E+05   0.19575041      
  99               6.30957344E+02   2.15517042E+02   3253.99405035    1.86505647E-03   4.79723179E+20   3.48209752E+06   1.14088684E+08   2.85791519E+05   0.19253353      
  100              7.94328235E+02   2.43142164E+02   3330.03294969    2.05323070E-03   5.28856184E+20   2.93080608E+06   1.14639976E+08   1.44619407E+05   0.18904141      
  101              1.00000000E+03   2.74305050E+02   3405.80274878    2.26153619E-03   5.83364707E+20   2.66323315E+06   1.14907549E+08   0.00000000E+00   0.18656095      
