# ATMO pressure-temperature profile
# Effective temperature = 1200.0K
# log(g) = 5.5cm/s^2
# M/H = 0.0
# Optical depth grid in band 17 (1.20-1.33microns)
# All parameters in cgs units
#
# Model Level      Optical Depth    Pressure         Temperature      Density          Number Density   Rad Flux         Conv Flux        Radial Extension Adiabatic Gradient
#                                   [Ba]             [K]              [g/cm^3]         [/cm^3]          [ergs/s/cm^2/sr] [ergs/s/cm^2/sr] [cm]             [K/Ba]          
  1                1.00000000E-07   1.00000000E-05   321.17723447     8.82074524E-10   2.25517935E+14   1.17600548E+08   0.00000000E+00   2.00193462E+06   0.30052969      
  2                1.25892541E-07   2.16830834E-05   365.01614147     1.68289990E-09   4.30263801E+14   1.17600548E+08   0.00000000E+00   1.97161137E+06   0.29880297      
  3                1.58489319E-07   3.57856454E-05   366.24919858     2.76809911E-09   7.07714365E+14   1.17600548E+08   0.00000000E+00   1.95094910E+06   0.29859899      
  4                1.99526231E-07   5.32649785E-05   382.91238838     3.94086278E-09   1.00755365E+15   1.17600548E+08   0.00000000E+00   1.93421361E+06   0.29825223      
  5                2.51188643E-07   7.49941656E-05   380.51475149     5.58360413E-09   1.42751874E+15   1.17600548E+08   0.00000000E+00   1.91956515E+06   0.29821479      
  6                3.16227766E-07   1.02064647E-04   395.06438438     7.31924012E-09   1.87125640E+15   1.17600548E+08   0.00000000E+00   1.90617438E+06   0.29798596      
  7                3.98107171E-07   1.35784640E-04   392.58305236     9.79891080E-09   2.50521462E+15   1.17600548E+08   0.00000000E+00   1.89358322E+06   0.30011149      
  8                5.01187234E-07   1.77823672E-04   406.37669562     1.23970793E-08   3.16946981E+15   1.17600548E+08   0.00000000E+00   1.88152165E+06   0.29997959      
  9                6.30957344E-07   2.30199123E-04   404.42567018     1.61258908E-08   4.12278599E+15   1.17600548E+08   0.00000000E+00   1.86980762E+06   0.29996662      
  10               7.94328235E-07   2.95476009E-04   417.99418425     2.00267586E-08   5.12009271E+15   1.17600548E+08   0.00000000E+00   1.85832100E+06   0.29985746      
  11               1.00000000E-06   3.76758703E-04   416.84235355     2.56065028E-08   6.54662242E+15   1.17600548E+08   0.00000000E+00   1.84697043E+06   0.29984248      
  12               1.25892541E-06   4.78001661E-04   430.44209299     3.14610041E-08   8.04341564E+15   1.17600548E+08   0.00000000E+00   1.83569058E+06   0.29974886      
  13               1.58489319E-06   6.04006916E-04   430.17247715     3.97816627E-08   1.01700978E+16   1.17600548E+08   0.00000000E+00   1.82442731E+06   0.29973134      
  14               1.99526231E-06   7.60846589E-04   443.98568793     4.85528287E-08   1.24123487E+16   1.17600548E+08   0.00000000E+00   1.81314215E+06   0.29965092      
  15               2.51188643E-06   9.55854475E-04   444.78435587     6.08875930E-08   1.55656806E+16   1.17600548E+08   0.00000000E+00   1.80180038E+06   0.29963322      
  16               3.16227766E-06   1.19855467E-03   457.88899024     7.41624528E-08   1.89593518E+16   1.17600548E+08   0.00000000E+00   1.79037913E+06   0.29956441      
  17               3.98107171E-06   1.50048044E-03   459.04335322     9.26111320E-08   2.36756807E+16   1.17600547E+08   0.00000000E+00   1.77885850E+06   0.29954854      
  18               5.01187234E-06   1.87614682E-03   472.11988121     1.12590307E-07   2.87832859E+16   1.17600547E+08   0.00000000E+00   1.76722473E+06   0.29948781      
  19               6.30957344E-06   2.34339450E-03   473.48384150     1.40225449E-07   3.58480952E+16   1.17600546E+08   0.00000000E+00   1.75546538E+06   0.29947258      
  20               7.94328235E-06   2.92461655E-03   486.49148104     1.70325711E-07   4.35431189E+16   1.17600545E+08   0.00000000E+00   1.74357246E+06   0.29941504      
  21               1.00000000E-05   3.64743508E-03   487.87867669     2.11817765E-07   5.41503880E+16   1.17600543E+08   0.00000000E+00   1.73153852E+06   0.29940002      
  22               1.25892541E-05   4.54635884E-03   500.90732112     2.57153778E-07   6.57403741E+16   1.17600540E+08   0.00000000E+00   1.71935858E+06   0.29934557      
  23               1.58489319E-05   5.66397162E-03   502.28321784     3.19491362E-07   8.16767109E+16   1.17600537E+08   0.00000000E+00   1.70702851E+06   0.29933075      
  24               1.99526231E-05   7.05320021E-03   515.55298043     3.87614094E-07   9.90920355E+16   1.17600533E+08   0.00000000E+00   1.69454478E+06   0.2992757       
  25               2.51188643E-05   8.77979482E-03   517.04533970     4.81107960E-07   1.22993335E+17   1.17600528E+08   0.00000000E+00   1.68190122E+06   0.29926017      
  26               3.16227766E-05   1.09254946E-02   530.65493883     5.83331770E-07   1.49126469E+17   1.17600523E+08   0.00000000E+00   1.66909297E+06   0.29920451      
  27               3.98107171E-05   1.35915475E-02   532.18164430     7.23595602E-07   1.84984293E+17   1.17600520E+08   0.00000000E+00   1.65611631E+06   0.29923289      
  28               5.01187234E-05   1.69036630E-02   546.17132133     8.76877178E-07   2.24170145E+17   1.17600520E+08   0.00000000E+00   1.64296745E+06   0.29916608      
  29               6.30957344E-05   2.10172688E-02   547.75367643     1.08712129E-06   2.77918090E+17   1.17600525E+08   0.00000000E+00   1.62964407E+06   0.29908973      
  30               7.94328235E-05   2.61244439E-02   562.13899636     1.31671049E-06   3.36611679E+17   1.17600536E+08   0.00000000E+00   1.61614523E+06   0.29901288      
  31               1.00000000E-04   3.24615372E-02   564.09010911     1.63045100E-06   4.16817972E+17   1.17600554E+08   0.00000000E+00   1.60246822E+06   0.29902171      
  32               1.25892541E-04   4.03181490E-02   579.44576886     1.97140049E-06   5.03980379E+17   1.17600577E+08   0.00000000E+00   1.58861043E+06   0.29897144      
  33               1.58489319E-04   5.00463673E-02   582.31923204     2.43499850E-06   6.22497003E+17   1.17600602E+08   0.00000000E+00   1.57456948E+06   0.29894308      
  34               1.99526231E-04   6.20758181E-02   599.16915666     2.93535195E-06   7.50410396E+17   1.17600629E+08   0.00000000E+00   1.56034074E+06   0.29883678      
  35               2.51188643E-04   7.69255836E-02   603.51654377     3.61134501E-06   9.23224795E+17   1.17600660E+08   0.00000000E+00   1.54591776E+06   0.29878076      
  36               3.16227766E-04   9.52256649E-02   622.03990453     4.33733541E-06   1.10882142E+18   1.17600704E+08   0.00000000E+00   1.53129575E+06   0.29865234      
  37               3.98107171E-04   1.17733879E-01   628.02118753     5.31146781E-06   1.35785375E+18   1.17600764E+08   0.00000000E+00   1.51646640E+06   0.29858718      
  38               5.01187234E-04   1.45392293E-01   648.37650605     6.35332965E-06   1.62420168E+18   1.17600848E+08   0.00000000E+00   1.50141006E+06   0.29844884      
  39               6.30957344E-04   1.79320684E-01   656.34238560     7.74082645E-06   1.97890878E+18   1.17600966E+08   0.00000000E+00   1.48611086E+06   0.29834798      
  40               7.94328235E-04   2.20870107E-01   678.84632564     9.21834125E-06   2.35662950E+18   1.17601135E+08   0.00000000E+00   1.47055675E+06   0.29810672      
  41               1.00000000E-03   2.71637448E-01   689.32642821     1.11648296E-05   2.85424042E+18   1.17601380E+08   0.00000000E+00   1.45473218E+06   0.29796007      
  42               1.25892541E-03   3.33537784E-01   714.50605082     1.32259443E-05   3.38115413E+18   1.17601725E+08   0.00000000E+00   1.43862373E+06   0.29773666      
  43               1.58489319E-03   4.08764659E-01   728.03636159     1.59077162E-05   4.06673721E+18   1.17602211E+08   0.00000000E+00   1.42222328E+06   0.29754902      
  44               1.99526231E-03   4.99930716E-01   756.23139818     1.87302490E-05   4.78829563E+18   1.17602869E+08   0.00000000E+00   1.40552170E+06   0.29715752      
  45               2.51188643E-03   6.10061777E-01   773.27799922     2.23526213E-05   5.71431268E+18   1.17603736E+08   0.00000000E+00   1.38850113E+06   0.29680771      
  46               3.16227766E-03   7.42927348E-01   804.91512598     2.61510560E-05   6.68531840E+18   1.17604868E+08   0.00000000E+00   1.37112295E+06   0.29628276      
  47               3.98107171E-03   9.02756713E-01   825.99213280     3.09661893E-05   7.91627104E+18   1.17606284E+08   0.00000000E+00   1.35336193E+06   0.29583737      
  48               5.01187234E-03   1.09462647E+00   861.67700519     3.59926880E-05   9.20125952E+18   1.17607952E+08   0.00000000E+00   1.33518772E+06   0.29516625      
  49               6.30957344E-03   1.32402179E+00   887.41733097     4.22727133E-05   1.08066993E+19   1.17609783E+08   0.00000000E+00   1.31659052E+06   0.29452552      
  50               7.94328235E-03   1.59698302E+00   927.53058695     4.87826843E-05   1.24709029E+19   1.17611587E+08   0.00000000E+00   1.29758245E+06   0.29358489      
  51               1.00000000E-02   1.92005950E+00   958.06596044     5.67825124E-05   1.45159384E+19   1.17613478E+08   0.00000000E+00   1.27817066E+06   0.29272731      
  52               1.25892541E-02   2.30204903E+00   1002.73082398    6.50486869E-05   1.66286136E+19   1.17615159E+08   0.00000000E+00   1.25829478E+06   0.29159258      
  53               1.58489319E-02   2.75233076E+00   1038.02550869    7.51276631E-05   1.92051825E+19   1.17615876E+08   0.00000000E+00   1.23792599E+06   0.2905071       
  54               1.99526231E-02   3.28153405E+00   1086.79454355    8.55528487E-05   2.18703285E+19   1.17615465E+08   0.00000000E+00   1.21705200E+06   0.28905868      
  55               2.51188643E-02   3.90129251E+00   1125.74668870    9.81908805E-05   2.51011532E+19   1.17613781E+08   0.00000000E+00   1.19566894E+06   0.28769725      
  56               3.16227766E-02   4.62739060E+00   1177.46884503    1.11349454E-04   2.84650909E+19   1.17610428E+08   0.00000000E+00   1.17370978E+06   0.28600297      
  57               3.98107171E-02   5.47849850E+00   1218.89686723    1.27351401E-04   3.25552043E+19   1.17605376E+08   0.00000000E+00   1.15110820E+06   0.28443962      
  58               5.01187234E-02   6.47643438E+00   1272.87221985    1.44174580E-04   3.68533525E+19   1.17598941E+08   0.00000000E+00   1.12781886E+06   0.28255606      
  59               6.30957344E-02   7.65033292E+00   1316.30270415    1.64707128E-04   4.20969276E+19   1.17592038E+08   0.00000000E+00   1.10372910E+06   0.28080944      
  60               7.94328235E-02   9.05576481E+00   1372.68618593    1.86976135E-04   4.77836930E+19   1.17586424E+08   0.00000000E+00   1.07840300E+06   0.27874967      
  61               1.00000000E-01   1.07629452E+01   1418.36011260    2.15059366E-04   5.49630036E+19   1.17582563E+08   0.00000000E+00   1.05148070E+06   0.27689305      
  62               1.25892541E-01   1.28601652E+01   1477.14969375    2.46718705E-04   6.30591158E+19   1.17580005E+08   0.00000000E+00   1.02268863E+06   0.27472202      
  63               1.58489319E-01   1.53957397E+01   1524.88002073    2.86106573E-04   7.31291835E+19   1.17578528E+08   0.00000000E+00   9.92508952E+05   0.27277986      
  64               1.99526231E-01   1.84143791E+01   1585.40647393    3.29126943E-04   8.41283348E+19   1.17577952E+08   0.00000000E+00   9.61400879E+05   0.2706045       
  65               2.51188643E-01   2.19278770E+01   1634.12326759    3.80257906E-04   9.71935875E+19   1.17578757E+08   0.00000000E+00   9.29993996E+05   0.26870716      
  66               3.16227766E-01   2.58769491E+01   1695.50164429    4.32654761E-04   1.10545405E+20   1.17580500E+08   0.00000000E+00   8.99203710E+05   0.26656818      
  67               3.98107171E-01   3.01724172E+01   1745.69439102    4.89978699E-04   1.25189449E+20   1.17583873E+08   0.00000000E+00   8.69701544E+05   0.26464524      
  68               5.01187234E-01   3.46800759E+01   1809.56847204    5.43453844E-04   1.38813230E+20   1.17561694E+08   0.00000000E+00   8.42076824E+05   0.26238211      
  69               6.30957344E-01   3.90489640E+01   1866.71097709    5.93636213E-04   1.51515923E+20   1.11232236E+08   6.17110886E+06   8.17751591E+05   0.26050721      
  70               7.94328235E-01   4.30469443E+01   1914.37487659    6.38603415E-04   1.62870032E+20   1.02347288E+08   1.49902299E+07   7.97217105E+05   0.2586214       
  71               1.00000000E+00   4.65146319E+01   1953.11301037    6.76338991E-04   1.72499585E+20   9.36580738E+07   2.36395055E+07   7.80531470E+05   0.25712073      
  72               1.25892541E+00   5.04994632E+01   1994.60605096    7.18970033E-04   1.83381478E+20   8.43502301E+07   3.29194461E+07   7.62460853E+05   0.2555647       
  73               1.58489319E+00   5.39071820E+01   2028.14203619    7.55007941E-04   1.92519224E+20   7.43476297E+07   4.28869225E+07   7.47834012E+05   0.25436133      
  74               1.99526231E+00   5.66877145E+01   2054.12501186    7.83888770E-04   1.99888549E+20   6.61236805E+07   5.10983500E+07   7.36404565E+05   0.25302509      
  75               2.51188643E+00   5.99736853E+01   2083.61387282    8.17565690E-04   2.08482370E+20   5.93530353E+07   5.78785799E+07   7.23424541E+05   0.25206283      
  76               3.16227766E+00   6.38284361E+01   2116.48284500    8.56539420E-04   2.18436541E+20   5.16374232E+07   6.56129527E+07   7.08857824E+05   0.25114673      
  77               3.98107171E+00   6.68822487E+01   2141.45689381    8.87774170E-04   2.26218110E+20   4.37957746E+07   7.34963726E+07   6.97782326E+05   0.25063712      
  78               5.01187234E+00   6.92581825E+01   2160.23884780    9.11295974E-04   2.32217614E+20   3.85782356E+07   7.87433206E+07   6.89429114E+05   0.24979042      
  79               6.30957344E+00   7.21285702E+01   2182.23628344    9.39468408E-04   2.39403993E+20   3.56059161E+07   8.17213227E+07   6.79619093E+05   0.24907963      
  80               7.94328235E+00   7.55755599E+01   2207.72346858    9.72963410E-04   2.47949101E+20   3.33074851E+07   8.40278488E+07   6.68217885E+05   0.24794083      
  81               1.00000000E+01   7.96896761E+01   2236.84842557    1.01252192E-03   2.58042562E+20   3.12576577E+07   8.60873132E+07   6.55110187E+05   0.24687726      
  82               1.25892541E+01   8.45699449E+01   2269.87070378    1.05883383E-03   2.69861399E+20   2.92206124E+07   8.81354011E+07   6.40205320E+05   0.24539416      
  83               1.58489319E+01   9.03248805E+01   2306.68134796    1.11275464E-03   2.83625733E+20   2.71270590E+07   9.02409531E+07   6.23439397E+05   0.24395826      
  84               1.99526231E+01   9.70724364E+01   2347.52175426    1.17508506E-03   2.99510564E+20   2.49410209E+07   9.24400313E+07   6.04778754E+05   0.24207762      
  85               2.51188643E+01   1.04944789E+02   2391.99424643    1.24662060E-03   3.17780019E+20   2.27483538E+07   9.46461244E+07   5.84210199E+05   0.24025063      
  86               3.16227766E+01   1.14089727E+02   2440.41502303    1.32817412E-03   3.38616949E+20   2.05610888E+07   9.68474636E+07   5.61735830E+05   0.23795133      
  87               3.98107171E+01   1.24673926E+02   2492.08436826    1.42105305E-03   3.62358734E+20   1.84329014E+07   9.89890859E+07   5.37373042E+05   0.23569686      
  88               5.01187234E+01   1.36887277E+02   2547.48448908    1.52600822E-03   3.89204073E+20   1.64371527E+07   1.00996852E+08   5.11145757E+05   0.23300942      
  89               6.30957344E+01   1.50958351E+02   2605.68460863    1.64486400E-03   4.19624787E+20   1.45910103E+07   1.02853840E+08   4.83059991E+05   0.23032252      
  90               7.94328235E+01   1.67155470E+02   2667.43644332    1.77863343E-03   4.53891817E+20   1.28882531E+07   1.04566364E+08   4.53114421E+05   0.22727899      
  91               1.00000000E+02   1.85795054E+02   2731.60248352    1.92982111E-03   4.92654540E+20   1.13094526E+07   1.06153090E+08   4.21298979E+05   0.22426852      
  92               1.25892541E+02   2.07249206E+02   2799.20588357    2.09974515E-03   5.36270456E+20   9.86030123E+06   1.07608808E+08   3.87595578E+05   0.22083616      
  93               1.58489319E+02   2.31957601E+02   2868.80314667    2.29188871E-03   5.85644001E+20   8.54453561E+06   1.08929104E+08   3.51977602E+05   0.21774367      
  94               1.99526231E+02   2.60437217E+02   2941.96496390    2.50776071E-03   6.41196863E+20   7.40114432E+06   1.10075691E+08   3.14411171E+05   0.21454505      
  95               2.51188643E+02   2.93296694E+02   3016.91331274    2.75208525E-03   7.04158095E+20   6.40406107E+06   1.11078870E+08   2.74856946E+05   0.21115976      
  96               3.16227766E+02   3.31212522E+02   3095.16346458    3.02682476E-03   7.75084402E+20   5.52597662E+06   1.11968029E+08   2.33313443E+05   0.20751051      
  97               3.98107171E+02   3.74849686E+02   3174.48506771    3.33698585E-03   8.55282729E+20   4.72098178E+06   1.12785513E+08   1.89893093E+05   0.20401591      
  98               5.01187234E+02   4.24923996E+02   3256.56109342    3.68361259E-03   9.45100225E+20   3.99786443E+06   1.13521219E+08   1.44727331E+05   0.20046584      
  99               6.30957344E+02   4.82207222E+02   3338.87171385    4.07258377E-03   1.04606776E+21   3.33779777E+06   1.14194244E+08   9.79576715E+04   0.19718932      
  100              7.94328235E+02   5.47603593E+02   3423.58244071    4.50483463E-03   1.15854081E+21   2.77089570E+06   1.14774733E+08   4.96752831E+04   0.19422989      
  101              1.00000000E+03   6.22060384E+02   3508.17686905    4.98733117E-03   1.28433082E+21   2.49250948E+06   1.15058754E+08   0.00000000E+00   0.19146362      
