# ATMO pressure-temperature profile
# Effective temperature = 700.0K
# log(g) = 4.5cm/s^2
# M/H = 0.0
# Optical depth grid in band 17 (1.20-1.33microns)
# All parameters in cgs units
#
# Model Level      Optical Depth    Pressure         Temperature      Density          Number Density   Rad Flux         Conv Flux        Radial Extension Adiabatic Gradient
#                                   [Ba]             [K]              [g/cm^3]         [/cm^3]          [ergs/s/cm^2/sr] [ergs/s/cm^2/sr] [cm]             [K/Ba]          
  1                5.00000000E-05   1.00000000E-05   176.59394493     1.60444838E-09   4.10156909E+14   1.36132618E+07   0.00000000E+00   1.34463043E+07   0.3224114       
  2                5.91534807E-05   5.12380887E-04   204.85823921     7.08665096E-08   1.81161257E+16   1.36132618E+07   0.00000000E+00   1.19564297E+07   0.31683304      
  3                6.99826855E-05   1.07563590E-03   225.93971751     1.34888295E-07   3.44824843E+16   1.36132618E+07   0.00000000E+00   1.17742511E+07   0.31391794      
  4                8.27943887E-05   1.71653399E-03   241.06405397     2.01753701E-07   5.15757783E+16   1.36132618E+07   0.00000000E+00   1.16513966E+07   0.31208392      
  5                9.79515255E-05   2.45450621E-03   251.04427946     2.77022705E-07   7.08173458E+16   1.36132618E+07   0.00000000E+00   1.15526842E+07   0.31075072      
  6                1.15883473E-04   3.30882281E-03   261.39093288     3.58661329E-07   9.16872258E+16   1.36132618E+07   0.00000000E+00   1.14669767E+07   0.30956812      
  7                1.37098216E-04   4.30013073E-03   269.25364861     4.52503167E-07   1.15676703E+17   1.36132618E+07   0.00000000E+00   1.13891631E+07   0.30863373      
  8                1.62196734E-04   5.45218530E-03   278.19865104     5.55286544E-07   1.41951971E+17   1.36132618E+07   0.00000000E+00   1.13164850E+07   0.30772555      
  9                1.91890027E-04   6.79214648E-03   285.24061107     6.74679085E-07   1.72473162E+17   1.36132618E+07   0.00000000E+00   1.12472565E+07   0.30696925      
  10               2.27019260E-04   8.35207541E-03   293.54992052     8.06146556E-07   2.06081155E+17   1.36132618E+07   0.00000000E+00   1.11803683E+07   0.30623359      
  11               2.68579588E-04   1.01691105E-02   300.11613546     9.60052945E-07   2.45425373E+17   1.36132618E+07   0.00000000E+00   1.11150540E+07   0.30561704      
  12               3.17748350E-04   1.22864280E-02   308.10772376     1.12985996E-06   2.88834386E+17   1.36132618E+07   0.00000000E+00   1.10507665E+07   0.3050161       
  13               3.75918418E-04   1.47540172E-02   314.58187591     1.32885671E-06   3.39705381E+17   1.36132618E+07   0.00000000E+00   1.09870838E+07   0.30451668      
  14               4.44737657E-04   1.76301706E-02   322.56021096     1.54862864E-06   3.95887291E+17   1.36132618E+07   0.00000000E+00   1.09236824E+07   0.30402562      
  15               5.26155608E-04   2.09820312E-02   329.15465167     1.80613042E-06   4.61714349E+17   1.36132618E+07   0.00000000E+00   1.08603045E+07   0.30361266      
  16               6.22478712E-04   2.48870653E-02   337.42473051     2.08976935E-06   5.34223043E+17   1.36132618E+07   0.00000000E+00   1.07967420E+07   0.30320037      
  17               7.36435649E-04   2.94347142E-02   344.43652940     2.42132003E-06   6.18979774E+17   1.36132618E+07   0.00000000E+00   1.07328109E+07   0.30285539      
  18               8.71254639E-04   3.47299616E-02   353.07651255     2.78700078E-06   7.12461358E+17   1.36132618E+07   0.00000000E+00   1.06683507E+07   0.30247949      
  19               1.03075489E-03   4.08945033E-02   360.49102148     3.21419411E-06   8.21667908E+17   1.36132618E+07   0.00000000E+00   1.06032185E+07   0.30223877      
  20               1.21945479E-03   4.80687271E-02   369.62174583     3.68473869E-06   9.41956717E+17   1.36132618E+07   0.00000000E+00   1.05372957E+07   0.30193182      
  21               1.44269991E-03   5.64135928E-02   377.67785462     4.23218374E-06   1.08190239E+18   1.36132618E+07   0.00000000E+00   1.04704715E+07   0.30164661      
  22               1.70681442E-03   6.61152817E-02   387.50486381     4.83422618E-06   1.23580667E+18   1.36132618E+07   0.00000000E+00   1.04026446E+07   0.3013789       
  23               2.01928028E-03   7.73861444E-02   396.33472411     5.53226988E-06   1.41425240E+18   1.36132618E+07   0.00000000E+00   1.03337251E+07   0.30117685      
  24               2.38894914E-03   9.04679836E-02   407.05986098     6.29707541E-06   1.60976496E+18   1.36132618E+07   0.00000000E+00   1.02636365E+07   0.30098161      
  25               2.82629313E-03   1.05633500E-01   416.90171170     7.17910399E-06   1.83524408E+18   1.36132618E+07   0.00000000E+00   1.01923097E+07   0.30080443      
  26               3.34370152E-03   1.23196686E-01   428.75046427     8.14134952E-06   2.08123088E+18   1.36132618E+07   0.00000000E+00   1.01196623E+07   0.30061285      
  27               3.95583167E-03   1.43519917E-01   439.81317854     9.24596094E-06   2.36357712E+18   1.36132617E+07   0.00000000E+00   1.00455876E+07   0.30044229      
  28               4.68002425E-03   1.67010213E-01   453.08151381     1.04441918E-05   2.66988483E+18   1.36132617E+07   0.00000000E+00   9.96999574E+06   0.30027898      
  29               5.53679448E-03   1.94114101E-01   465.92646551     1.18045108E-05   3.01762691E+18   1.36132618E+07   0.00000000E+00   9.89280410E+06   0.300136        
  30               6.55041330E-03   2.25320895E-01   481.37714537     1.32625453E-05   3.39032897E+18   1.36132618E+07   0.00000000E+00   9.81393401E+06   0.30000926      
  31               7.74959494E-03   2.61188611E-01   495.90539297     1.49232989E-05   3.81488319E+18   1.36132619E+07   0.00000000E+00   9.73331122E+06   0.29991613      
  32               9.16831029E-03   3.02382372E-01   511.95660392     1.67364800E-05   4.27808254E+18   1.36132620E+07   0.00000000E+00   9.65088348E+06   0.2998374       
  33               1.08467493E-02   3.49633933E-01   527.90068294     1.87673128E-05   4.79719300E+18   1.36132621E+07   0.00000000E+00   9.56657271E+06   0.29975283      
  34               1.28324595E-02   4.03778749E-01   545.71676337     2.09660394E-05   5.35922515E+18   1.36132621E+07   0.00000000E+00   9.48025545E+06   0.2996487       
  35               1.51816929E-02   4.65741786E-01   563.82080070     2.34068935E-05   5.98315081E+18   1.36132622E+07   0.00000000E+00   9.39180448E+06   0.2995428       
  36               1.79609996E-02   5.36548871E-01   584.03696749     2.60320183E-05   6.65418373E+18   1.36132622E+07   0.00000000E+00   9.30109537E+06   0.29945691      
  37               2.12491128E-02   6.17297185E-01   604.69684844     2.89264215E-05   7.39405082E+18   1.36132623E+07   0.00000000E+00   9.20804198E+06   0.29937062      
  38               2.51391797E-02   7.09153443E-01   627.59819349     3.20181138E-05   8.18435334E+18   1.36132622E+07   0.00000000E+00   9.11259471E+06   0.29924623      
  39               2.97413996E-02   8.13445493E-01   651.23155622     3.53939804E-05   9.04729727E+18   1.36132622E+07   0.00000000E+00   9.01462572E+06   0.29909083      
  40               3.51861462E-02   9.31720847E-01   677.36140165     3.89763251E-05   9.96302470E+18   1.36132643E+07   0.00000000E+00   8.91392580E+06   0.29890335      
  41               4.16276604E-02   1.06559037E+00   705.00809303     4.28283148E-05   1.09476783E+19   1.35816161E+07   3.16907014E+04   8.81031243E+06   0.2986992       
  42               4.92484201E-02   1.21680675E+00   733.58505383     4.70008172E-05   1.20142586E+19   1.35171356E+07   9.61883989E+04   8.70373122E+06   0.29842384      
  43               5.82643093E-02   1.38724381E+00   762.75044863     5.15352556E-05   1.31733480E+19   1.34362474E+07   1.77074559E+05   8.59421985E+06   0.29806245      
  44               6.89307339E-02   1.57913300E+00   792.84908332     5.64370802E-05   1.44262688E+19   1.33492386E+07   2.64068218E+05   8.48170326E+06   0.29764466      
  45               8.15498567E-02   1.79523072E+00   823.58662165     6.17660510E-05   1.57883530E+19   1.32680240E+07   3.45260970E+05   8.36596055E+06   0.29719513      
  46               9.64791575E-02   2.03858586E+00   855.36768937     6.75327986E-05   1.72624330E+19   1.32014675E+07   4.11791633E+05   8.24680665E+06   0.2966294       
  47               1.14141560E-01   2.31229715E+00   887.80196694     7.38016311E-05   1.88648511E+19   1.31584798E+07   4.54754202E+05   8.12420328E+06   0.29591139      
  48               1.35037411E-01   2.61941177E+00   921.23499358     8.05697356E-05   2.05948763E+19   1.31456053E+07   4.67603613E+05   7.99825808E+06   0.29504858      
  49               1.59758657E-01   2.96315658E+00   955.20446636     8.79018463E-05   2.24690182E+19   1.31696176E+07   4.43565862E+05   7.86909115E+06   0.29413137      
  50               1.89005613E-01   3.34762449E+00   990.15994116     9.58021228E-05   2.44882203E+19   1.32327803E+07   3.80377604E+05   7.73660393E+06   0.29309702      
  51               2.23606798E-01   3.77733032E+00   1025.64688226    1.04361659E-04   2.66755228E+19   1.33379985E+07   2.75136469E+05   7.60070564E+06   0.29194114      
  52               2.64542408E-01   4.25767516E+00   1062.17138143    1.13587572E-04   2.90337924E+19   1.34772484E+07   1.35890713E+05   7.46119180E+06   0.29064438      
  53               3.12972084E-01   4.79439655E+00   1099.24342229    1.23592421E-04   3.15911850E+19   1.36132572E+07   0.00000000E+00   7.31794410E+06   0.28928837      
  54               3.70267763E-01   5.39356430E+00   1137.02785902    1.34417432E-04   3.43582151E+19   1.36132612E+07   0.00000000E+00   7.17094158E+06   0.28787337      
  55               4.38052539E-01   6.06348680E+00   1172.13660338    1.46587215E-04   3.74688228E+19   1.36132612E+07   0.00000000E+00   7.02002089E+06   0.2864718       
  56               5.18246648E-01   6.81348981E+00   1208.59100814    1.59752654E-04   4.08334516E+19   1.36132614E+07   0.00000000E+00   6.86503540E+06   0.28505983      
  57               6.13121862E-01   7.65418534E+00   1242.49193524    1.74574225E-04   4.46201715E+19   1.36132614E+07   0.00000000E+00   6.70584205E+06   0.28369923      
  58               7.25365844E-01   8.59951728E+00   1277.91267644    1.90712697E-04   4.87414826E+19   1.36132615E+07   0.00000000E+00   6.54200756E+06   0.28233951      
  59               8.58158289E-01   9.66666433E+00   1310.88945377    2.09005221E-04   5.34117009E+19   1.36132616E+07   0.00000000E+00   6.37297994E+06   0.2810199       
  60               1.01526100E+00   1.08781382E+01   1345.84044218    2.29107378E-04   5.85445991E+19   1.36132617E+07   0.00000000E+00   6.19790711E+06   0.27969689      
  61               1.20112443E+00   1.22613947E+01   1378.67448986    2.52091458E-04   6.44175157E+19   1.36132618E+07   0.00000000E+00   6.01589227E+06   0.27842419      
  62               1.42101382E+00   1.38483141E+01   1414.06905922    2.77583478E-04   7.09336204E+19   1.36132618E+07   0.00000000E+00   5.82618578E+06   0.27713537      
  63               1.68115827E+00   1.56684536E+01   1447.86014314    3.06724970E-04   7.83836281E+19   1.36132619E+07   0.00000000E+00   5.62892736E+06   0.27583974      
  64               1.98892727E+00   1.77552284E+01   1484.91428517    3.38887902E-04   8.66065457E+19   1.36132619E+07   0.00000000E+00   5.42424718E+06   0.27448333      
  65               2.35303941E+00   2.01367815E+01   1520.92812242    3.75232913E-04   9.58974826E+19   1.36132619E+07   0.00000000E+00   5.21305170E+06   0.27313509      
  66               2.78380943E+00   2.28357709E+01   1560.89389357    4.14612493E-04   1.05966389E+20   1.36132618E+07   0.00000000E+00   4.99666421E+06   0.27173402      
  67               3.29344035E+00   2.58601500E+01   1600.39040393    4.57958785E-04   1.17039091E+20   1.36132619E+07   0.00000000E+00   4.77717643E+06   0.27031566      
  68               3.89636920E+00   2.92044266E+01   1644.37776698    5.03325946E-04   1.28639080E+20   1.36132616E+07   0.00000000E+00   4.55689996E+06   0.26884071      
  69               4.60967600E+00   3.28330697E+01   1688.37279416    5.51327860E-04   1.40853935E+20   1.36132613E+07   0.00000000E+00   4.33905699E+06   0.26733005      
  70               5.45356761E+00   3.67152173E+01   1737.10443904    5.99214069E-04   1.53089714E+20   1.36132965E+07   0.00000000E+00   4.12546731E+06   0.26572743      
  71               6.45195012E+00   4.07827335E+01   1786.40691647    6.47266561E-04   1.65356694E+20   1.28053882E+07   8.07692100E+05   3.91892824E+06   0.26403897      
  72               7.63310614E+00   4.49389928E+01   1832.32530109    6.95547759E-04   1.77642385E+20   1.15102581E+07   2.10270439E+06   3.72304007E+06   0.26243952      
  73               9.03049593E+00   4.90254575E+01   1874.82728536    7.41991175E-04   1.89402728E+20   9.90957871E+06   3.70225684E+06   3.54315307E+06   0.26093953      
  74               1.06837053E+01   5.27327046E+01   1910.41031041    7.83953830E-04   1.99930583E+20   8.26473455E+06   5.34535680E+06   3.38943292E+06   0.25964884      
  75               1.26395671E+01   5.59164100E+01   1939.95592469    8.18603248E-04   2.08772483E+20   7.26559003E+06   6.34365026E+06   3.26375722E+06   0.25844305      
  76               1.49534878E+01   5.94357261E+01   1970.41347946    8.56652878E-04   2.18482191E+20   6.83615060E+06   6.77401096E+06   3.13085889E+06   0.25722998      
  77               1.76910170E+01   6.33142750E+01   2002.96182518    8.97687510E-04   2.28957464E+20   6.04426287E+06   7.56650247E+06   2.99099530E+06   0.25623654      
  78               2.09297047E+01   6.64839485E+01   2027.81472555    9.31347489E-04   2.37473073E+20   4.94758814E+06   8.66552908E+06   2.88136879E+06   0.25548805      
  79               2.47612977E+01   6.89120659E+01   2046.78892754    9.56395799E-04   2.43864201E+20   4.34908479E+06   9.27110657E+06   2.80001175E+06   0.25479837      
  80               2.92943389E+01   7.16634961E+01   2066.94991830    9.84860792E-04   2.51127271E+20   4.16841883E+06   9.45985352E+06   2.71036132E+06   0.25379054      
  81               3.46572422E+01   7.47728709E+01   2089.63135675    1.01641494E-03   2.59179244E+20   4.00301489E+06   9.63419133E+06   2.61208468E+06   0.25289421      
  82               4.10019301E+01   7.82706967E+01   2113.56769409    1.05188594E-03   2.68230943E+20   3.80864435E+06   9.84187083E+06   2.50511060E+06   0.25172067      
  83               4.85081376E+01   8.21895747E+01   2139.97438764    1.09085001E-03   2.78185185E+20   3.36612735E+06   1.02874247E+07   2.38942078E+06   0.25121082      
  84               5.73885036E+01   8.51277164E+01   2158.63054941    1.12102080E-03   2.85639658E+20   2.75632964E+06   1.08722873E+07   2.30539130E+06   0.25056309      
  85               6.78945948E+01   8.72745970E+01   2172.40639133    1.14198362E-03   2.90986352E+20   2.46040105E+06   1.11459000E+07   2.24538854E+06   0.25024478      
  86               8.03240320E+01   8.97433697E+01   2187.34259958    1.16624525E-03   2.97174404E+20   2.38377462E+06   1.12226704E+07   2.17774033E+06   0.24947336      
  87               9.50289215E+01   9.25735988E+01   2204.58804894    1.19358482E-03   3.04148401E+20   2.31492838E+06   1.12916601E+07   2.10188256E+06   0.2490209       
  88               1.12425830E+02   9.58078752E+01   2223.25231235    1.22488120E-03   3.12132000E+20   2.22760109E+06   1.13791477E+07   2.01729555E+06   0.24807517      
  89               1.33007583E+02   9.94921002E+01   2244.36042669    1.25997786E-03   3.21086345E+20   2.14173847E+06   1.14651759E+07   1.92351390E+06   0.24710699      
  90               1.57357229E+02   1.03675520E+02   2267.03586829    1.29977510E-03   3.31240682E+20   2.04301196E+06   1.15640753E+07   1.82013877E+06   0.24586871      
  91               1.86164557E+02   1.08411099E+02   2292.23901438    1.34413970E-03   3.42562396E+20   1.94548597E+06   1.16617743E+07   1.70684211E+06   0.24469301      
  92               2.20245630E+02   1.13755736E+02   2319.09667984    1.39399557E-03   3.55287796E+20   1.83629709E+06   1.17711447E+07   1.58337093E+06   0.24314123      
  93               2.60565913E+02   1.19770296E+02   2348.45356607    1.44940811E-03   3.69396676E+20   1.72867962E+06   1.18789372E+07   1.44955989E+06   0.24171799      
  94               3.08267614E+02   1.26521749E+02   2379.49235959    1.51103195E-03   3.85129435E+20   1.61712792E+06   1.19906687E+07   1.30529335E+06   0.23980008      
  95               3.64702046E+02   1.34083436E+02   2412.89526416    1.57904009E-03   4.02496863E+20   1.51272490E+06   1.20952396E+07   1.15048803E+06   0.23814248      
  96               4.31467909E+02   1.42534933E+02   2447.99034541    1.65434652E-03   4.21732875E+20   1.40473251E+06   1.22033768E+07   9.85130301E+05   0.23579106      
  97               5.10456573E+02   1.51964448E+02   2485.17940178    1.73720312E-03   4.42904497E+20   1.30225669E+06   1.23060073E+07   8.09236082E+05   0.23384002      
  98               6.03905660E+02   1.62469200E+02   2524.08220397    1.82842919E-03   4.66222669E+20   1.19763307E+06   1.24108731E+07   6.22846192E+05   0.23096905      
  99               7.14462436E+02   1.74164378E+02   2564.69172621    1.92872700E-03   4.91869623E+20   1.10028432E+06   1.25084728E+07   4.25906414E+05   0.22872712      
  100              8.45258798E+02   1.87180390E+02   2607.16080625    2.03875660E-03   5.20017990E+20   1.00206310E+06   1.26069931E+07   2.18338095E+05   0.22524362      
  101              1.00000000E+03   2.01669319E+02   2650.81151039    2.15998541E-03   5.51044691E+20   9.50267060E+05   1.26588196E+07   0.00000000E+00   0.22270289      
