# ATMO pressure-temperature profile
# Effective temperature = 700.0K
# log(g) = 4.0cm/s^2
# M/H = 0.0
# Optical depth grid in band 17 (1.20-1.33microns)
# All parameters in cgs units
#
# Model Level      Optical Depth    Pressure         Temperature      Density          Number Density   Rad Flux         Conv Flux        Radial Extension Adiabatic Gradient
#                                   [Ba]             [K]              [g/cm^3]         [/cm^3]          [ergs/s/cm^2/sr] [ergs/s/cm^2/sr] [cm]             [K/Ba]          
  1                5.00000000E-05   1.00000000E-05   179.61727011     1.57731304E-09   4.03253131E+14   1.36132619E+07   0.00000000E+00   4.02806525E+07   0.32138555      
  2                5.91534807E-05   2.26298892E-04   211.46330573     3.03188976E-08   7.75127689E+15   1.36132619E+07   0.00000000E+00   3.71528549E+07   0.31585684      
  3                6.99826855E-05   4.68006713E-04   229.73666407     5.77148780E-08   1.47552853E+16   1.36132619E+07   0.00000000E+00   3.65750382E+07   0.31312224      
  4                8.27943887E-05   7.44033757E-04   242.80760788     8.68153201E-08   2.21950531E+16   1.36132619E+07   0.00000000E+00   3.61850876E+07   0.31302387      
  5                9.79515255E-05   1.06245925E-03   252.29935705     1.19305968E-07   3.05015548E+16   1.36132619E+07   0.00000000E+00   3.58722071E+07   0.31045826      
  6                1.15883473E-04   1.43143085E-03   261.65194333     1.54993130E-07   3.96252713E+16   1.36132619E+07   0.00000000E+00   3.56008722E+07   0.3106201       
  7                1.37098216E-04   1.85992852E-03   269.23131761     1.95720684E-07   5.00376053E+16   1.36132619E+07   0.00000000E+00   3.53548502E+07   0.30863281      
  8                1.62196734E-04   2.35827165E-03   277.42865973     2.40828878E-07   6.15698855E+16   1.36132619E+07   0.00000000E+00   3.51253116E+07   0.30881101      
  9                1.91890027E-04   2.93831428E-03   284.30389483     2.92807031E-07   7.48585268E+16   1.36132619E+07   0.00000000E+00   3.49068803E+07   0.30715065      
  10               2.27019260E-04   3.61397778E-03   291.97177400     3.50679744E-07   8.96541606E+16   1.36132619E+07   0.00000000E+00   3.46960251E+07   0.30728059      
  11               2.68579588E-04   4.40149113E-03   298.44239057     4.17835562E-07   1.06823096E+17   1.36132619E+07   0.00000000E+00   3.44902940E+07   0.30587926      
  12               3.17748350E-04   5.31976907E-03   305.82495718     4.92817301E-07   1.25992791E+17   1.36132619E+07   0.00000000E+00   3.42879322E+07   0.30598898      
  13               3.75918418E-04   6.39066913E-03   312.22510780     5.79888647E-07   1.48253293E+17   1.36132619E+07   0.00000000E+00   3.40876079E+07   0.30482241      
  14               4.44737657E-04   7.63967882E-03   319.67176702     6.77075226E-07   1.73099837E+17   1.36132619E+07   0.00000000E+00   3.38882768E+07   0.3049195       
  15               5.26155608E-04   9.09637017E-03   326.17093675     7.90112599E-07   2.01998760E+17   1.36132619E+07   0.00000000E+00   3.36891157E+07   0.30394553      
  16               6.22478712E-04   1.07949854E-02   333.84411326     9.16103338E-07   2.34209322E+17   1.36132619E+07   0.00000000E+00   3.34894615E+07   0.30404073      
  17               7.36435649E-04   1.27750893E-02   340.64612377     1.06249434E-06   2.71635378E+17   1.36132619E+07   0.00000000E+00   3.32887592E+07   0.30320763      
  18               8.71254639E-04   1.50828879E-02   348.66996859     1.22556443E-06   3.13325543E+17   1.36132619E+07   0.00000000E+00   3.30865194E+07   0.30328191      
  19               1.03075489E-03   1.77723914E-02   355.80668333     1.41513529E-06   3.61790873E+17   1.36132619E+07   0.00000000E+00   3.28822963E+07   0.30255911      
  20               1.21945479E-03   2.09062368E-02   364.20742101     1.62627228E-06   4.15769775E+17   1.36132619E+07   0.00000000E+00   3.26757193E+07   0.30261019      
  21               1.44269991E-03   2.45564755E-02   371.80826883     1.87117079E-06   4.78379796E+17   1.36132619E+07   0.00000000E+00   3.24664681E+07   0.30198512      
  22               1.70681442E-03   2.88065753E-02   380.76834558     2.14337039E-06   5.47969810E+17   1.36132619E+07   0.00000000E+00   3.22542444E+07   0.30201302      
  23               2.01928028E-03   3.37524699E-02   389.01937230     2.45810689E-06   6.28434717E+17   1.36132619E+07   0.00000000E+00   3.20387699E+07   0.30148715      
  24               2.38894914E-03   3.95042368E-02   398.70520431     2.80710165E-06   7.17658133E+17   1.36132619E+07   0.00000000E+00   3.18198064E+07   0.30149384      
  25               2.82629313E-03   4.61870343E-02   407.80987365     3.20870654E-06   8.20329217E+17   1.36132619E+07   0.00000000E+00   3.15971349E+07   0.30106572      
  26               3.34370152E-03   5.39435345E-02   418.47067897     3.65209425E-06   9.33684620E+17   1.36132619E+07   0.00000000E+00   3.13705506E+07   0.30109423      
  27               3.95583167E-03   6.29385227E-02   428.59846450     4.16038487E-06   1.06363293E+18   1.36132619E+07   0.00000000E+00   3.11397894E+07   0.30070308      
  28               4.68002425E-03   7.33635226E-02   440.32732854     4.72032269E-06   1.20678631E+18   1.36132619E+07   0.00000000E+00   3.09045427E+07   0.30065409      
  29               5.53679448E-03   8.54333321E-02   451.76257375     5.35786747E-06   1.36975513E+18   1.36132619E+07   0.00000000E+00   3.06645378E+07   0.3003661       
  30               6.55041330E-03   9.93855468E-02   465.24079389     6.05230329E-06   1.54728845E+18   1.36132619E+07   0.00000000E+00   3.04195260E+07   0.30037576      
  31               7.74959494E-03   1.15480018E-01   478.88324648     6.83210458E-06   1.74663854E+18   1.36132619E+07   0.00000000E+00   3.01692383E+07   0.30017749      
  32               9.16831029E-03   1.34019768E-01   493.80719590     7.68930457E-06   1.96579076E+18   1.36132619E+07   0.00000000E+00   2.99134486E+07   0.30014046      
  33               1.08467493E-02   1.55350742E-01   508.54241577     8.65546697E-06   2.21264627E+18   1.36132619E+07   0.00000000E+00   2.96519756E+07   0.29991301      
  34               1.28324595E-02   1.79850914E-01   525.18149479     9.70302348E-06   2.48044199E+18   1.36132619E+07   0.00000000E+00   2.93846316E+07   0.29984931      
  35               1.51816929E-02   2.07949855E-01   541.99392844     1.08709466E-05   2.77900956E+18   1.36132619E+07   0.00000000E+00   2.91110400E+07   0.29969319      
  36               1.79609996E-02   2.40126672E-01   561.05925206     1.21264559E-05   3.09997016E+18   1.36132619E+07   0.00000000E+00   2.88307921E+07   0.29966415      
  37               2.12491128E-02   2.76897951E-01   580.63034778     1.35120561E-05   3.45418704E+18   1.36132619E+07   0.00000000E+00   2.85435282E+07   0.29955758      
  38               2.51391797E-02   3.18813730E-01   602.72077643     1.49872292E-05   3.83130472E+18   1.36132619E+07   0.00000000E+00   2.82489801E+07   0.29949938      
  39               2.97413996E-02   3.66439954E-01   625.77156686     1.65915420E-05   4.24143518E+18   1.36132619E+07   0.00000000E+00   2.79469557E+07   0.29931982      
  40               3.51861462E-02   4.20382089E-01   652.59660613     1.82514908E-05   4.66579048E+18   1.35821794E+07   3.10834132E+04   2.76369743E+07   0.29923127      
  41               4.16276604E-02   4.81423810E-01   679.01962799     2.00883215E-05   5.13536216E+18   1.35021526E+07   1.11110723E+05   2.73181835E+07   0.29905275      
  42               4.92484201E-02   5.50464203E-01   707.39138384     2.20479038E-05   5.63631369E+18   1.33876392E+07   2.25624371E+05   2.69901276E+07   0.29890567      
  43               5.82643093E-02   6.28424363E-01   735.31579026     2.42145823E-05   6.19020399E+18   1.32508671E+07   3.62396717E+05   2.66527233E+07   0.29858957      
  44               6.89307339E-02   7.16253319E-01   765.24494365     2.65195764E-05   6.77941186E+18   1.31007123E+07   5.12551542E+05   2.63061329E+07   0.29839733      
  45               8.15498567E-02   8.15120827E-01   794.66542538     2.90628703E-05   7.42956713E+18   1.29529591E+07   6.60304627E+05   2.59500089E+07   0.29797914      
  46               9.64791575E-02   9.26482529E-01   826.24073663     3.17711971E-05   8.12187816E+18   1.28217821E+07   7.91481344E+05   2.55835290E+07   0.29760945      
  47               1.14141560E-01   1.05187681E+00   857.32066162     3.47635763E-05   8.88684145E+18   1.27225392E+07   8.90723684E+05   2.52062186E+07   0.29691044      
  48               1.35037411E-01   1.19283229E+00   890.61706306     3.79482140E-05   9.70094886E+18   1.26654100E+07   9.47852062E+05   2.48181361E+07   0.29637592      
  49               1.59758657E-01   1.35085127E+00   923.30060650     4.14541579E-05   1.05971786E+19   1.26597013E+07   9.53560039E+05   2.44197266E+07   0.29547535      
  50               1.89005613E-01   1.52759096E+00   958.15094990     4.51730973E-05   1.15477928E+19   1.27090680E+07   9.04192412E+05   2.40113033E+07   0.29470193      
  51               2.23606798E-01   1.72517876E+00   992.31348139     4.92609865E-05   1.25924736E+19   1.28144543E+07   7.98805272E+05   2.35924425E+07   0.2935196       
  52               2.64542408E-01   1.94605233E+00   1028.72018676    5.36010554E-05   1.37019725E+19   1.29708318E+07   6.42426381E+05   2.31626037E+07   0.29257503      
  53               3.12972084E-01   2.19289254E+00   1064.46330320    5.83714433E-05   1.49215005E+19   1.31665632E+07   4.46694042E+05   2.27213086E+07   0.29119829      
  54               3.70267763E-01   2.46849679E+00   1102.48306503    6.34410829E-05   1.62175961E+19   1.33885658E+07   2.24690019E+05   2.22684105E+07   0.29013981      
  55               4.38052539E-01   2.77580798E+00   1139.81157437    6.90020651E-05   1.76393345E+19   1.36046173E+07   4.70986620E+04   2.18039357E+07   0.28852545      
  56               5.18246648E-01   3.11840767E+00   1179.38989819    7.49163177E-05   1.91514352E+19   1.36132614E+07   0.00000000E+00   2.13274303E+07   0.2872765       
  57               6.13121862E-01   3.50147612E+00   1213.90549318    8.17272100E-05   2.08925828E+19   1.36132619E+07   0.00000000E+00   2.08378714E+07   0.28537436      
  58               7.25365844E-01   3.93127740E+00   1251.62916816    8.89945434E-05   2.27501285E+19   1.36132619E+07   0.00000000E+00   2.03339036E+07   0.28419753      
  59               8.58158289E-01   4.41590409E+00   1284.63157101    9.74007799E-05   2.48981386E+19   1.36132619E+07   0.00000000E+00   1.98133748E+07   0.28240739      
  60               1.01526100E+00   4.96663281E+00   1321.35841279    1.06508595E-04   2.72249605E+19   1.36132619E+07   0.00000000E+00   1.92726640E+07   0.28134871      
  61               1.20112443E+00   5.59942780E+00   1353.71020403    1.17212669E-04   2.99601364E+19   1.36132619E+07   0.00000000E+00   1.87063137E+07   0.27963613      
  62               1.42101382E+00   6.33601848E+00   1390.58025796    1.29113739E-04   3.30024525E+19   1.36132619E+07   0.00000000E+00   1.81075496E+07   0.27863998      
  63               1.68115827E+00   7.19699622E+00   1423.55554195    1.43256403E-04   3.66186811E+19   1.36132619E+07   0.00000000E+00   1.74744809E+07   0.27691839      
  64               1.98892727E+00   8.20379103E+00   1461.91733375    1.59005336E-04   4.06459813E+19   1.36132619E+07   0.00000000E+00   1.68073955E+07   0.27588343      
  65               2.35303941E+00   9.37262084E+00   1496.88334672    1.77410105E-04   4.53522597E+19   1.36132619E+07   0.00000000E+00   1.61114782E+07   0.27405933      
  66               2.78380943E+00   1.07167431E+01   1538.06674660    1.97423095E-04   5.04676959E+19   1.36132619E+07   0.00000000E+00   1.53932591E+07   0.27298915      
  67               3.29344035E+00   1.22436943E+01   1576.55767609    2.20039110E-04   5.62507677E+19   1.36132619E+07   0.00000000E+00   1.46606412E+07   0.27114133      
  68               3.89636920E+00   1.39481769E+01   1622.05694387    2.43658408E-04   6.22840995E+19   1.36132619E+07   0.00000000E+00   1.39245023E+07   0.26997963      
  69               4.60967600E+00   1.57980105E+01   1665.39929024    2.68881893E-04   6.87084044E+19   1.36132619E+07   0.00000000E+00   1.32017666E+07   0.26804511      
  70               5.45356761E+00   1.77584587E+01   1715.72031532    2.93390887E-04   7.49695003E+19   1.36132623E+07   0.00000000E+00   1.25037668E+07   0.26670348      
  71               6.45195012E+00   1.97695575E+01   1764.38828466    3.17673537E-04   8.11574929E+19   1.26343516E+07   9.78880619E+05   1.18450042E+07   0.26457799      
  72               7.63310614E+00   2.17149416E+01   1809.49901558    3.40391735E-04   8.69212881E+19   1.08888133E+07   2.72436722E+06   1.12533887E+07   0.26323778      
  73               9.03049593E+00   2.34383871E+01   1845.25185082    3.60706112E-04   9.20021364E+19   9.04769218E+06   4.56539708E+06   1.07614991E+07   0.26151524      
  74               1.06837053E+01   2.48639071E+01   1874.72842654    3.76620754E-04   9.60631556E+19   7.93437675E+06   5.67870019E+06   1.03747363E+07   0.26066191      
  75               1.26395671E+01   2.64445013E+01   1904.21703214    3.94351918E-04   1.00587676E+20   7.44191999E+06   6.17124632E+06   9.96460158E+06   0.259088        
  76               1.49534878E+01   2.81899349E+01   1936.71260977    4.13312007E-04   1.05427700E+20   6.60937247E+06   7.00386801E+06   9.53226433E+06   0.25845058      
  77               1.76910170E+01   2.95905525E+01   1960.34955199    4.28748357E-04   1.09331523E+20   5.47803698E+06   8.13513808E+06   9.19952830E+06   0.25743018      
  78               2.09297047E+01   3.06403390E+01   1978.71893798    4.39830492E-04   1.12159301E+20   4.83859116E+06   8.77466667E+06   8.95778346E+06   0.25695905      
  79               2.47612977E+01   3.18270889E+01   1997.39872394    4.52585558E-04   1.15413866E+20   4.60413029E+06   9.00946731E+06   8.69179286E+06   0.25578646      
  80               2.92943389E+01   3.31632790E+01   2019.17525123    4.66490374E-04   1.18962283E+20   4.41270735E+06   9.20130068E+06   8.40099128E+06   0.25508156      
  81               3.46572422E+01   3.46594035E+01   2041.31035874    4.82238164E-04   1.22980962E+20   4.17885154E+06   9.43513164E+06   8.08555198E+06   0.25372155      
  82               4.10019301E+01   3.63406714E+01   2066.59729398    4.99416321E-04   1.27368763E+20   3.72135097E+06   9.91207061E+06   7.74296183E+06   0.25324458      
  83               4.85081376E+01   3.76151120E+01   2084.05779328    5.13029161E-04   1.30730957E+20   3.10015729E+06   1.05410321E+07   7.49115715E+06   0.25235444      
  84               5.73885036E+01   3.85537945E+01   2097.65910319    5.22413550E-04   1.33124520E+20   2.78044348E+06   1.08321207E+07   7.30983932E+06   0.25205614      
  85               6.78945948E+01   3.96296129E+01   2111.64431019    5.33426143E-04   1.35933000E+20   2.67193545E+06   1.09406226E+07   7.10604377E+06   0.251007        
  86               8.03240320E+01   4.08583531E+01   2128.45166646    5.45610122E-04   1.39041007E+20   2.59666235E+06   1.10158870E+07   6.87828148E+06   0.25052379      
  87               9.50289215E+01   4.22597880E+01   2145.91402944    5.59718485E-04   1.42639837E+20   2.49130799E+06   1.11212553E+07   6.62468279E+06   0.24931406      
  88               1.12425830E+02   4.38528937E+01   2166.31766362    5.75330206E-04   1.46622951E+20   2.40418218E+06   1.12083962E+07   6.34394469E+06   0.24862342      
  89               1.33007583E+02   4.56577904E+01   2187.57549972    5.93168215E-04   1.51174200E+20   2.29016091E+06   1.13224343E+07   6.03498273E+06   0.24720718      
  90               1.57357229E+02   4.76960320E+01   2211.77693024    6.12841560E-04   1.56194870E+20   2.18882252E+06   1.14237907E+07   5.69692343E+06   0.24625142      
  91               1.86164557E+02   4.99904686E+01   2236.96207466    6.35060134E-04   1.61865550E+20   2.06755255E+06   1.15450805E+07   5.32913775E+06   0.24456408      
  92               2.20245630E+02   5.25657290E+01   2264.99377032    6.59471634E-04   1.68097602E+20   1.95604339E+06   1.16566102E+07   4.93119918E+06   0.24331261      
  93               2.60565913E+02   5.54481003E+01   2294.07517520    6.86768328E-04   1.75067232E+20   1.83094273E+06   1.17817336E+07   4.50290006E+06   0.24138214      
  94               3.08267614E+02   5.86662376E+01   2325.82770600    7.16647347E-04   1.82699154E+20   1.71298134E+06   1.18997182E+07   4.04418052E+06   0.23980819      
  95               3.64702046E+02   6.22503091E+01   2358.62695540    7.49860628E-04   1.91164874E+20   1.58760616E+06   1.20251181E+07   3.55524935E+06   0.23761937      
  96               4.31467909E+02   6.62344236E+01   2393.86198093    7.86022248E-04   2.00405895E+20   1.47409605E+06   1.21386530E+07   3.03630007E+06   0.23571785      
  97               5.10456573E+02   7.06560752E+01   2430.10878197    8.25884561E-04   2.10595765E+20   1.36046710E+06   1.22523081E+07   2.48750737E+06   0.23331192      
  98               6.03905660E+02   7.55562376E+01   2468.54758727    8.69280269E-04   2.21694368E+20   1.25405241E+06   1.23587481E+07   1.90918237E+06   0.23104718      
  99               7.14462436E+02   8.09789926E+01   2507.89342920    9.16898584E-04   2.33877871E+20   1.14797306E+06   1.24648545E+07   1.30177423E+06   0.22841498      
  100              8.45258798E+02   8.69761462E+01   2549.20381864    9.68653388E-04   2.47127707E+20   1.04934708E+06   1.25635109E+07   6.65415929E+05   0.22580357      
  101              1.00000000E+03   9.36076116E+01   2591.31951747    1.02533855E-03   2.61647168E+20   9.93996832E+05   1.26188684E+07   0.00000000E+00   0.22300664      
