# ATMO pressure-temperature profile
# Effective temperature = 300.0K
# log(g) = 3.5cm/s^2
# M/H = 0.0
# Optical depth grid in band 17 (1.20-1.33microns)
# All parameters in cgs units
#
# Model Level      Optical Depth    Pressure         Temperature      Density          Number Density   Rad Flux         Conv Flux        Radial Extension Adiabatic Gradient
#                                   [Ba]             [K]              [g/cm^3]         [/cm^3]          [ergs/s/cm^2/sr] [ergs/s/cm^2/sr] [cm]             [K/Ba]          
  1                5.00000000E-05   1.00000000E-05   33.56912726      8.44480920E-09   2.15767381E+15   4.59188852E+05   0.00000000E+00   7.76158745E+07   0.34574454      
  2                5.91534807E-05   5.93826425E-05   40.58481472      4.14787676E-08   1.05979482E+16   4.59188852E+05   0.00000000E+00   7.67814895E+07   0.34574454      
  3                6.99826855E-05   1.17740237E-04   45.13050276      7.39579096E-08   1.88964653E+16   4.59188852E+05   0.00000000E+00   7.64482994E+07   0.31479413      
  4                8.27943887E-05   1.86704913E-04   47.85577244      1.10599027E-07   2.82583796E+16   4.59188852E+05   0.00000000E+00   7.62071652E+07   0.31480987      
  5                9.79515255E-05   2.68197264E-04   50.62752484      1.50174966E-07   3.83701492E+16   4.59188852E+05   0.00000000E+00   7.60072055E+07   0.31482278      
  6                1.15883473E-04   3.64475733E-04   52.66142071      1.96203133E-07   5.01304827E+16   4.59188852E+05   0.00000000E+00   7.58298367E+07   0.31483411      
  7                1.37098216E-04   4.78209122E-04   55.08120239      2.46118544E-07   6.28840181E+16   4.59188852E+05   0.00000000E+00   7.56661690E+07   0.31484446      
  8                1.62196734E-04   6.12536324E-04   56.88938493      3.05232309E-07   7.79877604E+16   4.59188852E+05   0.00000000E+00   7.55111887E+07   0.31485417      
  9                1.91890027E-04   7.71136255E-04   59.23593625      3.69041968E-07   9.42913177E+16   4.59188852E+05   0.00000000E+00   7.53617545E+07   0.31486345      
  10               2.27019260E-04   9.58367245E-04   60.97950090      4.45531063E-07   1.13834508E+17   4.59188852E+05   0.00000000E+00   7.52157384E+07   0.31487246      
  11               2.68579588E-04   1.17933172E-03   63.35587007      5.27690179E-07   1.34826406E+17   4.59188852E+05   0.00000000E+00   7.50716285E+07   0.31488128      
  12               3.17748350E-04   1.43998565E-03   65.17953137      6.26291938E-07   1.60019448E+17   4.59188852E+05   0.00000000E+00   7.49282492E+07   0.31488999      
  13               3.75918418E-04   1.74737212E-03   67.71792883      7.31495446E-07   1.86899257E+17   4.59188852E+05   0.00000000E+00   7.47846373E+07   0.31489866      
  14               4.44737657E-04   2.10975057E-03   69.69145274      8.58186122E-07   2.19269100E+17   4.59188852E+05   0.00000000E+00   7.46400048E+07   0.31490733      
  15               5.26155608E-04   2.53645378E-03   72.49767772      9.91819746E-07   2.53412887E+17   4.59188852E+05   0.00000000E+00   7.44937471E+07   0.31491604      
  16               6.22478712E-04   3.03609321E-03   74.80009574      1.15064893E-06   2.93994216E+17   4.59188852E+05   0.00000000E+00   7.43458468E+07   0.31492484      
  17               7.36435649E-04   3.61808980E-03   78.00970377      1.31480276E-06   3.35936005E+17   4.59188852E+05   0.00000000E+00   7.41962168E+07   0.31493371      
  18               8.71254639E-04   4.29324573E-03   80.69191288      1.50829270E-06   3.85373259E+17   4.59188852E+05   0.00000000E+00   7.40446057E+07   0.31494267      
  19               1.03075489E-03   5.07417932E-03   84.40451681      1.70423710E-06   4.35437635E+17   4.59188852E+05   0.00000000E+00   7.38905754E+07   0.3149517       
  20               1.21945479E-03   5.97612763E-03   87.64590578      1.93293889E-06   4.93871620E+17   4.59188852E+05   0.00000000E+00   7.37334278E+07   0.31496084      
  21               1.44269991E-03   7.01837764E-03   92.08979509      2.16050422E-06   5.52015238E+17   4.59188806E+05   0.00000000E+00   7.35721461E+07   0.3149701       
  22               1.70681442E-03   8.22258648E-03   96.22335138      2.42246697E-06   6.18947497E+17   4.59186980E+05   1.87336629E+00   7.34056916E+07   0.31497953      
  23               2.01928028E-03   9.61381699E-03   101.68487070     2.68021233E-06   6.84802519E+17   4.59179502E+05   9.35163202E+00   7.32330341E+07   0.31498918      
  24               2.38894914E-03   1.12229804E-02   106.12933985     2.99779103E-06   7.65946755E+17   4.59168211E+05   2.06418800E+01   7.30535133E+07   0.31499909      
  25               2.82629313E-03   1.30864528E-02   112.05802730     3.31058794E-06   8.45872312E+17   4.59154219E+05   3.46342482E+01   7.28664581E+07   0.31500931      
  26               3.34370152E-03   1.52467166E-02   116.88349909     3.69748140E-06   9.44819752E+17   4.59139149E+05   4.97041939E+01   7.26712035E+07   0.31958353      
  27               3.95583167E-03   1.77522116E-02   123.52806447     4.07396353E-06   1.04090877E+18   4.59119922E+05   6.89307015E+01   7.24670617E+07   0.3201297       
  28               4.68002425E-03   2.06592510E-02   128.82216978     4.54625643E-06   1.16158181E+18   4.59099364E+05   8.94898134E+01   7.22534547E+07   0.3240319       
  29               5.53679448E-03   2.40320872E-02   136.26632240     4.99957768E-06   1.27740554E+18   4.59078225E+05   1.10629768E+02   7.20297364E+07   0.32436223      
  30               6.55041330E-03   2.79459527E-02   142.08505638     5.57571901E-06   1.42461120E+18   4.59065684E+05   1.23168538E+02   7.17953195E+07   0.32576799      
  31               7.74959494E-03   3.24884008E-02   150.32929633     6.12653708E-06   1.56534673E+18   4.59063172E+05   1.25681080E+02   7.15495478E+07   0.3255821       
  32               9.16831029E-03   3.77612975E-02   156.71520962     6.83071380E-06   1.74526589E+18   4.59074835E+05   1.14018238E+02   7.12917918E+07   0.32485788      
  33               1.08467493E-02   4.38839710E-02   165.75354468     7.50539135E-06   1.91764819E+18   4.59091848E+05   9.70058955E+01   7.10213827E+07   0.32480686      
  34               1.28324595E-02   5.09941069E-02   172.77851357     8.36680885E-06   2.13774597E+18   4.59114679E+05   7.41742427E+01   7.07376487E+07   0.32354707      
  35               1.51816929E-02   5.92479561E-02   182.65974938     9.19514895E-06   2.34939670E+18   4.59125222E+05   6.36315383E+01   7.04400732E+07   0.32328349      
  36               1.79609996E-02   6.88230401E-02   190.36440459     1.02486618E-05   2.61862884E+18   4.59096149E+05   9.27053744E+01   7.01281630E+07   0.32004802      
  37               2.12491128E-02   7.99184839E-02   201.02068928     1.12696410E-05   2.87960102E+18   4.59102717E+05   8.61357936E+01   6.98016833E+07   0.31958711      
  38               2.51391797E-02   9.27576319E-02   209.41573150     1.25480371E-05   3.20823512E+18   4.59188851E+05   0.00000000E+00   6.94602600E+07   0.31591857      
  39               2.97413996E-02   1.07606414E-01   220.47603991     1.38359765E-05   3.53510730E+18   4.59188852E+05   0.00000000E+00   6.91038925E+07   0.31528875      
  40               3.51861462E-02   1.24792278E-01   228.24314575     1.54996127E-05   3.96018802E+18   4.59188852E+05   0.00000000E+00   6.87327796E+07   0.31220293      
  41               4.16276604E-02   1.44687525E-01   239.05024763     1.71583411E-05   4.38397157E+18   4.59188851E+05   0.00000000E+00   6.83469894E+07   0.31171331      
  42               4.92484201E-02   1.67718604E-01   247.19162208     1.92344998E-05   4.91443201E+18   4.59188851E+05   0.00000000E+00   6.79460892E+07   0.309198        
  43               5.82643093E-02   1.94387623E-01   259.04809254     2.12726508E-05   5.43518147E+18   4.59188852E+05   0.00000000E+00   6.75291663E+07   0.3086751       
  44               6.89307339E-02   2.25218740E-01   270.48226248     2.36047347E-05   6.03103118E+18   4.56722844E+05   2.46600812E+03   6.70940765E+07   0.30646568      
  45               8.15498567E-02   2.60848632E-01   283.47989299     2.60855327E-05   6.66487705E+18   4.51358814E+05   7.83003893E+03   6.66400146E+07   0.3058903       
  46               9.64791575E-02   3.01998260E-01   295.87572818     2.89353346E-05   7.39300398E+18   4.42905212E+05   1.62836414E+04   6.61663708E+07   0.30419496      
  47               1.14141560E-01   3.49503846E-01   309.86642605     3.19750214E-05   8.16964669E+18   4.31517799E+05   2.76710550E+04   6.56724868E+07   0.3037565       
  48               1.35037411E-01   4.04295831E-01   323.29128157     3.54518317E-05   9.05797484E+18   4.17586647E+05   4.16022077E+04   6.51578601E+07   0.3025319       
  49               1.59758657E-01   4.67423912E-01   338.35469889     3.91626552E-05   1.00060934E+19   4.01739051E+05   5.74498045E+04   6.46221040E+07   0.30218526      
  50               1.89005613E-01   5.40083541E-01   352.85613772     4.33907021E-05   1.10863633E+19   3.84753265E+05   7.44355923E+04   6.40647145E+07   0.30134591      
  51               2.23606798E-01   6.23672770E-01   369.07524536     4.79043957E-05   1.22396135E+19   3.67498321E+05   9.16905368E+04   6.34849330E+07   0.30115727      
  52               2.64542408E-01   7.19762791E-01   384.73433180     5.30349238E-05   1.35504678E+19   3.50840899E+05   1.08347961E+05   6.28820825E+07   0.30063728      
  53               3.12972084E-01   8.30087290E-01   402.20227837     5.85076296E-05   1.49487568E+19   3.35847998E+05   1.23340863E+05   6.22557792E+07   0.30051205      
  54               3.70267763E-01   9.56580504E-01   419.06772223     6.47107291E-05   1.65334373E+19   3.23005265E+05   1.36183597E+05   6.16056868E+07   0.30016955      
  55               4.38052539E-01   1.10145101E+00   437.84272442     7.13158438E-05   1.82210285E+19   3.12111096E+05   1.47077766E+05   6.09313160E+07   0.30009578      
  56               5.18246648E-01   1.26718984E+00   455.96582230     7.87858742E-05   2.01296040E+19   3.00736517E+05   1.58452347E+05   6.02321068E+07   0.29987974      
  57               6.13121862E-01   1.45650328E+00   476.11048213     8.67247504E-05   2.21579492E+19   2.85347759E+05   1.73841107E+05   5.95078612E+07   0.29983627      
  58               7.25365844E-01   1.67231055E+00   495.51343926     9.56760874E-05   2.44448475E+19   2.63486224E+05   1.95702645E+05   5.87586688E+07   0.29963         
  59               8.58158289E-01   1.91796565E+00   517.03817827     1.05161986E-04   2.68685390E+19   2.42076455E+05   2.17112416E+05   5.79842165E+07   0.29956113      
  60               1.01526100E+00   2.19768764E+00   537.77220540     1.15862055E-04   2.96001187E+19   2.25688344E+05   2.33500529E+05   5.71828450E+07   0.29933916      
  61               1.20112443E+00   2.51608550E+00   560.80301413     1.27200441E-04   3.24968223E+19   2.10921550E+05   2.48267324E+05   5.63534618E+07   0.29928683      
  62               1.42101382E+00   2.87790405E+00   582.97264624     1.39959252E-04   3.57564152E+19   1.96960112E+05   2.62228762E+05   5.54959390E+07   0.2990397       
  63               1.68115827E+00   3.28801548E+00   607.52129480     1.53442507E-04   3.92010940E+19   1.83842663E+05   2.75363144E+05   5.46109696E+07   0.29894415      
  64               1.98892727E+00   3.75158587E+00   631.05671115     1.68546463E-04   4.30598330E+19   1.71597454E+05   2.87609801E+05   5.36994143E+07   0.2985639       
  65               2.35303941E+00   4.27572282E+00   657.08352566     1.84485317E-04   4.71318845E+19   1.61528588E+05   2.97677131E+05   5.27594658E+07   0.29845778      
  66               2.78380943E+00   4.86819878E+00   682.08748496     2.02348828E-04   5.16956574E+19   1.52708185E+05   3.06500926E+05   5.17897612E+07   0.29797514      
  67               3.29344035E+00   5.53685444E+00   709.69134681     2.21190037E-04   5.65092361E+19   1.45793830E+05   3.13416580E+05   5.07902920E+07   0.29782087      
  68               3.89636920E+00   6.28959359E+00   736.16314845     2.42225560E-04   6.18834261E+19   1.39604448E+05   3.19601134E+05   4.97619165E+07   0.2970997       
  69               4.60967600E+00   7.13456115E+00   765.21161772     2.64336186E-04   6.75323012E+19   1.35297680E+05   3.23922878E+05   4.87059460E+07   0.29687828      
  70               5.45356761E+00   8.08347469E+00   793.09763046     2.88962831E-04   7.38239485E+19   1.32091919E+05   3.27130256E+05   4.76202022E+07   0.29594014      
  71               6.45195012E+00   9.15166951E+00   823.72562812     3.14984364E-04   8.04717766E+19   1.31208428E+05   3.28000711E+05   4.65005445E+07   0.29568628      
  72               7.63310614E+00   1.03538696E+01   853.32484163     3.44001900E-04   8.78848755E+19   1.31747985E+05   3.27482706E+05   4.53456240E+07   0.29449914      
  73               9.03049593E+00   1.17039773E+01   885.61494160     3.74682129E-04   9.57225751E+19   1.34624697E+05   3.24601087E+05   4.41564185E+07   0.29421617      
  74               1.06837053E+01   1.32144567E+01   916.82337466     4.08636986E-04   1.04397350E+20   1.38946504E+05   3.20259487E+05   4.29357028E+07   0.29276041      
  75               1.26395671E+01   1.48969509E+01   950.42036322     4.44380995E-04   1.13529178E+20   1.44953369E+05   3.14283861E+05   4.16871497E+07   0.29221276      
  76               1.49534878E+01   1.67714845E+01   982.96090570     4.83737135E-04   1.23583673E+20   1.51903252E+05   3.07324003E+05   4.04086199E+07   0.29064691      
  77               1.76910170E+01   1.88608813E+01   1017.88053022    5.25340659E-04   1.34211896E+20   1.58918183E+05   3.00287108E+05   3.90979422E+07   0.29007793      
  78               2.09297047E+01   2.11861493E+01   1051.89782015    5.71029750E-04   1.45882875E+20   1.64942491E+05   2.94261093E+05   3.77554137E+07   0.28831476      
  79               2.47612977E+01   2.37669222E+01   1088.04489162    6.19320748E-04   1.58216572E+20   1.70693064E+05   2.88501597E+05   3.63830690E+07   0.28744763      
  80               2.92943389E+01   2.66229109E+01   1123.28357628    6.71978637E-04   1.71669036E+20   1.77365522E+05   2.81827812E+05   3.49830917E+07   0.28562821      
  81               3.46572422E+01   2.97769950E+01   1160.41174145    7.27542761E-04   1.85863707E+20   1.84862042E+05   2.74327856E+05   3.35566095E+07   0.28475619      
  82               4.10019301E+01   3.32649995E+01   1196.83552179    7.88033093E-04   2.01316277E+20   1.92093759E+05   2.67095277E+05   3.20998909E+07   0.2829171       
  83               4.85081376E+01   3.71305465E+01   1235.17894347    8.52307176E-04   2.17734526E+20   1.99298832E+05   2.59890095E+05   3.06083301E+07   0.28203045      
  84               5.73885036E+01   4.14122021E+01   1273.11342927    9.22275212E-04   2.35606390E+20   2.05002128E+05   2.54223558E+05   2.90811727E+07   0.28008669      
  85               6.78945948E+01   4.61442298E+01   1312.70210500    9.96679920E-04   2.54610940E+20   2.09504724E+05   2.49705883E+05   2.75203995E+07   0.27897156      
  86               8.03240320E+01   5.13564634E+01   1351.89105337    1.07711117E-03   2.75156169E+20   2.11629614E+05   2.47580333E+05   2.59295962E+07   0.27706332      
  87               9.50289215E+01   5.70766552E+01   1392.35678451    1.16228895E-03   2.96916149E+20   2.12457790E+05   2.46732062E+05   2.43129154E+07   0.27592648      
  88               1.12425830E+02   6.33536145E+01   1432.51659726    1.25393215E-03   3.20329971E+20   2.11854584E+05   2.47381443E+05   2.26687089E+07   0.27405194      
  89               1.33007583E+02   7.02700838E+01   1474.01097641    1.35165723E-03   3.45299217E+20   2.11050796E+05   2.48138200E+05   2.09886846E+07   0.27276297      
  90               1.57357229E+02   7.78962730E+01   1515.58000126    1.45723000E-03   3.72274812E+20   2.08816211E+05   2.50373373E+05   1.92703338E+07   0.27103097      
  91               1.86164557E+02   8.62799154E+01   1558.33284494    1.56975649E-03   4.01028581E+20   2.05335368E+05   2.53853713E+05   1.75174447E+07   0.26976477      
  92               2.20245630E+02   9.54422755E+01   1600.95318917    1.69019495E-03   4.31805322E+20   1.99535550E+05   2.59653652E+05   1.57386540E+07   0.26806285      
  93               2.60565913E+02   1.05373658E+02   1644.12215105    1.81711274E-03   4.64219965E+20   1.91991088E+05   2.67213609E+05   1.39465814E+07   0.26683912      
  94               3.08267614E+02   1.16044307E+02   1686.66472754    1.95056431E-03   4.98334456E+20   1.82007436E+05   2.77320872E+05   1.21542361E+07   0.26516453      
  95               3.64702046E+02   1.27404244E+02   1729.00955357    2.09002442E-03   5.33718604E+20   1.70849290E+05   2.88839966E+05   1.03748782E+07   0.2639826       
  96               4.31467909E+02   1.39455298E+02   1770.50653309    2.23406165E-03   5.70510083E+20   1.58576872E+05   3.01167860E+05   8.61126226E+06   0.26233024      
  97               5.10456573E+02   1.52174586E+02   1811.50000290    2.38262636E-03   6.08456634E+20   1.48262672E+05   3.11593429E+05   6.86789443E+06   0.26119414      
  98               6.03905660E+02   1.65846619E+02   1852.49925692    2.53925996E-03   6.48446902E+20   1.37708673E+05   3.22248339E+05   5.11015784E+06   0.25953331      
  99               7.14462436E+02   1.80164136E+02   1892.64403489    2.70022513E-03   6.89485667E+20   1.25286395E+05   3.34999552E+05   3.38106384E+06   0.25860402      
  100              8.45258798E+02   1.94901401E+02   1931.47168816    2.86288708E-03   7.30890731E+20   1.14819200E+05   3.45689353E+05   1.70488812E+06   0.2570488       
  101              1.00000000E+03   2.10794993E+02   1970.59603385    3.03573623E-03   7.74798062E+20   1.10718865E+05   3.48654518E+05   0.00000000E+00   0.2558135       
