# ATMO pressure-temperature profile
# Effective temperature = 1300.0K
# log(g) = 3.0cm/s^2
# M/H = 0.0
# Optical depth grid in band 17 (1.20-1.33microns)
# All parameters in cgs units
#
# Model Level      Optical Depth    Pressure         Temperature      Density          Number Density   Rad Flux         Conv Flux        Radial Extension Adiabatic Gradient
#                                   [Ba]             [K]              [g/cm^3]         [/cm^3]          [ergs/s/cm^2/sr] [ergs/s/cm^2/sr] [cm]             [K/Ba]          
  1                1.00000000E-05   1.00000000E-05   316.93339025     8.94438911E-10   2.28537695E+14   1.61938487E+08   0.00000000E+00   5.45545368E+08   0.29747326      
  2                1.20226443E-05   1.79591651E-05   379.77810129     1.34052164E-09   3.42516946E+14   1.61938487E+08   0.00000000E+00   5.38276693E+08   0.29778064      
  3                1.44543977E-05   2.67291543E-05   404.19217976     1.87462646E-09   4.78986365E+14   1.61938486E+08   0.00000000E+00   5.32744405E+08   0.29787451      
  4                1.73780083E-05   3.68465847E-05   426.11998642     2.45123998E-09   6.26312637E+14   1.61938485E+08   0.00000000E+00   5.28024633E+08   0.29794844      
  5                2.08929613E-05   4.86321448E-05   441.24428161     3.12438700E-09   7.98307433E+14   1.61938485E+08   0.00000000E+00   5.23765954E+08   0.29796433      
  6                2.51188643E-05   6.24968007E-05   453.41721970     3.90733155E-09   9.98356422E+14   1.61938485E+08   0.00000000E+00   5.19797818E+08   0.29796358      
  7                3.01995172E-05   7.88662747E-05   464.63597063     4.81170492E-09   1.22943151E+15   1.61938485E+08   0.00000000E+00   5.16022573E+08   0.29794348      
  8                3.63078055E-05   9.82285504E-05   474.76378890     5.86517044E-09   1.49860089E+15   1.61938484E+08   0.00000000E+00   5.12377833E+08   0.29789936      
  9                4.36515832E-05   1.21153061E-04   484.90123015     7.08274481E-09   1.80970149E+15   1.61938484E+08   0.00000000E+00   5.08821037E+08   0.29785971      
  10               5.24807460E-05   1.48310086E-04   494.38025450     8.50413337E-09   2.17287833E+15   1.61938485E+08   0.00000000E+00   5.05321856E+08   0.2977827       
  11               6.30957344E-05   1.80494369E-04   503.99449350     1.01521578E-08   2.59396257E+15   1.61938485E+08   0.00000000E+00   5.01858082E+08   0.29772797      
  12               7.58577575E-05   2.18650677E-04   512.96921830     1.20831460E-08   3.08734640E+15   1.61938486E+08   0.00000000E+00   4.98413019E+08   0.29785443      
  13               9.12010839E-05   2.63916076E-04   522.07700476     1.43301845E-08   3.66148382E+15   1.61938487E+08   0.00000000E+00   4.94973082E+08   0.29779264      
  14               1.09647820E-04   3.17646926E-04   530.61490782     1.69701517E-08   4.33601773E+15   1.61938488E+08   0.00000000E+00   4.91527561E+08   0.29766466      
  15               1.31825674E-04   3.81452531E-04   539.43453934     2.00457483E-08   5.12185867E+15   1.61938490E+08   0.00000000E+00   4.88068128E+08   0.29760061      
  16               1.58489319E-04   4.57239966E-04   547.82647239     2.36603789E-08   6.04542738E+15   1.61938492E+08   0.00000000E+00   4.84588161E+08   0.29746305      
  17               1.90546072E-04   5.47271342E-04   556.58381346     2.78735743E-08   7.12193449E+15   1.61938495E+08   0.00000000E+00   4.81082364E+08   0.29739401      
  18               2.29086765E-04   6.54230918E-04   564.93109030     3.28288840E-08   8.38805806E+15   1.61938498E+08   0.00000000E+00   4.77546502E+08   0.29724371      
  19               2.75422870E-04   7.81303853E-04   573.67423302     3.86078106E-08   9.86462231E+15   1.61938502E+08   0.00000000E+00   4.73977166E+08   0.29716815      
  20               3.31131121E-04   9.32269400E-04   582.01138117     4.54078055E-08   1.16020783E+16   1.61938506E+08   0.00000000E+00   4.70371587E+08   0.29700432      
  21               3.98107171E-04   1.11160807E-03   590.78192796     5.33390271E-08   1.36285712E+16   1.61938511E+08   0.00000000E+00   4.66727522E+08   0.29692028      
  22               4.78630092E-04   1.32461997E-03   599.21467852     6.26656388E-08   1.60115986E+16   1.61938517E+08   0.00000000E+00   4.63043124E+08   0.29673847      
  23               5.75439937E-04   1.57756142E-03   608.21813045     7.35271119E-08   1.87867975E+16   1.61938522E+08   0.00000000E+00   4.59316792E+08   0.29664266      
  24               6.91830971E-04   1.87779399E-03   617.06020476     8.62663044E-08   2.20417588E+16   1.61938529E+08   0.00000000E+00   4.55547034E+08   0.29644133      
  25               8.31763771E-04   2.23402400E-03   626.51283505     1.01083133E-07   2.58275792E+16   1.61938535E+08   0.00000000E+00   4.51732244E+08   0.29633226      
  26               1.00000000E-03   2.65664676E-03   635.88198439     1.18434459E-07   3.02609899E+16   1.61938542E+08   0.00000000E+00   4.47869691E+08   0.29610692      
  27               1.20226443E-03   3.15794530E-03   645.93887871     1.38590907E-07   3.54110673E+16   1.61938551E+08   0.00000000E+00   4.43956868E+08   0.29597826      
  28               1.44543977E-03   3.75238638E-03   656.00291807     1.62152481E-07   4.14312102E+16   1.61938560E+08   0.00000000E+00   4.39991535E+08   0.29572269      
  29               1.73780083E-03   4.45698476E-03   666.80425625     1.89480471E-07   4.84137391E+16   1.61938572E+08   0.00000000E+00   4.35971798E+08   0.29557073      
  30               2.08929613E-03   5.29168776E-03   677.68628464     2.21354810E-07   5.65576497E+16   1.61938586E+08   0.00000000E+00   4.31896067E+08   0.29527997      
  31               2.51188643E-03   6.27974176E-03   689.53098976     2.58173691E-07   6.59650407E+16   1.61938604E+08   0.00000000E+00   4.27762926E+08   0.29509624      
  32               3.01995172E-03   7.44817070E-03   701.63934109     3.00925792E-07   7.68885248E+16   1.61938622E+08   0.00000000E+00   4.23570971E+08   0.29476098      
  33               3.63078055E-03   8.82831070E-03   714.80394892     3.50119501E-07   8.94574482E+16   1.61938638E+08   0.00000000E+00   4.19319046E+08   0.29453899      
  34               4.36515832E-03   1.04562437E-02   728.38044714     4.06951510E-07   1.03978430E+17   1.61938653E+08   0.00000000E+00   4.15006268E+08   0.29415049      
  35               5.24807460E-03   1.23732033E-02   743.24653797     4.71925842E-07   1.20579948E+17   1.61938665E+08   0.00000000E+00   4.10632007E+08   0.29387818      
  36               6.30957344E-03   1.46259512E-02   758.83791023     5.46384941E-07   1.39604990E+17   1.61938674E+08   0.00000000E+00   4.06195651E+08   0.29343606      
  37               7.58577575E-03   1.72694693E-02   775.81380385     6.31020489E-07   1.61230548E+17   1.61938681E+08   0.00000000E+00   4.01693591E+08   0.29327678      
  38               9.12010839E-03   2.03687849E-02   793.55183250     7.27628689E-07   1.85915528E+17   1.61938687E+08   0.00000000E+00   3.97119665E+08   0.29282637      
  39               1.09647820E-02   2.39971012E-02   813.03286189     8.36695094E-07   2.13784652E+17   1.61938686E+08   0.00000000E+00   3.92469518E+08   0.29241218      
  40               1.31825674E-02   2.82356572E-02   833.72171925     9.60040066E-07   2.45302868E+17   1.61938673E+08   0.00000000E+00   3.87740296E+08   0.29180333      
  41               1.58489319E-02   3.31733096E-02   856.46241197     1.09796293E-06   2.80547456E+17   1.61938645E+08   0.00000000E+00   3.82930992E+08   0.29128965      
  42               1.90546072E-02   3.89050819E-02   880.59558459     1.25237254E-06   3.20004194E+17   1.61938602E+08   0.00000000E+00   3.78043019E+08   0.29047434      
  43               2.29086765E-02   4.55296967E-02   907.13029211     1.42273643E-06   3.63538932E+17   1.61938539E+08   0.00000000E+00   3.73080158E+08   0.28976318      
  44               2.75422870E-02   5.31482988E-02   935.32176548     1.61070405E-06   4.11579909E+17   1.61938465E+08   0.00000000E+00   3.68047408E+08   0.2888341       
  45               3.31131121E-02   6.18895368E-02   966.01910361     1.81595809E-06   4.64042071E+17   1.61938380E+08   0.00000000E+00   3.62936331E+08   0.2881217       
  46               3.98107171E-02   7.18978595E-02   998.41472126     2.04112013E-06   5.21591884E+17   1.61938304E+08   0.00000000E+00   3.57737876E+08   0.28717387      
  47               4.78630092E-02   8.33162846E-02   1033.48919100    2.28495615E-06   5.83915220E+17   1.61938230E+08   0.00000000E+00   3.52450585E+08   0.28634742      
  48               5.75439937E-02   9.62770915E-02   1070.61935267    2.54879575E-06   6.51348942E+17   1.61938152E+08   0.00000000E+00   3.47079948E+08   0.28523393      
  49               6.91830971E-02   1.10893580E-01   1110.91727649    2.82921982E-06   7.23020356E+17   1.61938211E+08   0.00000000E+00   3.41636897E+08   0.28423367      
  50               8.31763771E-02   1.27244249E-01   1155.07663927    3.12223824E-06   7.97908701E+17   1.61701370E+08   2.75362611E+05   3.36135547E+08   0.28290359      
  51               1.00000000E-01   1.45517140E-01   1199.68717523    3.43781754E-06   8.78561107E+17   1.61052120E+08   8.92955229E+05   3.30558132E+08   0.28162871      
  52               1.20226443E-01   1.65955676E-01   1244.80300989    3.77856523E-06   9.65644609E+17   1.60066895E+08   1.87974562E+06   3.24887323E+08   0.27985438      
  53               1.44543977E-01   1.88793299E-01   1290.37504411    4.14672593E-06   1.05973300E+18   1.58768737E+08   3.17890072E+06   3.19117867E+08   0.27848588      
  54               1.73780083E-01   2.14255948E-01   1336.59939178    4.54324987E-06   1.16106750E+18   1.57153732E+08   4.79416824E+06   3.13251516E+08   0.27716301      
  55               2.08929613E-01   2.42571299E-01   1383.22235194    4.97035019E-06   1.27020336E+18   1.55208840E+08   6.73824775E+06   3.07292884E+08   0.27567373      
  56               2.51188643E-01   2.74048896E-01   1430.46170467    5.43003411E-06   1.38764272E+18   1.52884330E+08   9.06176154E+06   3.01233753E+08   0.27346677      
  57               3.01995172E-01   3.08921365E-01   1477.80022352    5.92699519E-06   1.51411219E+18   1.50106936E+08   1.18391213E+07   2.95086185E+08   0.27131357      
  58               3.63078055E-01   3.47211388E-01   1525.33727187    6.45415826E-06   1.64874662E+18   1.46678120E+08   1.52664933E+07   2.88895337E+08   0.26927097      
  59               4.36515832E-01   3.88437675E-01   1571.84328299    7.00810401E-06   1.78993781E+18   1.42420871E+08   1.95280377E+07   2.82765273E+08   0.26754471      
  60               5.24807460E-01   4.30981756E-01   1616.17094976    7.56476535E-06   1.93151209E+18   1.37286310E+08   2.46750995E+07   2.76922009E+08   0.26605087      
  61               6.30957344E-01   4.71276275E-01   1654.82989907    8.08743428E-06   2.06275694E+18   1.31632102E+08   3.03306889E+07   2.71769761E+08   0.26461028      
  62               7.58577575E-01   5.05783882E-01   1686.11188224    8.51863555E-06   2.17272337E+18   1.26412161E+08   3.55437866E+07   2.67612333E+08   0.26319109      
  63               9.12010839E-01   5.44443148E-01   1718.92153122    8.99428123E-06   2.29415272E+18   1.20884284E+08   4.10652859E+07   2.63195757E+08   0.26207538      
  64               1.09647820E+00   5.76629169E-01   1745.07076740    9.39214755E-06   2.39336758E+18   1.15933115E+08   4.59954018E+07   2.59693352E+08   0.26117792      
  65               1.31825674E+00   6.00976732E-01   1763.87082476    9.68425426E-06   2.46783841E+18   1.12054263E+08   4.98615957E+07   2.57140415E+08   0.26013842      
  66               1.58489319E+00   6.28776536E-01   1784.83679698    1.00129926E-05   2.55166499E+18   1.08020390E+08   5.39069515E+07   2.54317311E+08   0.25895338      
  67               1.90546072E+00   6.60370906E-01   1807.46790637    1.03841460E-05   2.64632498E+18   1.03615629E+08   5.83239477E+07   2.51218874E+08   0.2576374       
  68               2.29086765E+00   6.96093743E-01   1832.24665583    1.07974280E-05   2.75175416E+18   9.87223851E+07   6.32315348E+07   2.47845219E+08   0.25613995      
  69               2.75422870E+00   7.36238806E-01   1858.54857541    1.12579685E-05   2.86926478E+18   9.32585311E+07   6.87230576E+07   2.44204036E+08   0.25443322      
  70               3.31131121E+00   7.81005039E-01   1886.72269034    1.17634438E-05   2.99827596E+18   8.72790971E+07   7.47342166E+07   2.40313998E+08   0.25249724      
  71               3.98107171E+00   8.30498323E-01   1915.97971456    1.23169886E-05   3.13959546E+18   8.11602789E+07   8.08303893E+07   2.36202240E+08   0.25039774      
  72               4.78630092E+00   8.85438313E-01   1946.98430051    1.29214547E-05   3.29398563E+18   7.54046660E+07   8.65460153E+07   2.31847307E+08   0.24806074      
  73               5.75439937E+00   9.46959473E-01   1979.40814931    1.35913081E-05   3.46514872E+18   6.99345153E+07   9.20150909E+07   2.27204942E+08   0.24538834      
  74               6.91830971E+00   1.01569360E+00   2013.70419729    1.43274772E-05   3.65336345E+18   6.45265041E+07   9.74267006E+07   2.22279352E+08   0.24241189      
  75               8.31763771E+00   1.09233946E+00   2049.17175437    1.51393163E-05   3.86104711E+18   5.91619564E+07   1.02797243E+08   2.17075171E+08   0.23911031      
  76               1.00000000E+01   1.17767369E+00   2086.26081355    1.60284147E-05   4.08867141E+18   5.39100634E+07   1.08057154E+08   2.11597110E+08   0.23559235      
  77               1.20226443E+01   1.27255764E+00   2124.27111490    1.70055559E-05   4.33903703E+18   4.88120807E+07   1.13164224E+08   2.05849935E+08   0.23176601      
  78               1.44543977E+01   1.37795118E+00   2163.63575723    1.80733701E-05   4.61291574E+18   4.39522334E+07   1.18033207E+08   1.99838171E+08   0.22778956      
  79               1.73780083E+01   1.49492033E+00   2203.68033270    1.92442662E-05   4.91354902E+18   3.93432230E+07   1.22652801E+08   1.93566196E+08   0.2235249       
  80               2.08929613E+01   1.62465325E+00   2244.80651354    2.05223350E-05   5.24212784E+18   3.50337052E+07   1.26974201E+08   1.87038049E+08   0.2190211       
  81               2.51188643E+01   1.76847236E+00   2286.33205792    2.19223933E-05   5.60253798E+18   3.10253014E+07   1.31003593E+08   1.80257522E+08   0.21417905      
  82               3.01995172E+01   1.92786348E+00   2328.63807725    2.34504668E-05   5.99653154E+18   2.73299647E+07   1.34720042E+08   1.73227621E+08   0.20932374      
  83               3.63078055E+01   2.10424681E+00   2371.09447078    2.51237237E-05   6.42796731E+18   2.39266393E+07   1.38122911E+08   1.65960586E+08   0.20446989      
  84               4.36515832E+01   2.29940009E+00   2414.11190867    2.69443865E-05   6.89894980E+18   2.09270399E+07   1.41117773E+08   1.58459823E+08   0.19964374      
  85               5.24807460E+01   2.51548865E+00   2457.15010778    2.89360508E-05   7.41509148E+18   1.82560337E+07   1.43794213E+08   1.50720835E+08   0.19481567      
  86               6.30957344E+01   2.75465651E+00   2500.61163249    3.11073393E-05   7.97897392E+18   1.58664407E+07   1.46188308E+08   1.42748998E+08   0.19018448      
  87               7.58577575E+01   3.01927112E+00   2543.98261092    3.34797996E-05   8.59634454E+18   1.37478938E+07   1.48310132E+08   1.34549300E+08   0.18566012      
  88               9.12010839E+01   3.31192736E+00   2587.65213405    3.60641936E-05   9.27044861E+18   1.19132940E+07   1.50145646E+08   1.26126903E+08   0.18120486      
  89               1.09647820E+02   3.63546915E+00   2631.07891001    3.88861637E-05   1.00081183E+19   1.03228638E+07   1.51734720E+08   1.17487131E+08   0.17701819      
  90               1.31825674E+02   3.99300007E+00   2674.77220192    4.19565509E-05   1.08128046E+19   8.95495460E+06   1.53098270E+08   1.08635483E+08   0.17302224      
  91               1.58489319E+02   4.38784397E+00   2718.13895266    4.53052067E-05   1.16924457E+19   7.76013503E+06   1.54284405E+08   9.95790008E+07   0.1691607       
  92               1.90546072E+02   4.82354833E+00   2761.67499209    4.89437043E-05   1.26508558E+19   6.72989888E+06   1.55299589E+08   9.03261026E+07   0.16549387      
  93               2.29086765E+02   5.30387732E+00   2804.79901507    5.29048136E-05   1.36967511E+19   5.83819308E+06   1.56170142E+08   8.08865570E+07   0.16221787      
  94               2.75422870E+02   5.83279300E+00   2848.13035014    5.71970262E-05   1.48334626E+19   5.06995558E+06   1.56912977E+08   7.12713045E+07   0.15918666      
  95               3.31131121E+02   6.41447444E+00   2890.99869750    6.18577453E-05   1.60708565E+19   4.39891503E+06   1.57557248E+08   6.14919571E+07   0.15639383      
  96               3.98107171E+02   7.05333870E+00   2934.04978236    6.68939351E-05   1.74121781E+19   3.82087348E+06   1.58112666E+08   5.15601830E+07   0.15378453      
  97               4.78630092E+02   7.75411215E+00   2976.57872821    7.23484669E-05   1.88686376E+19   3.32001420E+06   1.58605997E+08   4.14867379E+07   0.151452        
  98               5.75439937E+02   8.52183098E+00   3019.32169771    7.82255498E-05   2.04432231E+19   2.88885414E+06   1.59063118E+08   3.12815304E+07   0.14924217      
  99               6.91830971E+02   9.36161341E+00   3061.46938027    8.45745704E-05   2.21486175E+19   2.51109445E+06   1.59526061E+08   2.09567486E+07   0.14721471      
  100              8.31763771E+02   1.02786428E+01   3103.80690789    9.13928252E-05   2.39865021E+19   2.18423727E+06   1.60035436E+08   1.05259922E+07   0.14533302      
  101              1.00000000E+03   1.12785263E+01   3145.49555098    9.87362754E-05   2.59710268E+19   2.02055112E+06   1.60325779E+08   0.00000000E+00   0.14370521      
