# ATMO pressure-temperature profile
# Effective temperature = 1400.0K
# log(g) = 4.5cm/s^2
# M/H = 0.0
# Optical depth grid in band 17 (1.20-1.33microns)
# All parameters in cgs units
#
# Model Level      Optical Depth    Pressure         Temperature      Density          Number Density   Rad Flux         Conv Flux        Radial Extension Adiabatic Gradient
#                                   [Ba]             [K]              [g/cm^3]         [/cm^3]          [ergs/s/cm^2/sr] [ergs/s/cm^2/sr] [cm]             [K/Ba]          
  1                5.00000000E-06   1.00000000E-05   446.21515476     6.34966749E-10   1.62323547E+14   2.17817383E+08   0.00000000E+00   2.10283897E+07   0.29755585      
  2                6.05313423E-06   1.17971409E-04   513.01055370     6.51547140E-09   1.66562146E+15   2.17817383E+08   0.00000000E+00   1.93497389E+07   0.29904587      
  3                7.32808679E-06   2.39975414E-04   533.58400581     1.27426478E-08   3.25754022E+15   2.17817383E+08   0.00000000E+00   1.89263189E+07   0.29892497      
  4                8.87157859E-06   3.83099999E-04   555.43306007     1.95423376E-08   4.99581405E+15   2.17817383E+08   0.00000000E+00   1.86395077E+07   0.29880985      
  5                1.07401712E-05   5.52332486E-04   565.54750541     2.76711970E-08   7.07387426E+15   2.17817384E+08   0.00000000E+00   1.84093733E+07   0.29873227      
  6                1.30023396E-05   7.53320141E-04   581.56573481     3.67009708E-08   9.38224152E+15   2.17817384E+08   0.00000000E+00   1.82099313E+07   0.29863677      
  7                1.57409813E-05   9.92503853E-04   588.64093889     4.77726037E-08   1.22125844E+16   2.17817385E+08   0.00000000E+00   1.80292957E+07   0.29857081      
  8                1.90564546E-05   1.27756174E-03   602.61986497     6.00670019E-08   1.53555117E+16   2.17817386E+08   0.00000000E+00   1.78610184E+07   0.29847968      
  9                2.30702555E-05   1.61750086E-03   608.52919441     7.53114370E-08   1.92525802E+16   2.17817386E+08   0.00000000E+00   1.77011904E+07   0.2984143       
  10               2.79294706E-05   2.02312156E-03   621.65534400     9.22084567E-08   2.35720931E+16   2.17817387E+08   0.00000000E+00   1.75472671E+07   0.2983194       
  11               3.38121669E-05   2.50731053E-03   626.91722662     1.13317428E-07   2.89683501E+16   2.17817389E+08   0.00000000E+00   1.73974777E+07   0.29826402      
  12               4.09339169E-05   3.08571715E-03   639.46446287     1.36722125E-07   3.49514775E+16   2.17817390E+08   0.00000000E+00   1.72505291E+07   0.29819288      
  13               4.95556987E-05   3.77695896E-03   644.30839314     1.66091683E-07   4.24594453E+16   2.17817392E+08   0.00000000E+00   1.71054728E+07   0.29810242      
  14               5.99934592E-05   4.60337323E-03   656.54730421     1.98660179E-07   5.07850641E+16   2.17817394E+08   0.00000000E+00   1.69616033E+07   0.29797646      
  15               7.26296922E-05   5.59155059E-03   661.10186314     2.39643073E-07   6.12617949E+16   2.17817396E+08   0.00000000E+00   1.68183855E+07   0.29789328      
  16               8.79274551E-05   6.77329546E-03   673.23944213     2.85057048E-07   7.28712650E+16   2.17817399E+08   0.00000000E+00   1.66754055E+07   0.29777352      
  17               1.06447338E-04   8.18656584E-03   677.61650723     3.42309825E-07   8.75071665E+16   2.17817402E+08   0.00000000E+00   1.65323351E+07   0.29768437      
  18               1.28868005E-04   9.87670902E-03   689.72343855     4.05734186E-07   1.03720145E+17   2.17817406E+08   0.00000000E+00   1.63889205E+07   0.29755135      
  19               1.56011066E-04   1.18976280E-02   694.01759763     4.85729616E-07   1.24169732E+17   2.17817411E+08   0.00000000E+00   1.62449642E+07   0.29746256      
  20               1.88871184E-04   1.43132898E-02   706.45881089     5.74060381E-07   1.46750117E+17   2.17817416E+08   0.00000000E+00   1.61003003E+07   0.29731215      
  21               2.28652526E-04   1.71993792E-02   711.11565299     6.85295276E-07   1.75185587E+17   2.17817423E+08   0.00000000E+00   1.59547905E+07   0.2971764       
  22               2.76812886E-04   2.06451790E-02   724.23148383     8.07698508E-07   2.06474818E+17   2.17817431E+08   0.00000000E+00   1.58083279E+07   0.29695101      
  23               3.35117111E-04   2.47554962E-02   729.56159621     9.61430864E-07   2.45773759E+17   2.17817440E+08   0.00000000E+00   1.56608280E+07   0.29676878      
  24               4.05701771E-04   2.96532546E-02   743.85410919     1.12951816E-06   2.88742319E+17   2.17817451E+08   0.00000000E+00   1.55122030E+07   0.29652879      
  25               4.91153455E-04   3.54821957E-02   750.26800366     1.33999446E-06   3.42546789E+17   2.17817463E+08   0.00000000E+00   1.53623755E+07   0.29634402      
  26               5.94603558E-04   4.24108294E-02   765.85041107     1.56906874E-06   4.01105535E+17   2.17817478E+08   0.00000000E+00   1.52112718E+07   0.29608472      
  27               7.19843029E-04   5.06382468E-02   773.56423587     1.85477712E-06   4.74141662E+17   2.17817494E+08   0.00000000E+00   1.50587624E+07   0.29586721      
  28               8.71461295E-04   6.03985584E-02   790.85507768     2.16391052E-06   5.53166033E+17   2.17817514E+08   0.00000000E+00   1.49046995E+07   0.29556485      
  29               1.05501444E-03   7.19629410E-02   800.29211648     2.54782872E-06   6.51307688E+17   2.17817536E+08   0.00000000E+00   1.47489532E+07   0.29528824      
  30               1.27722880E-03   8.56446504E-02   819.56788391     2.96091127E-06   7.56904607E+17   2.17817564E+08   0.00000000E+00   1.45914307E+07   0.29488117      
  31               1.54624747E-03   1.01798136E-01   831.14968022     3.47032985E-06   8.87128282E+17   2.17817595E+08   0.00000000E+00   1.44320748E+07   0.29448862      
  32               1.87192870E-03   1.20831429E-01   852.96001424     4.01385275E-06   1.02607021E+18   2.17817632E+08   0.00000000E+00   1.42708069E+07   0.29395954      
  33               2.26620714E-03   1.43200055E-01   867.28794724     4.67832514E-06   1.19592987E+18   2.17817671E+08   0.00000000E+00   1.41075718E+07   0.29345934      
  34               2.74353120E-03   1.69412533E-01   891.99817991     5.38136807E-06   1.37564828E+18   2.17817717E+08   0.00000000E+00   1.39423693E+07   0.29282117      
  35               3.32139252E-03   2.00012318E-01   909.51441927     6.23102605E-06   1.59284308E+18   2.17817760E+08   0.00000000E+00   1.37752632E+07   0.29221387      
  36               4.02096694E-03   2.35602102E-01   937.62142593     7.11988233E-06   1.82002552E+18   2.17817807E+08   0.00000000E+00   1.36062929E+07   0.29145054      
  37               4.86789053E-03   2.76902087E-01   958.83516428     8.18277075E-06   2.09174200E+18   2.17817835E+08   0.00000000E+00   1.34351877E+07   0.29071441      
  38               5.89319895E-03   3.24733350E-01   990.64698107     9.28794192E-06   2.37429027E+18   2.17817865E+08   0.00000000E+00   1.32616867E+07   0.28981542      
  39               7.13446485E-03   3.79938298E-01   1015.93294965    1.05962818E-05   2.70878083E+18   2.17817869E+08   0.00000000E+00   1.30857155E+07   0.2889323       
  40               8.63717467E-03   4.43423110E-01   1051.86213337    1.19441297E-05   3.05341154E+18   2.17817864E+08   0.00000000E+00   1.29072657E+07   0.2878636       
  41               1.04563955E-02   5.16148893E-01   1081.47751474    1.35220878E-05   3.45687237E+18   2.17817818E+08   0.00000000E+00   1.27263029E+07   0.28676649      
  42               1.26587931E-02   5.99143905E-01   1121.39379657    1.51372593E-05   3.86989192E+18   2.17817777E+08   0.00000000E+00   1.25428576E+07   0.28548078      
  43               1.53250748E-02   6.93487859E-01   1154.85463201    1.70128497E-05   4.34948043E+18   2.17817694E+08   0.00000000E+00   1.23569479E+07   0.28428923      
  44               1.85529469E-02   8.00642356E-01   1198.21302865    1.89304150E-05   4.83983286E+18   2.17817625E+08   0.00000000E+00   1.21681305E+07   0.28291066      
  45               2.24606956E-02   9.22191355E-01   1235.02556412    2.11540721E-05   5.40842659E+18   2.17817550E+08   0.00000000E+00   1.19760539E+07   0.28166265      
  46               2.71915211E-02   1.06011098E+00   1281.34506591    2.34383105E-05   5.99254181E+18   2.17817479E+08   0.00000000E+00   1.17801847E+07   0.28021114      
  47               3.29187854E-02   1.21679583E+00   1320.79089244    2.60985377E-05   6.67282121E+18   2.17817439E+08   0.00000000E+00   1.15798501E+07   0.27890393      
  48               3.98523653E-02   1.39563979E+00   1369.07923693    2.88777121E-05   7.38364145E+18   2.17817411E+08   0.00000000E+00   1.13738415E+07   0.27738966      
  49               4.82463432E-02   1.60107496E+00   1409.80136865    3.21703283E-05   8.22582712E+18   2.17817399E+08   0.00000000E+00   1.11607007E+07   0.27587178      
  50               5.84083183E-02   1.83846851E+00   1458.76137048    3.56994342E-05   9.12846553E+18   2.17817407E+08   0.00000000E+00   1.09391808E+07   0.27425265      
  51               7.07106781E-02   2.11055963E+00   1500.42695301    3.98460310E-05   1.01884615E+19   2.17817503E+08   0.00000000E+00   1.07110441E+07   0.27265801      
  52               8.56042452E-02   2.41372710E+00   1550.44037696    4.41180635E-05   1.12761005E+19   2.17817649E+08   0.00000000E+00   1.04823678E+07   0.27101591      
  53               1.03634797E-01   2.74406256E+00   1593.60358577    4.87987599E-05   1.24720990E+19   2.17834714E+08   0.00000000E+00   1.02572325E+07   0.26939335      
  54               1.25463068E-01   3.09372458E+00   1645.66285439    5.32841451E-05   1.36165355E+19   2.17512195E+08   3.68896403E+05   1.00403861E+07   0.26762787      
  55               1.51888958E-01   3.43447378E+00   1692.25232827    5.75447417E-05   1.47001215E+19   2.13694484E+08   4.26710735E+06   9.84578535E+06   0.26596448      
  56               1.83880850E-01   3.74053783E+00   1730.89559104    6.13202727E-05   1.56526913E+19   2.08125871E+08   1.00397849E+07   9.68284382E+06   0.26450404      
  57               2.22611093E-01   3.99281478E+00   1761.04104255    6.43793349E-05   1.64223584E+19   2.02477440E+08   1.56055565E+07   9.55587026E+06   0.26337281      
  58               2.69498965E-01   4.27279458E+00   1792.62269401    6.76782781E-05   1.72642996E+19   1.96444976E+08   2.12874111E+07   9.42173930E+06   0.2621095       
  59               3.26262682E-01   4.51996537E+00   1819.22568956    7.05662127E-05   1.79959330E+19   1.90621238E+08   2.68144997E+07   9.30863187E+06   0.26108517      
  60               3.94982361E-01   4.72411067E+00   1840.24293722    7.29099546E-05   1.85939108E+19   1.85295074E+08   3.18938874E+07   9.21863080E+06   0.26020531      
  61               4.78176250E-01   4.95873528E+00   1863.61847455    7.55697354E-05   1.92725755E+19   1.79427040E+08   3.77344164E+07   9.11867538E+06   0.25925402      
  62               5.78893005E-01   5.22695675E+00   1889.14324981    7.85764250E-05   2.00405601E+19   1.72324284E+08   4.48653874E+07   9.00860419E+06   0.2581114       
  63               7.00823412E-01   5.43382970E+00   1908.15681868    8.09410323E-05   2.06261323E+19   1.65474141E+08   5.18710445E+07   8.92656478E+06   0.25731964      
  64               8.48435636E-01   5.58778810E+00   1921.87708178    8.26389330E-05   2.10591171E+19   1.59725525E+08   5.77327094E+07   8.86703604E+06   0.25670733      
  65               1.02713896E+00   5.76739982E+00   1937.56744121    8.46029470E-05   2.15600156E+19   1.54115672E+08   6.33322773E+07   8.79910790E+06   0.25606599      
  66               1.24348200E+00   5.97613609E+00   1955.23329511    8.68709266E-05   2.21384767E+19   1.48288246E+08   6.91498067E+07   8.72211192E+06   0.25525529      
  67               1.50539269E+00   6.21714409E+00   1975.06721743    8.94642972E-05   2.28000024E+19   1.42001683E+08   7.54319892E+07   8.63566102E+06   0.25438231      
  68               1.82246880E+00   6.49321461E+00   1996.95105810    9.24100266E-05   2.35514785E+19   1.35243241E+08   8.22000372E+07   8.53964673E+06   0.25329327      
  69               2.20632965E+00   6.80836055E+00   2021.04469843    9.57359793E-05   2.44001484E+19   1.28329853E+08   8.91238165E+07   8.43369334E+06   0.25212254      
  70               2.67104190E+00   7.16888505E+00   2047.42487655    9.95015532E-05   2.53611814E+19   1.21360756E+08   9.60991813E+07   8.31688264E+06   0.25072585      
  71               3.23363503E+00   7.57963562E+00   2076.16876811    1.03739565E-04   2.64430480E+19   1.14183657E+08   1.03286666E+08   8.18903535E+06   0.24923177      
  72               3.91472538E+00   8.04581072E+00   2107.17495158    1.08491154E-04   2.76563623E+19   1.06773804E+08   1.10710934E+08   8.05007839E+06   0.24746559      
  73               4.73927163E+00   8.57302193E+00   2140.42577763    1.13793574E-04   2.90107931E+19   9.91911067E+07   1.18311748E+08   7.90003068E+06   0.24558502      
  74               5.73748947E+00   9.16734617E+00   2175.80810987    1.19689739E-04   3.05174948E+19   9.15044197E+07   1.26019953E+08   7.73898946E+06   0.2434616       
  75               6.94595877E+00   9.83541125E+00   2213.23010376    1.26223167E-04   3.21878371E+19   8.38328278E+07   1.33715964E+08   7.56711080E+06   0.24122438      
  76               8.40896415E+00   1.05844653E+01   2252.58381323    1.33440510E-04   3.40340633E+19   7.62577057E+07   1.41317720E+08   7.38459469E+06   0.23862749      
  77               1.01801177E+01   1.14224989E+01   2293.67432958    1.41396981E-04   3.60707531E+19   6.88595006E+07   1.48743724E+08   7.19166492E+06   0.235885        
  78               1.23243238E+01   1.23578325E+01   2336.42388474    1.50155140E-04   3.83103841E+19   6.17303300E+07   1.55901366E+08   6.98866711E+06   0.23283327      
  79               1.49201573E+01   1.34002275E+01   2380.56951562    1.59755910E-04   4.07715425E+19   5.51400688E+07   1.62519897E+08   6.77583547E+06   0.2297118       
  80               1.80627429E+01   1.45608859E+01   2426.15989613    1.70273873E-04   4.34704583E+19   4.91385763E+07   1.68548291E+08   6.55329717E+06   0.22630713      
  81               2.18672415E+01   1.58517762E+01   2472.83617177    1.81799451E-04   4.64310416E+19   4.36765605E+07   1.74035584E+08   6.32127887E+06   0.22289062      
  82               2.64730696E+01   1.72863862E+01   2520.75231770    1.94395799E-04   4.96706538E+19   3.87113392E+07   1.79024388E+08   6.07995639E+06   0.21924161      
  83               3.20490087E+01   1.88797875E+01   2569.45882585    2.08181920E-04   5.32207853E+19   3.42704245E+07   1.83486444E+08   5.82948147E+06   0.21560048      
  84               3.87993903E+01   2.06487088E+01   2619.23034861    2.23228055E-04   5.71011751E+19   3.02969256E+07   1.87478995E+08   5.56999356E+06   0.21177562      
  85               4.69715834E+01   2.26117869E+01   2669.52022297    2.39685347E-04   6.13518283E+19   2.67420415E+07   1.91050958E+08   5.30161531E+06   0.20805572      
  86               5.68650599E+01   2.47895885E+01   2720.75757679    2.57627349E-04   6.59941304E+19   2.35512817E+07   1.94256313E+08   5.02447037E+06   0.20416884      
  87               6.88423680E+01   2.72048124E+01   2772.24454891    2.77246175E-04   7.10787917E+19   2.06867275E+07   1.97133414E+08   4.73868876E+06   0.20040768      
  88               8.33424188E+01   2.98822753E+01   2824.57468086    2.98613588E-04   7.66278146E+19   1.81383867E+07   1.99692694E+08   4.44442145E+06   0.19651015      
  89               1.00896570E+02   3.28489457E+01   2876.88251048    3.21967679E-04   8.27037399E+19   1.59115359E+07   2.01929250E+08   4.14185923E+06   0.19308433      
  90               1.22148096E+02   3.61337454E+01   2930.10705213    3.47344837E-04   8.93213611E+19   1.39383438E+07   2.03911658E+08   3.83123943E+06   0.18938232      
  91               1.47875764E+02   3.97682178E+01   2982.94099575    3.75069263E-04   9.65644577E+19   1.22051636E+07   2.05654045E+08   3.51281085E+06   0.18630797      
  92               1.79022369E+02   4.37858432E+01   3036.87126484    4.05102940E-04   1.04431899E+20   1.06509052E+07   2.07219021E+08   3.18687033E+06   0.18283226      
  93               2.16729286E+02   4.82196413E+01   3089.91388576    4.37877460E-04   1.13032528E+20   9.26829060E+06   2.08613385E+08   2.85396247E+06   0.18005467      
  94               2.62378292E+02   5.31024567E+01   3144.21568819    4.73193646E-04   1.22328633E+20   8.03334100E+06   2.09860477E+08   2.51474182E+06   0.17684468      
  95               3.17642204E+02   5.84703528E+01   3197.06225425    5.11652644E-04   1.32467842E+20   6.95241181E+06   2.10954896E+08   2.16975362E+06   0.17458537      
  96               3.84546179E+02   6.43607199E+01   3251.56160289    5.52853002E-04   1.43368832E+20   6.02163949E+06   2.11900516E+08   1.81951999E+06   0.17197278      
  97               4.65541927E+02   7.08140759E+01   3304.12965489    5.97641856E-04   1.55234537E+20   5.13312669E+06   2.12804073E+08   1.46448804E+06   0.16725898      
  98               5.63597555E+02   7.78812929E+01   3356.94058588    6.45852158E-04   1.68041031E+20   4.46017850E+06   2.13493790E+08   1.10476471E+06   0.16565317      
  99               6.82306330E+02   8.56104241E+01   3409.64055490    6.97755309E-04   1.81862807E+20   3.87080477E+06   2.14101072E+08   7.40665500E+05   0.16407328      
  100              8.26018359E+02   9.40547399E+01   3462.49806288    7.53510964E-04   1.96751018E+20   3.35319153E+06   2.14635978E+08   3.72387883E+05   0.16234599      
  101              1.00000000E+03   1.03274300E+02   3515.07550577    8.13493039E-04   2.12805791E+20   3.10453455E+06   2.14896853E+08   0.00000000E+00   0.16115885      
