# ATMO pressure-temperature profile
# Effective temperature = 600.0K
# log(g) = 5.5cm/s^2
# M/H = 0.0
# Optical depth grid in band 17 (1.20-1.33microns)
# All parameters in cgs units
#
# Model Level      Optical Depth    Pressure         Temperature      Density          Number Density   Rad Flux         Conv Flux        Radial Extension Adiabatic Gradient
#                                   [Ba]             [K]              [g/cm^3]         [/cm^3]          [ergs/s/cm^2/sr] [ergs/s/cm^2/sr] [cm]             [K/Ba]          
  1                8.00000000E-07   1.00000000E-05   64.78297687      4.37617344E-09   1.11805956E+15   7.34804447E+06   0.00000000E+00   1.22164783E+06   0.34574572      
  2                9.86413681E-07   8.87685557E-05   85.37804091      2.94759896E-08   7.53076002E+15   7.34804447E+06   0.00000000E+00   1.19971618E+06   0.34574572      
  3                1.21626494E-06   1.78198116E-04   95.40743979      5.29512537E-08   1.35284084E+16   7.34804447E+06   0.00000000E+00   1.19255790E+06   0.31479377      
  4                1.49967547E-06   2.84417945E-04   102.41687669     7.87210061E-08   2.01145956E+16   7.34804447E+06   0.00000000E+00   1.18735528E+06   0.31480952      
  5                1.84912550E-06   4.11987493E-04   109.32299958     1.06838646E-07   2.72959574E+16   7.34804447E+06   0.00000000E+00   1.18295644E+06   0.31689805      
  6                2.28000336E-06   5.65927732E-04   115.37819873     1.39057079E-07   3.55273702E+16   7.34804447E+06   0.00000000E+00   1.17896260E+06   0.31923887      
  7                2.81128314E-06   7.52088097E-04   122.29462740     1.74348100E-07   4.45437911E+16   7.34804447E+06   0.00000000E+00   1.17518181E+06   0.3223238       
  8                3.46636019E-06   9.77559103E-04   128.12109888     2.16310824E-07   5.52647499E+16   7.34804447E+06   0.00000000E+00   1.17151032E+06   0.32367788      
  9                4.27408139E-06   1.25098887E-03   134.75144802     2.63193941E-07   6.72428083E+16   7.34804447E+06   0.00000000E+00   1.16788648E+06   0.32517596      
  10               5.27001545E-06   1.58292565E-03   140.37991707     3.19677018E-07   8.16735392E+16   7.34804447E+06   0.00000000E+00   1.16426770E+06   0.32566154      
  11               6.49801917E-06   1.98625102E-03   146.96025110     3.83168785E-07   9.78949047E+16   7.34804447E+06   0.00000000E+00   1.16062348E+06   0.32594493      
  12               8.01216876E-06   2.47653273E-03   152.63291754     4.59993345E-07   1.17522685E+17   7.34804447E+06   0.00000000E+00   1.15693052E+06   0.32583803      
  13               9.87914110E-06   3.07265350E-03   159.30875649     5.46801665E-07   1.39701085E+17   7.34804447E+06   0.00000000E+00   1.15317177E+06   0.32525666      
  14               1.21811499E-05   3.79788908E-03   164.92947356     6.52827132E-07   1.66789936E+17   7.34804447E+06   0.00000000E+00   1.14933324E+06   0.32476283      
  15               1.50195662E-05   4.68065624E-03   171.56330764     7.73460646E-07   1.97609662E+17   7.34804447E+06   0.00000000E+00   1.14540472E+06   0.32362548      
  16               1.85193820E-05   5.75520698E-03   177.21663686     9.20665682E-07   2.35224360E+17   7.34804447E+06   0.00000000E+00   1.14137795E+06   0.32292387      
  17               2.28347147E-05   7.06306236E-03   183.98194446     1.08836290E-06   2.78063302E+17   7.34804447E+06   0.00000000E+00   1.13724632E+06   0.32146987      
  18               2.81555937E-05   8.65440483E-03   189.78140204     1.29266783E-06   3.30300625E+17   7.34804447E+06   0.00000000E+00   1.13300371E+06   0.32066123      
  19               3.47163285E-05   1.05900581E-02   196.76333550     1.52584405E-06   3.89834262E+17   7.34804447E+06   0.00000000E+00   1.12864529E+06   0.31904049      
  20               4.28058268E-05   1.29429813E-02   202.81270695     1.80810725E-06   4.62237313E+17   7.34804447E+06   0.00000000E+00   1.12416567E+06   0.31816605      
  21               5.27803164E-05   1.58030177E-02   210.05596006     2.13285611E-06   5.44917629E+17   7.34804447E+06   0.00000000E+00   1.11956015E+06   0.31648838      
  22               6.50790328E-05   1.92779469E-02   216.42416430     2.52530591E-06   6.45179963E+17   7.34804447E+06   0.00000000E+00   1.11482528E+06   0.31554652      
  23               8.02435604E-05   2.34960608E-02   223.95649782     2.97433825E-06   7.59901374E+17   7.34804447E+06   0.00000000E+00   1.10995823E+06   0.31390212      
  24               9.89416822E-05   2.86141716E-02   230.57253965     3.51829752E-06   8.98875273E+17   7.34804447E+06   0.00000000E+00   1.10495503E+06   0.31294627      
  25               1.21996786E-04   3.48218801E-02   238.20520144     4.14438360E-06   1.05883141E+18   7.34804447E+06   0.00000000E+00   1.09981417E+06   0.31145266      
  26               1.50424124E-04   4.23489991E-02   244.91330564     4.90218554E-06   1.25243908E+18   7.34804447E+06   0.00000000E+00   1.09453332E+06   0.31065556      
  27               1.85475517E-04   5.14732385E-02   252.65573178     5.77578894E-06   1.47563238E+18   7.34804447E+06   0.00000000E+00   1.08911087E+06   0.30932753      
  28               2.28694484E-04   6.25290545E-02   259.57714729     6.82927162E-06   1.74478230E+18   7.34804447E+06   0.00000000E+00   1.08354416E+06   0.30857399      
  29               2.81984210E-04   7.59203451E-02   267.65889921     8.04147043E-06   2.05448193E+18   7.34804447E+06   0.00000000E+00   1.07782980E+06   0.3074292       
  30               3.47691354E-04   9.21328209E-02   275.05029526     9.49644900E-06   2.42620835E+18   7.34804447E+06   0.00000000E+00   1.07196301E+06   0.30677086      
  31               4.28709385E-04   1.11750857E-01   283.63344402     1.11699805E-05   2.85377194E+18   7.34804447E+06   0.00000000E+00   1.06593951E+06   0.30577329      
  32               5.28606003E-04   1.35476710E-01   291.54976221     1.31737963E-05   3.36571849E+18   7.34804447E+06   0.00000000E+00   1.05975451E+06   0.30520857      
  33               6.51780242E-04   1.64167699E-01   300.60540867     1.54828149E-05   3.95564001E+18   7.34804447E+06   0.00000000E+00   1.05340171E+06   0.30438169      
  34               8.03656185E-04   1.98861269E-01   309.12531706     1.82378919E-05   4.65952312E+18   7.34804447E+06   0.00000000E+00   1.04687286E+06   0.30384941      
  35               9.90921819E-04   2.40807088E-01   318.96251674     2.14036888E-05   5.46833932E+18   7.34804447E+06   0.00000000E+00   1.04015923E+06   0.30314129      
  36               1.22182355E-03   2.91494351E-01   328.45745624     2.51599652E-05   6.42801463E+18   7.34804447E+06   0.00000000E+00   1.03325207E+06   0.30275563      
  37               1.50652933E-03   3.52692000E-01   339.34422204     2.94655246E-05   7.52802390E+18   7.34804446E+06   0.00000000E+00   1.02614448E+06   0.3022776       
  38               1.85757643E-03   4.26494424E-01   349.97762939     3.45487315E-05   8.82671110E+18   7.34804447E+06   0.00000000E+00   1.01882976E+06   0.30195363      
  39               2.29042351E-03   5.15430463E-01   362.10736953     4.03544814E-05   1.03099975E+19   7.34804447E+06   0.00000000E+00   1.01129767E+06   0.30148044      
  40               2.82413135E-03   6.22510258E-01   374.22810477     4.71594975E-05   1.20485824E+19   7.34804447E+06   0.00000000E+00   1.00353560E+06   0.3011567       
  41               3.48220225E-03   7.51269567E-01   388.10461810     5.48789878E-05   1.40208010E+19   7.34804446E+06   0.00000000E+00   9.95531900E+05   0.30084191      
  42               4.29361493E-03   9.05822403E-01   402.24091828     6.38433765E-05   1.63110774E+19   7.34804447E+06   0.00000000E+00   9.87275020E+05   0.30064743      
  43               5.29410063E-03   1.09106308E+00   418.37299965     7.39345037E-05   1.88891341E+19   7.34804447E+06   0.00000000E+00   9.78748819E+05   0.30041244      
  44               6.52771662E-03   1.31259252E+00   435.09222412     8.55282490E-05   2.18511573E+19   7.34804447E+06   0.00000000E+00   9.69939282E+05   0.30023361      
  45               8.04878622E-03   1.57676131E+00   454.21387990     9.84161876E-05   2.51438277E+19   7.34804446E+06   0.00000000E+00   9.60833999E+05   0.30005772      
  46               9.92429106E-03   1.89061920E+00   474.38593365     1.12988203E-04   2.88667639E+19   7.34804447E+06   0.00000000E+00   9.51421970E+05   0.29994213      
  47               1.22368206E-02   2.26267550E+00   497.39314971     1.28968880E-04   3.29494610E+19   7.34804447E+06   0.00000000E+00   9.41675423E+05   0.29979907      
  48               1.50882091E-02   2.70228211E+00   521.70631184     1.46860034E-04   3.75172014E+19   7.34804447E+06   0.00000000E+00   9.31574024E+05   0.29964553      
  49               1.86040198E-02   3.22050798E+00   546.66112601     1.67034263E-04   4.26709221E+19   7.34804447E+06   0.00000000E+00   9.21110825E+05   0.29946827      
  50               2.29390746E-02   3.82933666E+00   573.53738459     1.89304606E-04   4.83601521E+19   7.34804446E+06   0.00000000E+00   9.10283735E+05   0.29932213      
  51               2.82842712E-02   4.54398865E+00   600.92442726     2.14396009E-04   5.47700604E+19   7.34804449E+06   0.00000000E+00   8.99065987E+05   0.29912336      
  52               3.48749902E-02   5.38073817E+00   629.85314752     2.42215423E-04   6.18768783E+19   7.34804444E+06   0.00000000E+00   8.87454543E+05   0.29889603      
  53               4.30014593E-02   6.35696775E+00   658.80240043     2.73586034E-04   6.98909067E+19   7.34804452E+06   0.00000000E+00   8.75462199E+05   0.29862992      
  54               5.30215347E-02   7.49166383E+00   688.94421263     3.08313914E-04   7.87626038E+19   7.34804444E+06   0.00000000E+00   8.63107390E+05   0.29834275      
  55               6.53764590E-02   8.81015539E+00   719.16259530     3.47340225E-04   8.87324182E+19   7.34804451E+06   0.00000000E+00   8.50366398E+05   0.29792952      
  56               8.06102920E-02   1.03410507E+01   751.13150243     3.90343513E-04   9.97182227E+19   7.34804449E+06   0.00000000E+00   8.37218859E+05   0.29747138      
  57               9.93938685E-02   1.21133590E+01   784.03773648     4.38051848E-04   1.11906023E+20   7.34804450E+06   0.00000000E+00   8.23665309E+05   0.29689179      
  58               1.22554340E-01   1.41602861E+01   819.76665774     4.89755613E-04   1.25114492E+20   7.34804066E+06   0.00000000E+00   8.09690369E+05   0.29626166      
  59               1.51111597E-01   1.65197537E+01   857.73236591     5.46074086E-04   1.39501093E+20   7.30803395E+06   4.00499970E+04   7.95262599E+05   0.29543393      
  60               1.86323183E-01   1.92423082E+01   897.50665816     6.07885109E-04   1.55290657E+20   7.22238005E+06   1.25719072E+05   7.80319499E+05   0.29450548      
  61               2.29739671E-01   2.23710327E+01   937.84926531     6.76323508E-04   1.72774176E+20   7.14534179E+06   2.02782038E+05   7.64889022E+05   0.2933449       
  62               2.83272943E-01   2.59445648E+01   979.73975458     7.50821943E-04   1.91805695E+20   7.10047262E+06   2.47700867E+05   7.49030890E+05   0.29211692      
  63               3.49280383E-01   3.00021395E+01   1021.80522737    8.32503853E-04   2.12671819E+20   7.10704419E+06   2.41096313E+05   7.32801391E+05   0.29066469      
  64               4.30668686E-01   3.46035565E+01   1065.28415281    9.21003175E-04   2.35277887E+20   7.17749044E+06   1.70604681E+05   7.16183789E+05   0.28920095      
  65               5.31021855E-01   3.98268318E+01   1109.03862133    1.01823056E-03   2.60108731E+20   7.30284425E+06   4.52183623E+04   6.99127276E+05   0.28755501      
  66               6.54759028E-01   4.57450719E+01   1154.31389383    1.12366594E-03   2.87042518E+20   7.34798667E+06   0.00000000E+00   6.81630784E+05   0.28602544      
  67               8.07329079E-01   5.24444670E+01   1196.30635154    1.24300976E-03   3.17528789E+20   7.34804440E+06   0.00000000E+00   6.63704931E+05   0.28440192      
  68               9.95450561E-01   5.99999271E+01   1238.84990170    1.37325258E-03   3.50798616E+20   7.34804429E+06   0.00000000E+00   6.45417673E+05   0.28292104      
  69               1.22740757E+00   6.85134595E+01   1278.69214835    1.51925191E-03   3.88092937E+20   7.34804433E+06   0.00000000E+00   6.26778790E+05   0.28134039      
  70               1.51341452E+00   7.81366584E+01   1319.99389446    1.67843397E-03   4.28754559E+20   7.34804456E+06   0.00000000E+00   6.07721871E+05   0.27988607      
  71               1.86606598E+00   8.89950331E+01   1359.56524911    1.85604011E-03   4.74123578E+20   7.34804427E+06   0.00000000E+00   5.88267407E+05   0.27831771      
  72               2.30089127E+00   1.01193752E+02   1401.73274798    2.04696002E-03   5.22894795E+20   7.34804491E+06   0.00000000E+00   5.68476476E+05   0.27685965      
  73               2.83703828E+00   1.14860111E+02   1443.25174629    2.25655825E-03   5.76438501E+20   7.34804445E+06   0.00000000E+00   5.48368180E+05   0.27521843      
  74               3.49811672E+00   1.30101914E+02   1488.41911604    2.47842500E-03   6.33117454E+20   7.34804556E+06   0.00000000E+00   5.27987168E+05   0.27363666      
  75               4.31323774E+00   1.47104391E+02   1533.95009794    2.71912512E-03   6.94608742E+20   7.34804662E+06   0.00000000E+00   5.07275724E+05   0.27190482      
  76               5.31829590E+00   1.65997774E+02   1583.93789738    2.97150143E-03   7.59084204E+20   7.34745593E+06   0.00000000E+00   4.86256909E+05   0.27024389      
  77               6.55754979E+00   1.86814490E+02   1634.87809365    3.23991719E-03   8.27658203E+20   7.09693185E+06   2.51750006E+05   4.65041145E+05   0.26843797      
  78               8.08557104E+00   2.09548426E+02   1686.16195347    3.52361034E-03   9.00141858E+20   6.69324588E+06   6.57920611E+05   4.43763873E+05   0.26674116      
  79               9.96964736E+00   2.34166425E+02   1736.42666932    3.82544897E-03   9.76773837E+20   6.25039275E+06   1.10546977E+06   4.22557257E+05   0.26497178      
  80               1.22927457E+01   2.60769707E+02   1786.75249332    4.14007845E-03   1.05710611E+21   5.82134243E+06   1.54046322E+06   4.01417872E+05   0.26331827      
  81               1.51571657E+01   2.89661288E+02   1836.44563631    4.47429778E-03   1.14245268E+21   5.40725979E+06   1.94079501E+06   3.80190019E+05   0.26158427      
  82               1.86890445E+01   3.21092159E+02   1886.70698209    4.82780673E-03   1.23268208E+21   4.98844734E+06   2.35960622E+06   3.58804406E+05   0.25996108      
  83               2.30439114E+01   3.55170176E+02   1936.40688749    5.20362085E-03   1.32851270E+21   4.51742038E+06   2.83063189E+06   3.37303810E+05   0.25824907      
  84               2.84135369E+01   3.91545748E+02   1985.88163932    5.59532912E-03   1.42808807E+21   3.99128066E+06   3.35677033E+06   3.15985414E+05   0.25667347      
  85               3.50343769E+01   4.29468310E+02   2033.15656331    5.99775317E-03   1.52998136E+21   3.56541833E+06   3.78263178E+06   2.95283822E+05   0.25499596      
  86               4.31979859E+01   4.71681727E+02   2082.44730740    6.43659326E-03   1.64059306E+21   3.19351275E+06   4.15453659E+06   2.73798357E+05   0.25338824      
  87               5.32638553E+01   5.15404207E+02   2129.33236970    6.87877204E-03   1.75319548E+21   2.73507101E+06   4.61297744E+06   2.53019232E+05   0.25162253      
  88               6.56752445E+01   5.59068359E+02   2173.44058733    7.30986624E-03   1.86312923E+21   2.42137891E+06   4.92666894E+06   2.33547008E+05   0.25010218      
  89               8.09786996E+01   6.08633995E+02   2219.74411343    7.79156923E-03   1.98599949E+21   2.13225118E+06   5.21579663E+06   2.12778074E+05   0.24823196      
  90               9.98481215E+01   6.56723163E+02   2262.05691081    8.25183907E-03   2.10283234E+21   1.75188830E+06   5.59615906E+06   1.93812095E+05   0.24682874      
  91               1.23114441E+02   7.01061382E+02   2298.57231540    8.66871463E-03   2.20914241E+21   1.52459993E+06   5.82344706E+06   1.77234331E+05   0.24562159      
  92               1.51802212E+02   7.52836031E+02   2339.23221764    9.14767656E-03   2.33105703E+21   1.43604959E+06   5.91199761E+06   1.58847788E+05   0.24426783      
  93               1.87174723E+02   8.13202508E+02   2383.41383072    9.69718350E-03   2.47129786E+21   1.23502500E+06   6.11302155E+06   1.38579444E+05   0.24280743      
  94               2.30789634E+02   8.63692371E+02   2418.57144695    1.01584289E-02   2.58658052E+21   9.56329903E+05   6.39171649E+06   1.22490566E+05   0.24164216      
  95               2.84567566E+02   9.02961099E+02   2444.48295538    1.05073781E-02   2.67551794E+21   8.16507540E+05   6.53153862E+06   1.10471060E+05   0.24076442      
  96               3.50876675E+02   9.49518292E+02   2474.37205037    1.09152417E-02   2.77948397E+21   7.81727354E+05   6.56631842E+06   9.67235756E+04   0.23973045      
  97               4.32636941E+02   1.00436137E+03   2507.65388763    1.13919233E-02   2.90100346E+21   7.43463993E+05   6.60458196E+06   8.11708313E+04   0.23854856      
  98               5.33448747E+02   1.06855972E+03   2545.08018496    1.19411786E-02   3.04104727E+21   7.05963238E+05   6.64208202E+06   6.37646996E+04   0.23719245      
  99               6.57751428E+02   1.14338011E+03   2585.95931918    1.25744713E-02   3.20254164E+21   6.67322607E+05   6.68072259E+06   4.44560407E+04   0.23569576      
  100              8.11018759E+02   1.23026030E+03   2631.02901751    1.32971047E-02   3.38685974E+21   6.29577585E+05   6.71846792E+06   2.32090159E+04   0.23405905      
  101              1.00000000E+03   1.33083572E+03   2679.50211882    1.41226113E-02   3.59746173E+21   6.08070173E+05   6.73997487E+06   0.00000000E+00   0.23231928      
