# ATMO pressure-temperature profile
# Effective temperature = 1300.0K
# log(g) = 4.5cm/s^2
# M/H = 0.0
# Optical depth grid in band 17 (1.20-1.33microns)
# All parameters in cgs units
#
# Model Level      Optical Depth    Pressure         Temperature      Density          Number Density   Rad Flux         Conv Flux        Radial Extension Adiabatic Gradient
#                                   [Ba]             [K]              [g/cm^3]         [/cm^3]          [ergs/s/cm^2/sr] [ergs/s/cm^2/sr] [cm]             [K/Ba]          
  1                5.00000000E-06   1.00000000E-05   415.37220613     6.82177516E-10   1.74376681E+14   1.61937780E+08   0.00000000E+00   1.98242378E+07   0.29746868      
  2                6.05313423E-06   1.10823384E-04   463.41156148     6.77640350E-09   1.73216948E+15   1.61937780E+08   0.00000000E+00   1.83413337E+07   0.29748579      
  3                7.32808679E-06   2.25666031E-04   491.53983014     1.30089430E-08   3.32531902E+15   1.61937780E+08   0.00000000E+00   1.79545372E+07   0.2975896       
  4                8.87157859E-06   3.60395143E-04   503.04179911     2.03006163E-08   5.18920342E+15   1.61937780E+08   0.00000000E+00   1.76923655E+07   0.29905564      
  5                1.07401712E-05   5.19756075E-04   520.98005200     2.82691449E-08   7.22610585E+15   1.61937780E+08   0.00000000E+00   1.74820017E+07   0.29897942      
  6                1.30023396E-05   7.08977994E-04   527.94529770     3.80520336E-08   9.72679290E+15   1.61937780E+08   0.00000000E+00   1.72995591E+07   0.2989162       
  7                1.57409813E-05   9.34331725E-04   542.58917075     4.87937106E-08   1.24725661E+16   1.61937780E+08   0.00000000E+00   1.71341750E+07   0.29884987      
  8                1.90564546E-05   1.20309030E-03   547.74430605     6.22377768E-08   1.59091212E+16   1.61937780E+08   0.00000000E+00   1.69799505E+07   0.29879079      
  9                2.30702555E-05   1.52399185E-03   561.03413564     7.69709616E-08   1.96752019E+16   1.61937780E+08   0.00000000E+00   1.68333345E+07   0.29872714      
  10               2.79294706E-05   1.90734227E-03   565.40165851     9.55883481E-08   2.44341589E+16   1.61937780E+08   0.00000000E+00   1.66920059E+07   0.29867002      
  11               3.38121669E-05   2.36554160E-03   578.05227777     1.15956935E-07   2.96407584E+16   1.61937780E+08   0.00000000E+00   1.65543789E+07   0.29860515      
  12               4.09339169E-05   2.91332913E-03   581.88513639     1.41868309E-07   3.62642022E+16   1.61937780E+08   0.00000000E+00   1.64193207E+07   0.29854651      
  13               4.95556987E-05   3.56841952E-03   594.14862144     1.70182049E-07   4.35017424E+16   1.61937780E+08   0.00000000E+00   1.62859987E+07   0.29848037      
  14               5.99934592E-05   4.35188764E-03   597.64559710     2.06332070E-07   5.27423880E+16   1.61937780E+08   0.00000000E+00   1.61537836E+07   0.29842026      
  15               7.26296922E-05   5.28901895E-03   609.67218664     2.45816721E-07   6.28354283E+16   1.61937780E+08   0.00000000E+00   1.60221971E+07   0.29835032      
  16               8.79274551E-05   6.40986841E-03   612.96295955     2.96310757E-07   7.57426895E+16   1.61937780E+08   0.00000000E+00   1.58908659E+07   0.29828733      
  17               1.06447338E-04   7.75035089E-03   625.06966865     3.51338145E-07   8.98087765E+16   1.61937780E+08   0.00000000E+00   1.57594873E+07   0.29820785      
  18               1.28868005E-04   9.35356731E-03   628.32650401     4.21817030E-07   1.07824570E+17   1.61937780E+08   0.00000000E+00   1.56277928E+07   0.29814138      
  19               1.56011066E-04   1.12710842E-02   640.61785573     4.98538738E-07   1.27436106E+17   1.61937780E+08   0.00000000E+00   1.54955635E+07   0.29805463      
  20               1.88871184E-04   1.35642296E-02   644.00905535     5.96808877E-07   1.52555897E+17   1.61937780E+08   0.00000000E+00   1.53626208E+07   0.29797992      
  21               2.28652526E-04   1.63058965E-02   656.85061522     7.03412386E-07   1.79805889E+17   1.61937780E+08   0.00000000E+00   1.52288098E+07   0.29788249      
  22               2.76812886E-04   1.95824575E-02   660.63706111     8.39916340E-07   2.14699038E+17   1.61937780E+08   0.00000000E+00   1.50940081E+07   0.29779837      
  23               3.35117111E-04   2.34958867E-02   674.24011912     9.87437748E-07   2.52407984E+17   1.61937779E+08   0.00000000E+00   1.49581190E+07   0.29768874      
  24               4.05701771E-04   2.81663333E-02   678.77146463     1.17581522E-06   3.00560965E+17   1.61937779E+08   0.00000000E+00   1.48210516E+07   0.29759103      
  25               4.91153455E-04   3.37352470E-02   693.58336728     1.37821635E-06   3.52298719E+17   1.61937779E+08   0.00000000E+00   1.46827134E+07   0.29744039      
  26               5.94603558E-04   4.03677796E-02   699.19868201     1.63593558E-06   4.18176960E+17   1.61937779E+08   0.00000000E+00   1.45430323E+07   0.29737994      
  27               7.19843029E-04   4.82564659E-02   715.42996812     1.91127446E-06   4.88555857E+17   1.61937779E+08   0.00000000E+00   1.44019539E+07   0.29723459      
  28               8.71461295E-04   5.76239229E-02   722.54342784     2.25981764E-06   5.77649904E+17   1.61937780E+08   0.00000000E+00   1.42594183E+07   0.29705741      
  29               1.05501444E-03   6.87301027E-02   740.52521830     2.62991297E-06   6.72253357E+17   1.61937780E+08   0.00000000E+00   1.41153536E+07   0.29684624      
  30               1.27722880E-03   8.18709246E-02   749.37795913     3.09574387E-06   7.91324514E+17   1.61937780E+08   0.00000000E+00   1.39697174E+07   0.29666038      
  31               1.54624747E-03   9.73882275E-02   769.35206289     3.58688394E-06   9.16868767E+17   1.61937780E+08   0.00000000E+00   1.38224606E+07   0.29644092      
  32               1.87192870E-03   1.15684209E-01   780.39835229     4.20042801E-06   1.07370155E+18   1.61937781E+08   0.00000000E+00   1.36734044E+07   0.29624103      
  33               2.26620714E-03   1.37230283E-01   802.86595387     4.84331196E-06   1.23803453E+18   1.61937781E+08   0.00000000E+00   1.35223441E+07   0.29597452      
  34               2.74353120E-03   1.62550616E-01   816.62626978     5.64027848E-06   1.44175383E+18   1.61937782E+08   0.00000000E+00   1.33691480E+07   0.29566278      
  35               3.32139252E-03   1.92236836E-01   842.02421849     6.46914535E-06   1.65362819E+18   1.61937782E+08   0.00000000E+00   1.32137371E+07   0.29525073      
  36               4.02096694E-03   2.26930514E-01   859.11684380     7.48471658E-06   1.91322701E+18   1.61937783E+08   0.00000000E+00   1.30560707E+07   0.29485513      
  37               4.86789053E-03   2.67360549E-01   888.01432402     8.53123850E-06   2.18073650E+18   1.61937784E+08   0.00000000E+00   1.28960742E+07   0.29441041      
  38               5.89319895E-03   3.14281885E-01   908.85813296     9.79847056E-06   2.50466179E+18   1.61937785E+08   0.00000000E+00   1.27337866E+07   0.29394266      
  39               7.13446485E-03   3.68504267E-01   941.44733350     1.10915585E-05   2.83512578E+18   1.61937786E+08   0.00000000E+00   1.25693097E+07   0.29334317      
  40               8.63717467E-03   4.30971330E-01   966.33859827     1.26375343E-05   3.23031514E+18   1.61937786E+08   0.00000000E+00   1.24024607E+07   0.29269421      
  41               1.04563955E-02   5.02820868E-01   1002.86800892    1.42070967E-05   3.63157782E+18   1.61937786E+08   0.00000000E+00   1.22328941E+07   0.29192225      
  42               1.26587931E-02   5.85216784E-01   1031.87552315    1.60701280E-05   4.10785686E+18   1.61937786E+08   0.00000000E+00   1.20604520E+07   0.29111966      
  43               1.53250748E-02   6.79409692E-01   1072.16249928    1.79551171E-05   4.58983385E+18   1.61937784E+08   0.00000000E+00   1.18850984E+07   0.29020194      
  44               1.85529469E-02   7.86640343E-01   1104.83021849    2.01738533E-05   5.15711138E+18   1.61937783E+08   0.00000000E+00   1.17069301E+07   0.28922612      
  45               2.24606956E-02   9.08308573E-01   1148.26106979    2.24122910E-05   5.72952491E+18   1.61937780E+08   0.00000000E+00   1.15259879E+07   0.28809612      
  46               2.71915211E-02   1.04633139E+00   1183.86024534    2.50411073E-05   6.40169028E+18   1.61937777E+08   0.00000000E+00   1.13417490E+07   0.28687844      
  47               3.29187854E-02   1.20297302E+00   1229.88353844    2.77117906E-05   7.08463918E+18   1.61937774E+08   0.00000000E+00   1.11537099E+07   0.28546977      
  48               3.98523653E-02   1.38073250E+00   1267.74993538    3.08561138E-05   7.88863369E+18   1.61937770E+08   0.00000000E+00   1.09614760E+07   0.28391882      
  49               4.82463432E-02   1.58292256E+00   1315.61663522    3.40865820E-05   8.71477447E+18   1.61937767E+08   0.00000000E+00   1.07643255E+07   0.28220831      
  50               5.84083183E-02   1.81431810E+00   1354.85860088    3.79364821E-05   9.69940962E+18   1.61937763E+08   0.00000000E+00   1.05608393E+07   0.28052126      
  51               7.07106781E-02   2.08277360E+00   1403.66221949    4.20330329E-05   1.07474465E+19   1.61937761E+08   0.00000000E+00   1.03482459E+07   0.27882551      
  52               8.56042452E-02   2.39649488E+00   1443.89257272    4.70153289E-05   1.20217436E+19   1.61937759E+08   0.00000000E+00   1.01250788E+07   0.27716723      
  53               1.03634797E-01   2.76353346E+00   1494.07213451    5.23943301E-05   1.33973530E+19   1.61937757E+08   0.00000000E+00   9.89122025E+06   0.27534776      
  54               1.25463068E-01   3.18357258E+00   1536.22316341    5.87057235E-05   1.50101933E+19   1.61937758E+08   0.00000000E+00   9.65171659E+06   0.27351233      
  55               1.51888958E-01   3.64608433E+00   1587.86632333    6.50738086E-05   1.66317754E+19   1.61937759E+08   0.00000000E+00   9.41506573E+06   0.27161501      
  56               1.83880850E-01   4.14233778E+00   1631.24757561    7.19685407E-05   1.83929534E+19   1.61937065E+08   0.00000000E+00   9.18575097E+06   0.26972819      
  57               2.22611093E-01   4.65445473E+00   1683.53681858    7.83691241E-05   2.00249772E+19   1.61503667E+08   4.33726357E+05   8.97010914E+06   0.26782262      
  58               2.69498965E-01   5.13158702E+00   1727.54417465    8.42500689E-05   2.15153481E+19   1.57153710E+08   4.77642598E+06   8.78441302E+06   0.26589239      
  59               3.26262682E-01   5.52634279E+00   1762.18049299    8.90459706E-05   2.27150277E+19   1.51569528E+08   1.03722675E+07   8.64027840E+06   0.26392127      
  60               3.94982361E-01   5.94446608E+00   1795.90793877    9.39822740E-05   2.39747795E+19   1.45505680E+08   1.64330394E+07   8.49574294E+06   0.26225052      
  61               4.78176250E-01   6.31285657E+00   1824.76118677    9.82517735E-05   2.50579609E+19   1.39529420E+08   2.24108914E+07   8.37450698E+06   0.26088723      
  62               5.78893005E-01   6.60976441E+00   1846.30990826    1.01670353E-04   2.59302808E+19   1.34068549E+08   2.78744950E+07   8.28056613E+06   0.25962058      
  63               7.00823412E-01   6.94934568E+00   1870.84380255    1.05490200E-04   2.69049522E+19   1.28246743E+08   3.36728961E+07   8.17687523E+06   0.258513        
  64               8.48435636E-01   7.33797454E+00   1896.87768176    1.09854213E-04   2.80196505E+19   1.21184077E+08   4.08194453E+07   8.06271343E+06   0.25744687      
  65               1.02713896E+00   7.61658548E+00   1915.52960142    1.13019216E-04   2.88003186E+19   1.14543323E+08   4.78619165E+07   7.98363152E+06   0.25675255      
  66               1.24348200E+00   7.80447295E+00   1927.13637016    1.15107491E-04   2.93330330E+19   1.09415273E+08   5.29822648E+07   7.93153965E+06   0.25618445      
  67               1.50539269E+00   8.02299044E+00   1941.21189368    1.17470527E-04   2.99356829E+19   1.04597869E+08   5.73203774E+07   7.87211453E+06   0.25563648      
  68               1.82246880E+00   8.27793036E+00   1956.37323057    1.20261725E-04   3.06475595E+19   9.97630230E+07   6.21544513E+07   7.80428641E+06   0.25493147      
  69               2.20632965E+00   8.57426206E+00   1974.38126515    1.23427741E-04   3.14551363E+19   9.47807820E+07   6.71372453E+07   7.72737192E+06   0.254212        
  70               2.67104190E+00   8.91579929E+00   1993.64511465    1.27100729E-04   3.23920377E+19   8.95299628E+07   7.23872067E+07   7.64114203E+06   0.25327601      
  71               3.23363503E+00   9.30798779E+00   2015.87416503    1.31223697E-04   3.34440008E+19   8.43350794E+07   7.75747496E+07   7.54511026E+06   0.2523223       
  72               3.91472538E+00   9.75875653E+00   2039.61606034    1.35971389E-04   3.46554785E+19   7.92454364E+07   8.26581134E+07   7.43839559E+06   0.25112828      
  73               4.73927163E+00   1.02746696E+01   2066.52586952    1.41287936E-04   3.60124659E+19   7.41805299E+07   8.77209154E+07   7.32068903E+06   0.24989137      
  74               5.73748947E+00   1.08627040E+01   2094.98206159    1.47335723E-04   3.75563586E+19   6.90700920E+07   9.28291292E+07   7.19180574E+06   0.24836793      
  75               6.94595877E+00   1.15303611E+01   2126.56679377    1.54056307E-04   3.92726059E+19   6.40003375E+07   9.78967275E+07   7.05166633E+06   0.2467995       
  76               8.40896415E+00   1.22857075E+01   2159.61316732    1.61621340E-04   4.12050119E+19   5.89525942E+07   1.02942471E+08   6.90029006E+06   0.24495557      
  77               1.01801177E+01   1.31375073E+01   2195.64403075    1.69970789E-04   4.33387997E+19   5.40532665E+07   1.07839952E+08   6.73777186E+06   0.24306007      
  78               1.23243238E+01   1.40952836E+01   2232.96304927    1.79289673E-04   4.57212529E+19   4.92787748E+07   1.12612953E+08   6.56427147E+06   0.24077239      
  79               1.49201573E+01   1.51695432E+01   2273.01221923    1.89521529E-04   4.83388787E+19   4.47326719E+07   1.17158102E+08   6.37998063E+06   0.2384132       
  80               1.80627429E+01   1.63713387E+01   2314.10031009    2.00884807E-04   5.12422101E+19   4.03566726E+07   1.21533625E+08   6.18520149E+06   0.23567746      
  81               2.18672415E+01   1.77135255E+01   2357.60926067    2.13291435E-04   5.44200602E+19   3.63706611E+07   1.25519706E+08   5.98015386E+06   0.23294189      
  82               2.64730696E+01   1.92106932E+01   2401.94655281    2.26985889E-04   5.79302678E+19   3.26357699E+07   1.29255452E+08   5.76498144E+06   0.22971742      
  83               3.20490087E+01   2.08785543E+01   2448.35199052    2.41936538E-04   6.17664169E+19   2.92341341E+07   1.32658490E+08   5.53991411E+06   0.22671057      
  84               3.87993903E+01   2.27343977E+01   2495.43499511    2.58373008E-04   6.59877061E+19   2.59879928E+07   1.35906514E+08   5.30518333E+06   0.22315969      
  85               4.69715834E+01   2.47979963E+01   2544.18485632    2.76302666E-04   7.05982227E+19   2.30820129E+07   1.38814855E+08   5.06094568E+06   0.21993499      
  86               5.68650599E+01   2.70911890E+01   2593.54774247    2.95959775E-04   7.56588367E+19   2.03882458E+07   1.41511474E+08   4.80735372E+06   0.21615652      
  87               6.88423680E+01   2.96386738E+01   2644.16992756    3.17408244E-04   8.11886360E+19   1.80309586E+07   1.43871828E+08   4.54451435E+06   0.21275477      
  88               8.33424188E+01   3.24676044E+01   2695.39551447    3.40875830E-04   8.72476189E+19   1.58955356E+07   1.46010669E+08   4.27254516E+06   0.2088657       
  89               1.00896570E+02   3.56083048E+01   2747.48513388    3.66496404E-04   9.38732355E+19   1.40290968E+07   1.47880781E+08   3.99155015E+06   0.2053483       
  90               1.22148096E+02   3.90940508E+01   2800.18599263    3.94483100E-04   1.01122927E+20   1.23349360E+07   1.49578922E+08   3.70164757E+06   0.20148035      
  91               1.47875764E+02   4.29617799E+01   2853.40276181    4.25049402E-04   1.09054861E+20   1.08380124E+07   1.51080160E+08   3.40295263E+06   0.19805763      
  92               1.79022369E+02   4.72516448E+01   2907.29461699    4.58379820E-04   1.17720941E+20   9.48947552E+06   1.52433527E+08   3.09561391E+06   0.19452125      
  93               2.16729286E+02   5.20076132E+01   2961.46146265    4.94767177E-04   1.27199873E+20   8.29051794E+06   1.53638064E+08   2.77979939E+06   0.19132471      
  94               2.62378292E+02   5.72771721E+01   3016.32199701    5.34374567E-04   1.37540217E+20   7.21795608E+06   1.54717519E+08   2.45571537E+06   0.18795692      
  95               3.17642204E+02   6.31095581E+01   3071.14553775    5.77573362E-04   1.48840315E+20   6.27931159E+06   1.55665145E+08   2.12372419E+06   0.18498146      
  96               3.84546179E+02   6.95509542E+01   3126.62790382    6.24408367E-04   1.61121217E+20   5.46128361E+06   1.56494946E+08   1.78452942E+06   0.18194874      
  97               4.65541927E+02   7.66507947E+01   3181.71533372    6.75307439E-04   1.74494274E+20   4.74572275E+06   1.57225578E+08   1.43877285E+06   0.17925801      
  98               5.63597555E+02   8.44620451E+01   3237.41688037    7.30252797E-04   1.88968234E+20   4.12394080E+06   1.57866404E+08   1.08701773E+06   0.17670891      
  99               6.82306330E+02   9.30420959E+01   3292.56299109    7.89769399E-04   2.04678032E+20   3.57516731E+06   1.58438720E+08   7.29736545E+05   0.17436473      
  100              8.26018359E+02   1.02453534E+02   3348.28332606    8.53819222E-04   2.21631040E+20   3.09967953E+06   1.58942932E+08   3.67301522E+05   0.17225932      
  101              1.00000000E+03   1.12764580E+02   3403.43105486    9.23013668E-04   2.39983614E+20   2.86046996E+06   1.59203482E+08   0.00000000E+00   0.17035545      
