# ATMO pressure-temperature profile
# Effective temperature = 500.0K
# log(g) = 2.5cm/s^2
# M/H = 0.0
# Optical depth grid in band 17 (1.20-1.33microns)
# All parameters in cgs units
#
# Model Level      Optical Depth    Pressure         Temperature      Density          Number Density   Rad Flux         Conv Flux        Radial Extension Adiabatic Gradient
#                                   [Ba]             [K]              [g/cm^3]         [/cm^3]          [ergs/s/cm^2/sr] [ergs/s/cm^2/sr] [cm]             [K/Ba]          
  1                5.00000000E-04   1.00000000E-05   96.11952500      2.94776211E-09   7.53553730E+14   3.54356485E+06   0.00000000E+00   8.99279028E+08   0.34574314      
  2                5.78069831E-04   1.54539014E-04   131.63813600     3.32628684E-08   8.50319721E+15   3.54356485E+06   0.00000000E+00   8.53119748E+08   0.33540593      
  3                6.68329458E-04   3.01664901E-04   157.85986433     5.41427147E-08   1.38413642E+16   3.54356485E+06   0.00000000E+00   8.42156500E+08   0.3271792       
  4                7.72682194E-04   4.60420051E-04   173.19549770     7.52662314E-08   1.92549976E+16   3.54356485E+06   0.00000000E+00   8.34292243E+08   0.32473916      
  5                8.93328530E-04   6.36358164E-04   187.05400033     9.63921203E-08   2.46411209E+16   3.54356485E+06   0.00000000E+00   8.27760349E+08   0.32223029      
  6                1.03281254E-03   8.33045590E-04   197.59416651     1.19454239E-07   3.05365867E+16   3.54356485E+06   0.00000000E+00   8.21963993E+08   0.32129287      
  7                1.19407555E-03   1.05410084E-03   208.68417889     1.43119743E-07   3.65862985E+16   3.54356485E+06   0.00000000E+00   8.16617731E+08   0.3186165       
  8                1.38051810E-03   1.30338925E-03   217.08083139     1.70121645E-07   4.34889075E+16   3.54356485E+06   0.00000000E+00   8.11565624E+08   0.31775007      
  9                1.59607173E-03   1.58520942E-03   226.44952946     1.98345402E-07   5.07038646E+16   3.54356485E+06   0.00000000E+00   8.06714066E+08   0.31533889      
  10               1.84528182E-03   1.90431176E-03   233.50903153     2.31068785E-07   5.90690799E+16   3.54356485E+06   0.00000000E+00   8.02000515E+08   0.31461589      
  11               2.13340350E-03   2.26624752E-03   241.63269963     2.65740991E-07   6.79324808E+16   3.54356485E+06   0.00000000E+00   7.97381689E+08   0.31253679      
  12               2.46651240E-03   2.67722523E-03   247.90403945     3.05990696E-07   7.82216812E+16   3.54356485E+06   0.00000000E+00   7.92824103E+08   0.31195443      
  13               2.85163282E-03   3.14426712E-03   255.57341662     3.48586586E-07   8.91106467E+16   3.54356485E+06   0.00000000E+00   7.88301938E+08   0.31022979      
  14               3.29688580E-03   3.67523769E-03   261.65491772     3.97982015E-07   1.01737807E+17   3.54356485E+06   0.00000000E+00   7.83793943E+08   0.30979113      
  15               3.81166043E-03   4.27908992E-03   269.24448738     4.50309915E-07   1.15114606E+17   3.54356485E+06   0.00000000E+00   7.79283251E+08   0.30835437      
  16               4.40681180E-03   4.96583340E-03   275.42560638     5.10851587E-07   1.30591127E+17   3.54356485E+06   0.00000000E+00   7.74755407E+08   0.30799786      
  17               5.09488990E-03   5.74684126E-03   283.19422595     5.74978656E-07   1.46984198E+17   3.54356485E+06   0.00000000E+00   7.70198374E+08   0.30678669      
  18               5.89040429E-03   6.63501412E-03   289.57928612     6.49204132E-07   1.65958766E+17   3.54356485E+06   0.00000000E+00   7.65601306E+08   0.30646645      
  19               6.81013002E-03   7.64525196E-03   297.44938547     7.28258637E-07   1.86167800E+17   3.54356485E+06   0.00000000E+00   7.60955188E+08   0.30542754      
  20               7.87346142E-03   8.79430249E-03   304.03125855     8.19577599E-07   2.09512048E+17   3.54356485E+06   0.00000000E+00   7.56251904E+08   0.30512001      
  21               9.10282102E-03   1.01011321E-02   312.19440674     9.16751967E-07   2.34353138E+17   3.54356485E+06   0.00000000E+00   7.51484324E+08   0.30424453      
  22               1.05241324E-02   1.15868887E-02   319.23804908     1.02839299E-06   2.62892397E+17   3.54356485E+06   0.00000000E+00   7.46645473E+08   0.30397252      
  23               1.21673669E-02   1.32756418E-02   327.89708883     1.14716235E-06   2.93253904E+17   3.54356485E+06   0.00000000E+00   7.41728768E+08   0.30325554      
  24               1.40671754E-02   1.51946299E-02   335.42266348     1.28352595E-06   3.28113095E+17   3.54356485E+06   0.00000000E+00   7.36727760E+08   0.30301492      
  25               1.62636194E-02   1.73748619E-02   344.51518999     1.42895948E-06   3.65290877E+17   3.54356485E+06   0.00000000E+00   7.31636909E+08   0.30242297      
  26               1.88030155E-02   1.98513606E-02   352.53112157     1.59551088E-06   4.07867081E+17   3.54356485E+06   0.00000000E+00   7.26450363E+08   0.30220849      
  27               2.17389119E-02   2.26637710E-02   362.26099405     1.77262775E-06   4.53144214E+17   3.54356485E+06   0.00000000E+00   7.21162014E+08   0.30172848      
  28               2.51332183E-02   2.58558800E-02   371.18172179     1.97369412E-06   5.04543459E+17   3.54356485E+06   0.00000000E+00   7.15765305E+08   0.30154486      
  29               2.90575105E-02   2.94767375E-02   382.00431872     2.18634281E-06   5.58903695E+17   3.54356485E+06   0.00000000E+00   7.10253265E+08   0.3011396       
  30               3.35945403E-02   3.35801844E-02   392.19300737     2.42599639E-06   6.20167595E+17   3.54356485E+06   0.00000000E+00   7.04618904E+08   0.30102228      
  31               3.88399805E-02   3.82252828E-02   404.49591587     2.67761138E-06   6.84482590E+17   3.54356485E+06   0.00000000E+00   6.98855523E+08   0.30072146      
  32               4.49044419E-02   4.34750306E-02   416.53024917     2.95736024E-06   7.55995464E+17   3.54356485E+06   0.00000000E+00   6.92956059E+08   0.30055103      
  33               5.19158062E-02   4.93961700E-02   431.31055247     3.24499373E-06   8.29524146E+17   3.54356485E+06   0.00000000E+00   6.86911756E+08   0.30029694      
  34               6.00219227E-02   5.60525951E-02   448.23496271     3.54323994E-06   9.05765626E+17   3.53013109E+06   1.34337535E+04   6.80704011E+08   0.30018271      
  35               6.93937253E-02   6.35268983E-02   465.14654691     3.86969637E-06   9.89221826E+17   3.49848977E+06   4.50750726E+04   6.74320903E+08   0.3000169       
  36               8.02288381E-02   7.19135420E-02   483.02869761     4.21873739E-06   1.07835954E+18   3.44865083E+06   9.49140187E+04   6.67756920E+08   0.29993618      
  37               9.27557418E-02   8.13148644E-02   500.89646035     4.60008189E-06   1.17583889E+18   3.38312879E+06   1.60436055E+05   6.61008301E+08   0.29978705      
  38               1.07238592E-01   9.18431274E-02   519.78386058     5.00686998E-06   1.27982242E+18   3.30369247E+06   2.39872374E+05   6.54070996E+08   0.29967363      
  39               1.23982789E-01   1.03629606E-01   538.65382731     5.45149227E-06   1.39347742E+18   3.21078615E+06   3.32778700E+05   6.46936830E+08   0.29955261      
  40               1.43341420E-01   1.16823532E-01   558.62887535     5.92580446E-06   1.51472150E+18   3.10527922E+06   4.38285623E+05   6.39596042E+08   0.29945914      
  41               1.65722701E-01   1.31583929E-01   578.59114397     6.44422359E-06   1.64724011E+18   2.98780950E+06   5.55755349E+05   6.32042701E+08   0.29934424      
  42               1.91598587E-01   1.48078915E-01   599.71830571     6.99656405E-06   1.78842922E+18   2.85844586E+06   6.85118988E+05   6.24274432E+08   0.29923561      
  43               2.21514726E-01   1.66485770E-01   620.79562003     7.59918189E-06   1.94246998E+18   2.72037220E+06   8.23192651E+05   6.16291659E+08   0.29908184      
  44               2.56101960E-01   1.87003649E-01   643.07858602     8.23993902E-06   2.10625948E+18   2.57980626E+06   9.63758585E+05   6.08092165E+08   0.29893578      
  45               2.96089634E-01   2.09877315E-01   665.30513784     8.93886257E-06   2.28491718E+18   2.44591156E+06   1.09765328E+06   5.99664008E+08   0.29874387      
  46               3.42320969E-01   2.35370926E-01   688.83010587     9.68229089E-06   2.47495061E+18   2.32585073E+06   1.21771412E+06   5.90998357E+08   0.29857225      
  47               3.95770849E-01   2.63758089E-01   712.28523908     1.04927473E-05   2.68211678E+18   2.22331905E+06   1.32024579E+06   5.82092241E+08   0.29832424      
  48               4.57566375E-01   2.95318785E-01   737.07390092     1.13531833E-05   2.90205660E+18   2.13871165E+06   1.40485320E+06   5.72948094E+08   0.29806212      
  49               5.29010634E-01   3.30338534E-01   761.71581470     1.22887111E-05   3.14117479E+18   2.07135659E+06   1.47220826E+06   5.63572441E+08   0.29767831      
  50               6.11610175E-01   3.69164400E-01   787.71097155     1.32799277E-05   3.39452302E+18   2.02186287E+06   1.52170198E+06   5.53961392E+08   0.29732635      
  51               7.07106781E-01   4.12223473E-01   813.56077582     1.43577167E-05   3.67002105E+18   1.98923644E+06   1.55432840E+06   5.44100319E+08   0.29687246      
  52               8.17514195E-01   4.59963132E-01   840.85502973     1.55004552E-05   3.96212101E+18   1.97323408E+06   1.57033076E+06   5.33980694E+08   0.29644541      
  53               9.45160584E-01   5.12839011E-01   867.97887256     1.67422731E-05   4.27954640E+18   1.97202859E+06   1.57153626E+06   5.23601152E+08   0.29581071      
  54               1.09273764E+00   5.71297988E-01   896.54127950     1.80565662E-05   4.61549457E+18   1.98562474E+06   1.55794010E+06   5.12968870E+08   0.29518174      
  55               1.26335732E+00   6.35773209E-01   924.82028236     1.94799933E-05   4.97932779E+18   2.01345211E+06   1.53011274E+06   5.02097580E+08   0.29431606      
  56               1.46061751E+00   7.06761005E-01   954.48551393     2.09821796E-05   5.36326280E+18   2.05668101E+06   1.48688384E+06   4.90993965E+08   0.2935144       
  57               1.68867783E+00   7.84904509E-01   983.82849013     2.26074903E-05   5.77860845E+18   2.11546176E+06   1.42810308E+06   4.79647983E+08   0.29245973      
  58               1.95234742E+00   8.70881583E-01   1014.59463601    2.43230528E-05   6.21716486E+18   2.18961689E+06   1.35394795E+06   4.68053604E+08   0.29151357      
  59               2.25718628E+00   9.65450787E-01   1045.03607897    2.61785245E-05   6.69151870E+18   2.27658814E+06   1.26697671E+06   4.56202244E+08   0.29027575      
  60               2.60962258E+00   1.06939298E+00   1076.91061507    2.81382727E-05   7.19256025E+18   2.37388853E+06   1.16967632E+06   4.44091505E+08   0.28921217      
  61               3.01708817E+00   1.18350173E+00   1108.43329189    3.02545239E-05   7.73366179E+18   2.47866322E+06   1.06490162E+06   4.31724196E+08   0.28781018      
  62               3.48817529E+00   1.30860780E+00   1141.33520920    3.24876366E-05   8.30466520E+18   2.58917313E+06   9.54391716E+05   4.19105216E+08   0.28657277      
  63               4.03281780E+00   1.44577331E+00   1173.87601103    3.48971116E-05   8.92080023E+18   2.70322785E+06   8.40336993E+05   4.06222980E+08   0.28493468      
  64               4.66250061E+00   1.59619382E+00   1207.80469629    3.74447943E-05   9.57226585E+18   2.81851542E+06   7.25049430E+05   3.93064166E+08   0.28351505      
  65               5.39050188E+00   1.76118547E+00   1241.42709559    4.01955186E-05   1.02756597E+19   2.93613421E+06   6.07439594E+05   3.79615551E+08   0.28222255      
  66               6.23217301E+00   1.94250146E+00   1276.62618105    4.31106038E-05   1.10210620E+19   3.05348935E+06   4.90082741E+05   3.65841702E+08   0.28093231      
  67               7.20526240E+00   2.14260443E+00   1311.71403939    4.62785642E-05   1.18311966E+19   3.17752826E+06   3.66036922E+05   3.51674903E+08   0.27972564      
  68               8.33028963E+00   2.36519743E+00   1348.90747988    4.96761428E-05   1.27002151E+19   3.30974393E+06   2.33822002E+05   3.36994160E+08   0.2785035       
  69               9.63097823E+00   2.61565919E+00   1386.65557986    5.34382063E-05   1.36627585E+19   3.45502612E+06   8.85391728E+04   3.21621726E+08   0.27731368      
  70               1.11347559E+01   2.90065932E+00   1427.44817660    5.75640558E-05   1.47184546E+19   3.54356485E+06   0.00000000E+00   3.05372029E+08   0.27599612      
  71               1.28733329E+01   3.22609286E+00   1467.74163875    6.22624009E-05   1.59203675E+19   3.54356485E+06   0.00000000E+00   2.88182022E+08   0.27464992      
  72               1.48833708E+01   3.59417882E+00   1509.44113181    6.74500525E-05   1.72468323E+19   3.54356485E+06   0.00000000E+00   2.70220314E+08   0.27319748      
  73               1.72072553E+01   4.00304116E+00   1551.94474309    7.30697296E-05   1.86827000E+19   3.54356485E+06   0.00000000E+00   2.51803148E+08   0.271719        
  74               1.98939903E+01   4.44133909E+00   1596.26423639    7.88511543E-05   2.01527811E+19   3.44600136E+06   9.75658120E+04   2.33542153E+08   0.2701257       
  75               2.30002312E+01   4.89977823E+00   1639.04037749    8.47222616E-05   2.16527275E+19   3.17643081E+06   3.67136188E+05   2.15805126E+08   0.26854311      
  76               2.65914795E+01   5.36772904E+00   1679.57616613    9.05878959E-05   2.31481731E+19   2.82052125E+06   7.23060126E+05   1.98913438E+08   0.2668239       
  77               3.07434641E+01   5.81518923E+00   1715.68722409    9.61079715E-05   2.45500044E+19   2.39673567E+06   1.14686849E+06   1.83748169E+08   0.26531157      
  78               3.55437382E+01   6.20638472E+00   1745.52963801    1.00898052E-04   2.57535620E+19   1.95719022E+06   1.58646582E+06   1.71185074E+08   0.26405906      
  79               4.10935254E+01   6.51936519E+00   1768.26159916    1.04687426E-04   2.67045112E+19   1.69385723E+06   1.84985989E+06   1.61554829E+08   0.26313354      
  80               4.75098546E+01   6.85489925E+00   1791.78051966    1.08627899E-04   2.77103560E+19   1.54172039E+06   2.00209004E+06   1.51604925E+08   0.26215603      
  81               5.49280272E+01   7.13743152E+00   1810.75193716    1.11948999E-04   2.85501790E+19   1.34396156E+06   2.19982936E+06   1.43502728E+08   0.26115427      
  82               6.35044707E+01   7.35903838E+00   1825.29753397    1.14503067E-04   2.92020433E+19   1.22626195E+06   2.31760277E+06   1.37313098E+08   0.26030845      
  83               7.34200373E+01   7.60330684E+00   1840.80273356    1.17305521E-04   2.99172111E+19   1.18438482E+06   2.35983763E+06   1.30648105E+08   0.25966083      
  84               8.48838171E+01   7.87427095E+00   1857.65471136    1.20382448E-04   3.07023205E+19   1.14355768E+06   2.40090563E+06   1.23437511E+08   0.2589196       
  85               9.81375475E+01   8.17561268E+00   1875.71956525    1.23779122E-04   3.15702659E+19   1.03418372E+06   2.50938114E+06   1.15631052E+08   0.25814083      
  86               1.13460711E+02   8.39121181E+00   1888.39765645    1.26302319E-04   3.21852636E+19   8.66242917E+05   2.67808949E+06   1.10177583E+08   0.25727874      
  87               1.31176428E+02   8.53746305E+00   1896.73646775    1.27936229E-04   3.26022582E+19   7.77863911E+05   2.76570107E+06   1.06539294E+08   0.25666631      
  88               1.51658271E+02   8.70057315E+00   1906.02725417    1.29743004E-04   3.30631781E+19   7.57766632E+05   2.78579824E+06   1.02535772E+08   0.25620643      
  89               1.75338142E+02   8.88410083E+00   1916.17635850    1.31776680E-04   3.35817900E+19   7.37565408E+05   2.80908107E+06   9.80972301E+07   0.2557134       
  90               2.02715380E+02   9.09109153E+00   1927.54774123    1.34049680E-04   3.41614838E+19   7.16946804E+05   2.82941022E+06   9.31723157E+07   0.25513521      
  91               2.34367291E+02   9.32389083E+00   1939.94409299    1.36601949E-04   3.48123872E+19   6.93454362E+05   2.85226606E+06   8.77320462E+07   0.25451101      
  92               2.70961321E+02   9.58495981E+00   1953.67539525    1.39437371E-04   3.55356062E+19   6.69601918E+05   2.87837590E+06   8.17501718E+07   0.25378604      
  93               3.13269130E+02   9.87702131E+00   1968.52638962    1.42599442E-04   3.63421477E+19   6.44178614E+05   2.90433052E+06   7.52004041E+07   0.25301655      
  94               3.62182865E+02   1.02027724E+01   1984.79786199    1.46091392E-04   3.72329763E+19   6.20212487E+05   2.92827007E+06   6.80634202E+07   0.25214869      
  95               4.18733975E+02   1.05661564E+01   2002.29015700    1.49968734E-04   3.82222161E+19   5.96772124E+05   2.95226991E+06   6.02999958E+07   0.25122612      
  96               4.84114957E+02   1.09704174E+01   2021.30209696    1.54236947E-04   3.93113324E+19   5.72801882E+05   2.97625556E+06   5.18944222E+07   0.25018645      
  97               5.59704502E+02   1.14189437E+01   2041.55272618    1.58944441E-04   4.05126984E+19   5.47688821E+05   3.00208348E+06   4.28356101E+07   0.24907777      
  98               6.47096573E+02   1.19152781E+01   2063.32897136    1.64095344E-04   4.18274652E+19   5.22331205E+05   3.02757135E+06   3.31170079E+07   0.24783259      
  99               7.48134013E+02   1.24631292E+01   2086.30890700    1.69740890E-04   4.32687475E+19   4.96291556E+05   3.05456351E+06   2.27364326E+07   0.24653437      
  100              8.64947405E+02   1.30663874E+01   2110.77818037    1.75883201E-04   4.48372299E+19   4.70288331E+05   3.08087601E+06   1.16956925E+07   0.24511579      
  101              1.00000000E+03   1.37291540E+01   2136.37580758    1.82576886E-04   4.65470288E+19   4.55647138E+05   3.09192868E+06   0.00000000E+00   0.24362212      
