# ATMO pressure-temperature profile
# Effective temperature = 1100.0K
# log(g) = 4.0cm/s^2
# M/H = 0.0
# Optical depth grid in band 17 (1.20-1.33microns)
# All parameters in cgs units
#
# Model Level      Optical Depth    Pressure         Temperature      Density          Number Density   Rad Flux         Conv Flux        Radial Extension Adiabatic Gradient
#                                   [Ba]             [K]              [g/cm^3]         [/cm^3]          [ergs/s/cm^2/sr] [ergs/s/cm^2/sr] [cm]             [K/Ba]          
  1                5.00000000E-05   1.00000000E-05   363.02154208     7.80528436E-10   1.99523219E+14   8.30085334E+07   0.00000000E+00   5.55966971E+07   0.29830787      
  2                5.91534807E-05   3.19893267E-04   423.04519651     2.14259370E-08   5.47701803E+15   8.30085318E+07   0.00000000E+00   4.80188124E+07   0.29959205      
  3                6.99826855E-05   6.59115048E-04   452.12616628     4.13072168E-08   1.05591127E+16   8.30085301E+07   0.00000000E+00   4.68785584E+07   0.29942653      
  4                8.27943887E-05   1.04635396E-03   466.84922605     6.35076962E-08   1.62340851E+16   8.30085284E+07   0.00000000E+00   4.61225044E+07   0.29933798      
  5                9.79515255E-05   1.49397640E-03   481.51943389     8.79132403E-08   2.24727260E+16   8.30085261E+07   0.00000000E+00   4.55234427E+07   0.29926936      
  6                1.15883473E-04   2.01358836E-03   490.76883011     1.16256735E-07   2.97179987E+16   8.30085232E+07   0.00000000E+00   4.50094666E+07   0.29921817      
  7                1.37098216E-04   2.61829778E-03   502.19434991     1.47730991E-07   3.77635710E+16   8.30085195E+07   0.00000000E+00   4.45480408E+07   0.29916859      
  8                1.62196734E-04   3.32303998E-03   509.40341267     1.84840931E-07   4.72497544E+16   8.30085151E+07   0.00000000E+00   4.41215640E+07   0.2991288       
  9                1.91890027E-04   4.14538604E-03   519.43857926     2.26128450E-07   5.78038304E+16   8.30085099E+07   0.00000000E+00   4.37193308E+07   0.29908469      
  10               2.27019260E-04   5.10582603E-03   525.66820484     2.75219226E-07   7.03525986E+16   8.30085035E+07   0.00000000E+00   4.33343374E+07   0.29904656      
  11               2.68579588E-04   6.22823554E-03   535.06948715     3.29821760E-07   8.43103093E+16   8.30084960E+07   0.00000000E+00   4.29617979E+07   0.29900252      
  12               3.17748350E-04   7.54028693E-03   541.00473945     3.94921979E-07   1.00951469E+17   8.30084872E+07   0.00000000E+00   4.25982551E+07   0.29896397      
  13               3.75918418E-04   9.07416683E-03   550.36047345     4.67179762E-07   1.19422281E+17   8.30084769E+07   0.00000000E+00   4.22411520E+07   0.29891702      
  14               4.44737657E-04   1.08671718E-02   556.33065592     5.53487829E-07   1.41484668E+17   8.30084643E+07   0.00000000E+00   4.18885494E+07   0.29887499      
  15               5.26155608E-04   1.29624693E-02   566.00591141     6.48920226E-07   1.65879461E+17   8.30084496E+07   0.00000000E+00   4.15389296E+07   0.29882438      
  16               6.22478712E-04   1.54100512E-02   572.42072347     7.62804600E-07   1.94991002E+17   8.30084326E+07   0.00000000E+00   4.11910453E+07   0.2987805       
  17               7.36435649E-04   1.82677098E-02   582.67919759     8.88339858E-07   2.27080807E+17   8.30084126E+07   0.00000000E+00   4.08438977E+07   0.29872022      
  18               8.71254639E-04   2.16019721E-02   589.64927756     1.03806421E-06   2.65353896E+17   8.30083892E+07   0.00000000E+00   4.04966830E+07   0.29867012      
  19               1.03075489E-03   2.54892533E-02   600.66497447     1.20240114E-06   3.07362333E+17   8.30083620E+07   0.00000000E+00   4.01487392E+07   0.29859968      
  20               1.21945479E-03   3.00170816E-02   608.58700305     1.39755977E-06   3.57249502E+17   8.30083320E+07   0.00000000E+00   3.97994541E+07   0.29854042      
  21               1.44269991E-03   3.52858432E-02   620.63848233     1.61096605E-06   4.11801230E+17   8.30082965E+07   0.00000000E+00   3.94483142E+07   0.29844608      
  22               1.70681442E-03   4.14106923E-02   629.60223971     1.86367780E-06   4.76400344E+17   8.30082554E+07   0.00000000E+00   3.90948326E+07   0.29841053      
  23               2.01928028E-03   4.85254297E-02   642.86525700     2.13881908E-06   5.46732982E+17   8.30082078E+07   0.00000000E+00   3.87384747E+07   0.29831185      
  24               2.38894914E-03   5.67820008E-02   653.27986586     2.46283909E-06   6.29560189E+17   8.30081569E+07   0.00000000E+00   3.83787298E+07   0.29820151      
  25               2.82629313E-03   6.63544467E-02   668.12132536     2.81409938E-06   7.19350480E+17   8.30080988E+07   0.00000000E+00   3.80151203E+07   0.29807094      
  26               3.34370152E-03   7.74371106E-02   680.22452288     3.22568214E-06   8.24560820E+17   8.30080346E+07   0.00000000E+00   3.76472763E+07   0.29795186      
  27               3.95583167E-03   9.02475713E-02   696.90332084     3.66934239E-06   9.37969742E+17   8.30079597E+07   0.00000000E+00   3.72749189E+07   0.29779244      
  28               4.68002425E-03   1.05024629E-01   711.04961539     4.18520190E-06   1.06983571E+18   8.30078811E+07   0.00000000E+00   3.68978370E+07   0.29763209      
  29               5.53679448E-03   1.22037063E-01   729.99980124     4.73693041E-06   1.21086254E+18   8.30077928E+07   0.00000000E+00   3.65157518E+07   0.29742626      
  30               6.55041330E-03   1.41574446E-01   746.62783398     5.37289774E-06   1.37343002E+18   8.30076991E+07   0.00000000E+00   3.61284820E+07   0.29723123      
  31               7.74959494E-03   1.63951330E-01   768.16922412     6.04767540E-06   1.54590884E+18   8.30075870E+07   0.00000000E+00   3.57359261E+07   0.29695854      
  32               9.16831029E-03   1.89534342E-01   787.68824232     6.81810867E-06   1.74284751E+18   8.30074739E+07   0.00000000E+00   3.53375204E+07   0.29665141      
  33               1.08467493E-02   2.18734840E-01   812.35843667     7.62957794E-06   1.95027614E+18   8.30073831E+07   0.00000000E+00   3.49326574E+07   0.29624721      
  34               1.28324595E-02   2.51996852E-01   835.29893770     8.54837047E-06   2.18513879E+18   8.30073461E+07   0.00000000E+00   3.45207908E+07   0.29586093      
  35               1.51816929E-02   2.89786733E-01   863.38391909     9.51052864E-06   2.43108634E+18   8.30073411E+07   0.00000000E+00   3.41016774E+07   0.29541435      
  36               1.79609996E-02   3.32565186E-01   889.79833766     1.05904800E-05   2.70714198E+18   8.30073949E+07   0.00000000E+00   3.36754267E+07   0.29496353      
  37               2.12491128E-02   3.80791198E-01   921.18923181     1.17130626E-05   2.99408337E+18   8.30074663E+07   0.00000000E+00   3.32424259E+07   0.294391        
  38               2.51391797E-02   4.34940891E-01   950.84687771     1.29616904E-05   3.31318353E+18   8.30075702E+07   0.00000000E+00   3.28029541E+07   0.29378253      
  39               2.97413996E-02   4.95707972E-01   985.14286224     1.42581562E-05   3.64462230E+18   8.30076868E+07   0.00000000E+00   3.23559557E+07   0.29301656      
  40               3.51861462E-02   5.63817347E-01   1017.43886895    1.57021889E-05   4.01380203E+18   8.30078326E+07   0.00000000E+00   3.19007631E+07   0.29222099      
  41               4.16276604E-02   6.40013764E-01   1054.02333564    1.72051564E-05   4.39809825E+18   8.30080188E+07   0.00000000E+00   3.14371825E+07   0.29126559      
  42               4.92484201E-02   7.25048561E-01   1088.28642380    1.88769994E-05   4.82558226E+18   8.30081934E+07   0.00000000E+00   3.09653356E+07   0.29029275      
  43               5.82643093E-02   8.19724298E-01   1126.41976288    2.06188103E-05   5.27100449E+18   8.30084018E+07   0.00000000E+00   3.04854468E+07   0.28914333      
  44               6.89307339E-02   9.25038993E-01   1161.82128719    2.25583047E-05   5.76695484E+18   8.30085531E+07   0.00000000E+00   2.99971273E+07   0.28796561      
  45               8.15498567E-02   1.04241342E+00   1200.80169668    2.45948220E-05   6.28773951E+18   8.30087086E+07   0.00000000E+00   2.94988184E+07   0.28659717      
  46               9.64791575E-02   1.17337683E+00   1236.84212325    2.68776010E-05   6.87146089E+18   8.30088305E+07   0.00000000E+00   2.89894489E+07   0.28521203      
  47               1.14141560E-01   1.31971642E+00   1276.40748971    2.92920588E-05   7.48888422E+18   8.30090469E+07   0.00000000E+00   2.84679039E+07   0.2836261       
  48               1.35037411E-01   1.48372973E+00   1312.95161966    3.20151221E-05   8.18524938E+18   8.30093153E+07   0.00000000E+00   2.79323210E+07   0.28208715      
  49               1.59758657E-01   1.66865746E+00   1353.04237418    3.49373150E-05   8.93267711E+18   8.30096933E+07   0.00000000E+00   2.73793784E+07   0.28047766      
  50               1.89005613E-01   1.87877285E+00   1390.02275764    3.82884530E-05   9.78989883E+18   8.30102387E+07   0.00000000E+00   2.68048917E+07   0.27903313      
  51               2.23606798E-01   2.11966664E+00   1430.57769445    4.19713038E-05   1.07320319E+19   8.30107994E+07   0.00000000E+00   2.62039716E+07   0.27752955      
  52               2.64542408E-01   2.39556548E+00   1468.23284465    4.62172558E-05   1.18178630E+19   8.30113041E+07   0.00000000E+00   2.55775407E+07   0.27600868      
  53               3.12972084E-01   2.70836552E+00   1509.69856770    5.08221622E-05   1.29940003E+19   8.30116521E+07   0.00000000E+00   2.49321092E+07   0.27432168      
  54               3.70267763E-01   3.05784366E+00   1548.49424906    5.59427628E-05   1.43031443E+19   8.30117183E+07   0.00000000E+00   2.42766848E+07   0.27274021      
  55               4.38052539E-01   3.43691013E+00   1591.19600485    6.12124658E-05   1.56448115E+19   8.30120153E+07   0.00000000E+00   2.36288814E+07   0.27106644      
  56               5.18246648E-01   3.83801917E+00   1631.47310128    6.66714612E-05   1.70393515E+19   8.29736765E+07   0.00000000E+00   2.30010052E+07   0.26950177      
  57               6.13121862E-01   4.25109603E+00   1676.40636774    7.18816842E-05   1.83673903E+19   8.21883926E+07   8.09803532E+05   2.24043007E+07   0.26782303      
  58               7.25365844E-01   4.64792927E+00   1717.31597798    7.67494604E-05   1.96035687E+19   7.85532946E+07   4.42324612E+06   2.18700169E+07   0.26618466      
  59               8.58158289E-01   5.00600328E+00   1750.96002718    8.11300385E-05   2.07081231E+19   7.36500549E+07   9.28581208E+06   2.14162187E+07   0.26441093      
  60               1.01526100E+00   5.30919209E+00   1778.79327135    8.47493274E-05   2.16186614E+19   6.87820660E+07   1.40837347E+07   2.10505709E+07   0.26297866      
  61               1.20112443E+00   5.64107586E+00   1806.83189354    8.86475448E-05   2.26136170E+19   6.40818260E+07   1.88120032E+07   2.06676715E+07   0.26166508      
  62               1.42101382E+00   5.92411891E+00   1830.54390263    9.19159981E-05   2.34406396E+19   5.95507919E+07   2.34892900E+07   2.03540960E+07   0.26058519      
  63               1.68115827E+00   6.14765160E+00   1847.78083714    9.44933678E-05   2.40982013E+19   5.58718397E+07   2.72909272E+07   2.01142431E+07   0.2594933       
  64               1.98892727E+00   6.40062466E+00   1867.66635510    9.73328103E-05   2.48226935E+19   5.25875401E+07   3.06018888E+07   1.98504618E+07   0.25855355      
  65               2.35303941E+00   6.68575717E+00   1888.30919195    1.00555647E-04   2.56450371E+19   4.91690123E+07   3.40530129E+07   1.95622485E+07   0.25759669      
  66               2.78380943E+00   7.00548703E+00   1911.62137462    1.04073515E-04   2.65437510E+19   4.50042533E+07   3.81820648E+07   1.92497053E+07   0.25701407      
  67               3.29344035E+00   7.24419010E+00   1927.64878002    1.06817004E-04   2.72199780E+19   4.09712612E+07   4.20233872E+07   1.90232832E+07   0.25651342      
  68               3.89636920E+00   7.41626130E+00   1939.76981400    1.08669491E-04   2.76924044E+19   3.79932059E+07   4.48417569E+07   1.88635725E+07   0.25604711      
  69               4.60967600E+00   7.61356280E+00   1952.35347550    1.10839855E-04   2.82458939E+19   3.56814029E+07   4.71477401E+07   1.86837977E+07   0.25541223      
  70               5.45356761E+00   7.83888789E+00   1967.42546501    1.13243905E-04   2.88590483E+19   3.36454025E+07   4.91787686E+07   1.84826782E+07   0.2547992       
  71               6.45195012E+00   8.09518052E+00   1983.10843344    1.16019139E-04   2.95669084E+19   3.17153308E+07   5.11037124E+07   1.82590822E+07   0.25398384      
  72               7.63310614E+00   8.38593597E+00   2001.42740980    1.19083062E-04   3.03485215E+19   2.98814875E+07   5.29272897E+07   1.80117172E+07   0.25318931      
  73               9.03049593E+00   8.71353965E+00   2020.41717557    1.22568653E-04   3.12377252E+19   2.80593915E+07   5.47327592E+07   1.77405519E+07   0.25217866      
  74               1.06837053E+01   9.08212630E+00   2042.09039765    1.26392676E-04   3.22135371E+19   2.64432976E+07   5.63372287E+07   1.74444172E+07   0.2511793       
  75               1.26395671E+01   9.49701934E+00   2064.59100044    1.30720545E-04   3.33180160E+19   2.49257548E+07   5.78507733E+07   1.71216395E+07   0.24993243      
  76               1.49534878E+01   9.96253672E+00   2089.86671261    1.35462260E-04   3.45284582E+19   2.34962866E+07   5.92771096E+07   1.67718110E+07   0.24866953      
  77               1.76910170E+01   1.04832531E+01   2115.94756540    1.40776838E-04   3.58853355E+19   2.20585476E+07   6.07128318E+07   1.63947368E+07   0.24714952      
  78               2.09297047E+01   1.10640607E+01   2144.74526274    1.46570094E-04   3.73649730E+19   2.06808868E+07   6.20890998E+07   1.59903988E+07   0.24561552      
  79               2.47612977E+01   1.17101815E+01   2174.26190188    1.53010070E-04   3.90101489E+19   1.92846829E+07   6.34851971E+07   1.55589476E+07   0.24385638      
  80               2.92943389E+01   1.24272492E+01   2206.38681438    1.59997959E-04   4.07961514E+19   1.79480916E+07   6.48226178E+07   1.51006540E+07   0.2420373       
  81               3.46572422E+01   1.32213328E+01   2239.08648991    1.67714931E-04   4.27691094E+19   1.65954339E+07   6.61772618E+07   1.46158971E+07   0.23990157      
  82               4.10019301E+01   1.40990474E+01   2274.22085770    1.76059341E-04   4.49037871E+19   1.53200711E+07   6.74552494E+07   1.41051111E+07   0.23769549      
  83               4.85081376E+01   1.50675943E+01   2309.75204382    1.85227474E-04   4.72502812E+19   1.40353045E+07   6.87438313E+07   1.35687717E+07   0.2351979       
  84               5.73885036E+01   1.61344184E+01   2347.51016546    1.95131477E-04   4.97819236E+19   1.28365001E+07   6.99466272E+07   1.30076062E+07   0.2327145       
  85               6.78945948E+01   1.73081679E+01   2385.48806504    2.05946920E-04   5.25532635E+19   1.16840036E+07   7.11036497E+07   1.24220942E+07   0.22990005      
  86               8.03240320E+01   1.85987614E+01   2425.49373781    2.17593829E-04   5.55404897E+19   1.06528977E+07   7.21391027E+07   1.18124302E+07   0.22716846      
  87               9.50289215E+01   2.00164826E+01   2465.58890578    2.30301922E-04   5.88021136E+19   9.64401701E+06   7.31523177E+07   1.11791135E+07   0.22409702      
  88               1.12425830E+02   2.15727856E+01   2507.48137165    2.43974394E-04   6.23152513E+19   8.72689175E+06   7.40728538E+07   1.05225514E+07   0.22116886      
  89               1.33007583E+02   2.32803240E+01   2549.35506889    2.58859241E-04   6.61430980E+19   7.84839105E+06   7.49548990E+07   9.84308311E+06   0.21784992      
  90               1.57357229E+02   2.51531651E+01   2592.78210561    2.74874732E-04   7.02671696E+19   7.06723448E+06   7.57389710E+07   9.14097373E+06   0.2147897       
  91               1.86164557E+02   2.72066986E+01   2636.14566569    2.92280141E-04   7.47536290E+19   6.32680035E+06   7.64826051E+07   8.41647445E+06   0.21130749      
  92               2.20245630E+02   2.94580237E+01   2680.80141865    3.11019495E-04   7.95911542E+19   5.67577088E+06   7.71359632E+07   7.66977061E+06   0.20824831      
  93               2.60565913E+02   3.19255638E+01   2725.43281858    3.31349484E-04   8.48455235E+19   5.06612510E+06   7.77484837E+07   6.90111638E+06   0.20458297      
  94               3.08267614E+02   3.46296726E+01   2770.99714955    3.53264588E-04   9.05186663E+19   4.52742125E+06   7.82899442E+07   6.11073796E+06   0.20112591      
  95               3.64702046E+02   3.75924045E+01   2816.48991815    3.77017785E-04   9.66757932E+19   4.04154991E+06   7.87786846E+07   5.29890699E+06   0.19799733      
  96               4.31467909E+02   4.08375495E+01   2862.96085620    4.02589934E-04   1.03316599E+20   3.60520363E+06   7.92185492E+07   4.46594281E+06   0.19486694      
  97               5.10456573E+02   4.43908206E+01   2909.22091414    4.30290491E-04   1.10520365E+20   3.20578556E+06   7.96224954E+07   3.61221257E+06   0.19184827      
  98               6.03905660E+02   4.82799157E+01   2956.40901898    4.60085452E-04   1.18284496E+20   2.84879918E+06   7.99852901E+07   2.73812801E+06   0.18894803      
  99               7.14462436E+02   5.25344919E+01   3003.30132899    4.92325399E-04   1.26698498E+20   2.52206652E+06   8.03218780E+07   1.84417244E+06   0.18613951      
  100              8.45258798E+02   5.71856030E+01   3051.05409565    5.26959460E-04   1.35757127E+20   2.22913373E+06   8.06306718E+07   9.31011490E+05   0.18334941      
  101              1.00000000E+03   6.22627173E+01   3098.32824040    5.64361107E-04   1.45554784E+20   2.07429416E+06   8.07897501E+07   0.00000000E+00   0.1807555       
