# ATMO pressure-temperature profile
# Effective temperature = 600.0K
# log(g) = 3.0cm/s^2
# M/H = 0.0
# Optical depth grid in band 17 (1.20-1.33microns)
# All parameters in cgs units
#
# Model Level      Optical Depth    Pressure         Temperature      Density          Number Density   Rad Flux         Conv Flux        Radial Extension Adiabatic Gradient
#                                   [Ba]             [K]              [g/cm^3]         [/cm^3]          [ergs/s/cm^2/sr] [ergs/s/cm^2/sr] [cm]             [K/Ba]          
  1                1.00000000E-04   1.00000000E-05   125.27691396     2.26164395E-09   5.78168988E+14   7.34804430E+06   0.00000000E+00   3.32670413E+08   0.33280209      
  2                1.17489755E-04   9.07071559E-05   164.62022724     1.56001371E-08   3.99102265E+15   7.34804430E+06   0.00000000E+00   3.19083033E+08   0.32295158      
  3                1.38038426E-04   1.77236284E-04   182.70497501     2.74857462E-08   7.02632286E+15   7.34804430E+06   0.00000000E+00   3.14904303E+08   0.31874878      
  4                1.62181010E-04   2.74297727E-04   198.73522623     3.91068309E-08   9.99708064E+15   7.34804430E+06   0.00000000E+00   3.11943792E+08   0.31692599      
  5                1.90546072E-04   3.84721848E-04   207.74715405     5.24707213E-08   1.34133608E+16   7.34804430E+06   0.00000000E+00   3.09506099E+08   0.31377608      
  6                2.23872114E-04   5.11255186E-04   219.07109616     6.61238161E-08   1.69035719E+16   7.34804430E+06   0.00000000E+00   3.07357934E+08   0.31286171      
  7                2.63026799E-04   6.56650577E-04   225.79956961     8.23979644E-08   2.10638164E+16   7.34804430E+06   0.00000000E+00   3.05388174E+08   0.31063006      
  8                3.09029543E-04   8.24076649E-04   235.44562213     9.91704421E-08   2.53514514E+16   7.34804430E+06   0.00000000E+00   3.03536034E+08   0.31004733      
  9                3.63078055E-04   1.01710929E-03   241.12466518     1.19517429E-07   3.05528566E+16   7.34804430E+06   0.00000000E+00   3.01762972E+08   0.30836352      
  10               4.26579519E-04   1.23999189E-03   249.82990417     1.40630552E-07   3.59501133E+16   7.34804430E+06   0.00000000E+00   3.00043794E+08   0.3079594       
  11               5.01187234E-04   1.49747810E-03   255.12156714     1.66310075E-07   4.25147025E+16   7.34804430E+06   0.00000000E+00   2.98360132E+08   0.30663541      
  12               5.88843655E-04   1.79513466E-03   263.53711861     1.93001415E-07   4.93379476E+16   7.34804430E+06   0.00000000E+00   2.96698726E+08   0.30631017      
  13               6.91830971E-04   2.13931423E-03   268.69341853     2.25591536E-07   5.76691287E+16   7.34804430E+06   0.00000000E+00   2.95049260E+08   0.30524487      
  14               8.12830516E-04   2.53744681E-03   276.98350144     2.59566293E-07   6.63542715E+16   7.34804430E+06   0.00000000E+00   2.93403971E+08   0.30497646      
  15               9.54992586E-04   2.99796242E-03   282.24904199     3.00953192E-07   7.69342188E+16   7.34804430E+06   0.00000000E+00   2.91756299E+08   0.30410532      
  16               1.12201845E-03   3.53077346E-03   290.57682180     3.44281849E-07   8.80105477E+16   7.34804430E+06   0.00000000E+00   2.90101037E+08   0.30387937      
  17               1.31825674E-03   4.14731869E-03   295.83727503     3.97209618E-07   1.01540747E+17   7.34804430E+06   0.00000000E+00   2.88433798E+08   0.30317232      
  18               1.54881662E-03   4.86092738E-03   304.17989331     4.52786914E-07   1.15748259E+17   7.34804430E+06   0.00000000E+00   2.86751111E+08   0.30298388      
  19               1.81970086E-03   5.68678916E-03   309.61487081     5.20415894E-07   1.33036606E+17   7.34804430E+06   0.00000000E+00   2.85049794E+08   0.30240971      
  20               2.13796209E-03   6.64253126E-03   318.22468791     5.91432205E-07   1.51190874E+17   7.34804430E+06   0.00000000E+00   2.83327081E+08   0.30224429      
  21               2.51188643E-03   7.74840164E-03   323.94284379     6.77717925E-07   1.73248536E+17   7.34804430E+06   0.00000000E+00   2.81580345E+08   0.30178061      
  22               2.95120923E-03   9.02794498E-03   332.80320548     7.68611072E-07   1.96484023E+17   7.34804430E+06   0.00000000E+00   2.79807474E+08   0.30164001      
  23               3.46736850E-03   1.05079773E-02   338.88472966     8.78561874E-07   2.24591319E+17   7.34804430E+06   0.00000000E+00   2.78006399E+08   0.30126422      
  24               4.07380278E-03   1.22194006E-02   348.23247729     9.94227786E-07   2.54159571E+17   7.34804430E+06   0.00000000E+00   2.76175230E+08   0.30114081      
  25               4.78630092E-03   1.41978828E-02   354.87444671     1.13358508E-06   2.89784198E+17   7.34804430E+06   0.00000000E+00   2.74311590E+08   0.30087494      
  26               5.62341325E-03   1.64847094E-02   364.82310132     1.28027774E-06   3.27284022E+17   7.34804430E+06   0.00000000E+00   2.72413337E+08   0.3007506       
  27               6.60693448E-03   1.91265721E-02   372.20794660     1.45598555E-06   3.72200834E+17   7.34804430E+06   0.00000000E+00   2.70478343E+08   0.30047523      
  28               7.76247117E-03   2.21769097E-02   382.98515713     1.64068278E-06   4.19415933E+17   7.34804430E+06   0.00000000E+00   2.68504752E+08   0.30036791      
  29               9.12010839E-03   2.56959587E-02   391.31091960     1.86058006E-06   4.75629407E+17   7.34804430E+06   0.00000000E+00   2.66490616E+08   0.30020451      
  30               1.07151931E-02   2.97530532E-02   403.06211236     2.09153348E-06   5.34669489E+17   7.34804430E+06   0.00000000E+00   2.64433975E+08   0.3001555       
  31               1.25892541E-02   3.44258916E-02   412.46635722     2.36486324E-06   6.04536470E+17   7.34804430E+06   0.00000000E+00   2.62332876E+08   0.30000916      
  32               1.47910839E-02   3.98020604E-02   425.47580589     2.65057390E-06   6.77573675E+17   7.34804430E+06   0.00000000E+00   2.60185540E+08   0.29991852      
  33               1.73780083E-02   4.59803381E-02   436.48825079     2.98475471E-06   7.63001589E+17   7.34804430E+06   0.00000000E+00   2.57988980E+08   0.29975907      
  34               2.04173794E-02   5.30715062E-02   451.48150488     3.33065861E-06   8.51426747E+17   7.34804430E+06   0.00000000E+00   2.55739934E+08   0.29967858      
  35               2.39883292E-02   6.11957958E-02   464.97823803     3.72903614E-06   9.53267527E+17   7.34804430E+06   0.00000000E+00   2.53434661E+08   0.29959347      
  36               2.81838293E-02   7.04831013E-02   482.67352034     4.13784850E-06   1.05768750E+18   7.34804430E+06   0.00000000E+00   2.51070306E+08   0.2995399       
  37               3.31131121E-02   8.10749015E-02   498.82212428     4.60556511E-06   1.17724421E+18   7.34804430E+06   0.00000000E+00   2.48644025E+08   0.29943905      
  38               3.89045145E-02   9.31228722E-02   519.49470603     5.07944377E-06   1.29837778E+18   7.34804430E+06   0.00000000E+00   2.46153079E+08   0.29934588      
  39               4.57088190E-02   1.06771106E-01   541.43934463     5.58783568E-06   1.42833399E+18   7.31439301E+06   3.36512872E+04   2.43591271E+08   0.29917951      
  40               5.37031796E-02   1.22228597E-01   563.53343798     6.14598800E-06   1.57101010E+18   7.25188035E+06   9.61639450E+04   2.40953596E+08   0.29905788      
  41               6.30957344E-02   1.39720664E-01   586.79012900     6.74707503E-06   1.72466075E+18   7.16044192E+06   1.87602379E+05   2.38237235E+08   0.29888152      
  42               7.41310241E-02   1.59486629E-01   610.17896019     7.40634648E-06   1.89318429E+18   7.04073692E+06   3.07307374E+05   2.35441099E+08   0.29871779      
  43               8.70963590E-02   1.81782311E-01   634.78289566     8.11452004E-06   2.07420771E+18   6.89400612E+06   4.54038178E+05   2.32565109E+08   0.29842673      
  44               1.02329299E-01   2.06927648E-01   659.49196321     8.89088525E-06   2.27266201E+18   6.72688019E+06   6.21164107E+05   2.29604688E+08   0.29819182      
  45               1.20226443E-01   2.35286250E-01   685.54857487     9.72509864E-06   2.48590287E+18   6.54544262E+06   8.02601683E+05   2.26554930E+08   0.29785708      
  46               1.41253754E-01   2.67238892E-01   711.70183517     1.06398905E-05   2.71974017E+18   6.35775929E+06   9.90285013E+05   2.23413762E+08   0.29759826      
  47               1.65958691E-01   3.03176358E-01   739.27460541     1.16205163E-05   2.97040305E+18   6.17066749E+06   1.17737681E+06   2.20181800E+08   0.29714419      
  48               1.94984460E-01   3.43499934E-01   766.82663720     1.26931023E-05   3.24455625E+18   5.99691420E+06   1.35113010E+06   2.16861610E+08   0.29675116      
  49               2.29086765E-01   3.88720940E-01   795.86647904     1.38400793E-05   3.53772086E+18   5.84853341E+06   1.49951089E+06   2.13449779E+08   0.29611794      
  50               2.69153480E-01   4.39447232E-01   824.85604145     1.50962562E-05   3.85881904E+18   5.73815782E+06   1.60988648E+06   2.09940408E+08   0.29560707      
  51               3.16227766E-01   4.96317089E-01   855.48528667     1.64394490E-05   4.20215942E+18   5.66796076E+06   1.68008354E+06   2.06330435E+08   0.29481665      
  52               3.71535229E-01   5.59967620E-01   885.95448004     1.79098609E-05   4.57801642E+18   5.63775755E+06   1.71028675E+06   2.02620961E+08   0.2942019       
  53               4.36515832E-01   6.31020590E-01   918.11056717     1.94755719E-05   4.97822342E+18   5.64255554E+06   1.70548876E+06   1.98816517E+08   0.29325027      
  54               5.12861384E-01   7.10131696E-01   949.88146570     2.11843445E-05   5.41496088E+18   5.68500304E+06   1.66304126E+06   1.94921715E+08   0.2925335       
  55               6.02559586E-01   7.98180229E-01   983.44854564     2.29986546E-05   5.87861696E+18   5.76260720E+06   1.58543710E+06   1.90932715E+08   0.29143424      
  56               7.07945784E-01   8.96133464E-01   1016.51871613    2.49808138E-05   6.38532719E+18   5.88001921E+06   1.46802509E+06   1.86846094E+08   0.29054229      
  57               8.31763771E-01   1.00506984E+00   1051.56139508    2.70835406E-05   6.92289027E+18   6.03037708E+06   1.31766722E+06   1.82657994E+08   0.28937663      
  58               9.77237221E-01   1.12610190E+00   1085.98517641    2.93825694E-05   7.51068648E+18   6.21553165E+06   1.13251265E+06   1.78367543E+08   0.28838221      
  59               1.14815362E+00   1.26037256E+00   1122.49426055    3.18157006E-05   8.13281043E+18   6.42445603E+06   9.23588267E+05   1.73976016E+08   0.28706257      
  60               1.34896288E+00   1.40916198E+00   1158.18935040    3.44744395E-05   8.81266356E+18   6.66074835E+06   6.87295945E+05   1.69483363E+08   0.28596059      
  61               1.58489319E+00   1.57409406E+00   1196.15881003    3.72861487E-05   9.53164101E+18   6.90596316E+06   4.42081137E+05   1.64883097E+08   0.28450213      
  62               1.86208714E+00   1.75697937E+00   1233.20933430    4.03669590E-05   1.03194297E+19   7.15799102E+06   1.90053276E+05   1.60169068E+08   0.28332402      
  63               2.18776162E+00   1.96017588E+00   1272.85718847    4.36318590E-05   1.11542713E+19   7.34804430E+06   0.00000000E+00   1.55327328E+08   0.28179438      
  64               2.57039578E+00   2.18721597E+00   1310.60213584    4.72825029E-05   1.20877825E+19   7.34804430E+06   0.00000000E+00   1.50328702E+08   0.28055773      
  65               3.01995172E+00   2.44421988E+00   1347.08111093    5.14057781E-05   1.31423299E+19   7.34804430E+06   0.00000000E+00   1.45115746E+08   0.27914813      
  66               3.54813389E+00   2.73951618E+00   1383.64666511    5.60909552E-05   1.43408373E+19   7.34804430E+06   0.00000000E+00   1.39616453E+08   0.27800777      
  67               4.16869383E+00   3.08255389E+00   1420.27438882    6.14841770E-05   1.57204242E+19   7.34804430E+06   0.00000000E+00   1.33775074E+08   0.27661221      
  68               4.89778819E+00   3.48156007E+00   1458.22232396    6.76336416E-05   1.72932249E+19   7.34804430E+06   0.00000000E+00   1.27587527E+08   0.27537683      
  69               5.75439937E+00   3.94185227E+00   1497.35744831    7.45733745E-05   1.90678048E+19   7.34804430E+06   0.00000000E+00   1.21106223E+08   0.27383051      
  70               6.76082975E+00   4.46541525E+00   1538.71677461    8.22103555E-05   2.10198205E+19   7.34804430E+06   0.00000000E+00   1.14419419E+08   0.272445        
  71               7.94328235E+00   5.04137254E+00   1581.75715293    9.03267350E-05   2.30852629E+19   7.34804430E+06   0.00000000E+00   1.07735159E+08   0.27074191      
  72               9.33254301E+00   5.65998267E+00   1627.37101853    9.85699077E-05   2.51915195E+19   7.34804429E+06   0.00000000E+00   1.01179154E+08   0.26922152      
  73               1.09647820E+01   6.30672137E+00   1675.28983127    1.06700000E-04   2.72671365E+19   6.94334090E+06   4.04703394E+05   9.48728001E+07   0.26741593      
  74               1.28824955E+01   6.95055613E+00   1719.25920586    1.14619602E-04   2.92822225E+19   6.07048830E+06   1.27755598E+06   8.90507902E+07   0.26571502      
  75               1.51356125E+01   7.55463442E+00   1757.61913515    1.21922244E-04   3.11325375E+19   5.12760986E+06   2.22043443E+06   8.39406318E+07   0.26420833      
  76               1.77827941E+01   8.09489166E+00   1789.90457371    1.28417264E-04   3.27572174E+19   4.28347814E+06   3.06531622E+06   7.96227143E+07   0.26290869      
  77               2.08929613E+01   8.56712390E+00   1816.70928532    1.33901907E-04   3.41566643E+19   3.81457605E+06   3.53441818E+06   7.60214857E+07   0.26183143      
  78               2.45470892E+01   9.09120890E+00   1845.13914658    1.39899890E-04   3.56876831E+19   3.45249958E+06   3.89747876E+06   7.21923582E+07   0.26066747      
  79               2.88403150E+01   9.52312576E+00   1867.50519963    1.44834718E-04   3.69354623E+19   2.93881528E+06   4.40922904E+06   6.91579442E+07   0.25976352      
  80               3.38844156E+01   9.85237280E+00   1884.08277873    1.48522036E-04   3.78762257E+19   2.64226552E+06   4.70577881E+06   6.69130796E+07   0.25903921      
  81               3.98107171E+01   1.02233728E+01   1902.14727902    1.52649116E-04   3.89292377E+19   2.54240745E+06   4.80563678E+06   6.44491320E+07   0.25830685      
  82               4.67735141E+01   1.06398731E+01   1921.88064277    1.57234318E-04   4.00992153E+19   2.44036508E+06   4.90767922E+06   6.17607280E+07   0.25744593      
  83               5.49540874E+01   1.11056557E+01   1943.11921783    1.62320688E-04   4.13971647E+19   2.33030129E+06   5.02478096E+06   5.88451626E+07   0.25656154      
  84               6.45654229E+01   1.16272817E+01   1966.14196873    1.67946305E-04   4.28340522E+19   2.08405622E+06   5.27229748E+06   5.56858894E+07   0.25587663      
  85               7.58577575E+01   1.20168164E+01   1982.72332021    1.72268910E-04   4.38988508E+19   1.74194320E+06   5.62304700E+06   5.33955125E+07   0.2554592       
  86               8.91250938E+01   1.22976883E+01   1994.50065902    1.75252203E-04   4.46596316E+19   1.56238495E+06   5.78565931E+06   5.17790221E+07   0.25491477      
  87               1.04712855E+02   1.26175766E+01   2007.53416588    1.78640754E-04   4.55238354E+19   1.50804013E+06   5.84000416E+06   4.99711137E+07   0.254281        
  88               1.23026877E+02   1.29805141E+01   2022.09629958    1.82452674E-04   4.64960326E+19   1.45013766E+06   5.89790656E+06   4.79607876E+07   0.25354594      
  89               1.44543977E+02   1.33907407E+01   2038.03566845    1.86742730E-04   4.75903238E+19   1.38836620E+06   5.95967805E+06   4.57383632E+07   0.2527553       
  90               1.69824365E+02   1.38530607E+01   2055.62189954    1.91532743E-04   4.88121954E+19   1.32574239E+06   6.02230193E+06   4.32938101E+07   0.25183014      
  91               1.99526231E+02   1.43721519E+01   2074.66220290    1.96880147E-04   5.01764860E+19   1.26570300E+06   6.08234130E+06   4.06206723E+07   0.25084793      
  92               2.34422882E+02   1.49552704E+01   2095.48070108    2.02825522E-04   5.16935604E+19   1.21014757E+06   6.13789669E+06   3.77026084E+07   0.24968071      
  93               2.75422870E+02   1.56083416E+01   2117.84807352    2.09438102E-04   5.33811343E+19   1.15258605E+06   6.19545819E+06   3.45339781E+07   0.24846128      
  94               3.23593657E+02   1.63376465E+01   2142.01991996    2.16739454E-04   5.52448540E+19   1.09418919E+06   6.25385510E+06   3.11109327E+07   0.24703376      
  95               3.80189396E+02   1.71498776E+01   2167.70237478    2.24805971E-04   5.73043000E+19   1.03485016E+06   6.31319414E+06   2.74312780E+07   0.24559935      
  96               4.46683592E+02   1.80521789E+01   2195.16886121    2.33656504E-04   5.95645048E+19   9.75112532E+05   6.37293172E+06   2.34943344E+07   0.24386445      
  97               5.24807460E+02   1.90522456E+01   2224.03059825    2.43380765E-04   6.20484952E+19   9.15239419E+05   6.43280484E+06   1.93006336E+07   0.24211183      
  98               6.16595002E+02   2.01583779E+01   2254.61034925    2.53993832E-04   6.47604601E+19   8.55433903E+05   6.49261038E+06   1.48517298E+07   0.23995614      
  99               7.24435960E+02   2.13796290E+01   2286.39701287    2.65606871E-04   6.77289526E+19   7.96609532E+05   6.55143475E+06   1.01498179E+07   0.23789316      
  100              8.51138038E+02   2.27258410E+01   2319.83650940    2.78224638E-04   7.09558856E+19   7.37539147E+05   6.61050510E+06   5.19763183E+06   0.23534591      
  101              1.00000000E+03   2.42073165E+01   2354.22436134    2.92018684E-04   7.44774225E+19   7.04292811E+05   6.64375146E+06   0.00000000E+00   0.2329998       
