# ATMO pressure-temperature profile
# Effective temperature = 1600.0K
# log(g) = 4.0cm/s^2
# M/H = 0.0
# Optical depth grid in band 17 (1.20-1.33microns)
# All parameters in cgs units
#
# Model Level      Optical Depth    Pressure         Temperature      Density          Number Density   Rad Flux         Conv Flux        Radial Extension Adiabatic Gradient
#                                   [Ba]             [K]              [g/cm^3]         [/cm^3]          [ergs/s/cm^2/sr] [ergs/s/cm^2/sr] [cm]             [K/Ba]          
  1                1.00000000E-06   1.00000000E-05   407.58410366     6.95336092E-10   1.77708664E+14   3.71583550E+08   0.00000000E+00   6.81361455E+07   0.297909        
  2                1.23026877E-06   1.85020292E-05   464.41341705     1.12909282E-09   2.88562866E+14   3.71583550E+08   0.00000000E+00   6.71766090E+07   0.29796259      
  3                1.51356125E-06   2.83273026E-05   486.53146635     1.65009614E-09   4.21716048E+14   3.71583550E+08   0.00000000E+00   6.64567868E+07   0.29794079      
  4                1.86208714E-06   4.00455085E-05   505.88616711     2.24344749E-09   5.73359282E+14   3.71583550E+08   0.00000000E+00   6.58477430E+07   0.29788753      
  5                2.29086765E-06   5.41175848E-05   518.90769458     2.95571892E-09   7.55395051E+14   3.71583550E+08   0.00000000E+00   6.53012700E+07   0.29780275      
  6                2.81838293E-06   7.10868662E-05   533.66592079     3.77515387E-09   9.64818758E+14   3.71583550E+08   0.00000000E+00   6.47932690E+07   0.29771887      
  7                3.46736850E-06   9.15923818E-05   544.35441963     4.76861548E-09   1.21871860E+15   3.71583550E+08   0.00000000E+00   6.43099797E+07   0.2975992       
  8                4.26579519E-06   1.16405282E-04   557.55235132     5.91700128E-09   1.51221268E+15   3.71583550E+08   0.00000000E+00   6.38428574E+07   0.29749207      
  9                5.24807460E-06   1.46453670E-04   567.19548254     7.31782550E-09   1.87022275E+15   3.71583550E+08   0.00000000E+00   6.33862118E+07   0.29734098      
  10               6.45654229E-06   1.82864942E-04   579.55757262     8.94228138E-09   2.28538677E+15   3.71583550E+08   0.00000000E+00   6.29360997E+07   0.29748464      
  11               7.94328235E-06   2.26999388E-04   588.63873490     1.09292467E-08   2.79319779E+15   3.71583551E+08   0.00000000E+00   6.24896645E+07   0.29734092      
  12               9.77237221E-06   2.80504674E-04   600.65587541     1.32351438E-08   3.38251874E+15   3.71583551E+08   0.00000000E+00   6.20447903E+07   0.29722855      
  13               1.20226443E-05   3.45364222E-04   609.62531507     1.60556741E-08   4.10336540E+15   3.71583551E+08   0.00000000E+00   6.15998566E+07   0.29707347      
  14               1.47910839E-05   4.23973452E-04   621.72043063     1.93267011E-08   4.93934503E+15   3.71583551E+08   0.00000000E+00   6.11536043E+07   0.2969514       
  15               1.81970086E-05   5.19243507E-04   630.80743845     2.33285820E-08   5.96211170E+15   3.71583551E+08   0.00000000E+00   6.07049277E+07   0.29678119      
  16               2.23872114E-05   6.34740353E-04   643.04146319     2.79751731E-08   7.14962019E+15   3.71583552E+08   0.00000000E+00   6.02528220E+07   0.29664654      
  17               2.75422870E-05   7.74782252E-04   652.18291173     3.36686976E-08   8.60470703E+15   3.71583552E+08   0.00000000E+00   5.97965135E+07   0.29646119      
  18               3.38844156E-05   9.44607360E-04   664.48149808     4.02887143E-08   1.02966102E+16   3.71583552E+08   0.00000000E+00   5.93354114E+07   0.296316        
  19               4.16869383E-05   1.15055310E-03   673.60773214     4.84076507E-08   1.23715879E+16   3.71583552E+08   0.00000000E+00   5.88690699E+07   0.29611506      
  20               5.12861384E-05   1.40029099E-03   685.96182962     5.78540144E-08   1.47857781E+16   3.71583552E+08   0.00000000E+00   5.83971579E+07   0.29595715      
  21               6.30957344E-05   1.70308325E-03   695.12920237     6.94360345E-08   1.77458245E+16   3.71583552E+08   0.00000000E+00   5.79194246E+07   0.29573867      
  22               7.76247117E-05   2.07011528E-03   707.63633117     8.29080977E-08   2.11889896E+16   3.71583552E+08   0.00000000E+00   5.74356834E+07   0.29556801      
  23               9.54992586E-05   2.51488121E-03   716.87191409     9.94232139E-08   2.54098294E+16   3.71583552E+08   0.00000000E+00   5.69458040E+07   0.29533173      
  24               1.17489755E-04   3.05364773E-03   729.56338655     1.18622021E-07   3.03166873E+16   3.71583553E+08   0.00000000E+00   5.64496985E+07   0.295147        
  25               1.44543977E-04   3.70599218E-03   738.96780890     1.42130632E-07   3.63249327E+16   3.71583554E+08   0.00000000E+00   5.59472976E+07   0.29489044      
  26               1.77827941E-04   4.49546349E-03   751.93704914     1.69433335E-07   4.33030843E+16   3.71583555E+08   0.00000000E+00   5.54385608E+07   0.29468839      
  27               2.18776162E-04   5.45039849E-03   761.59658565     2.02818884E-07   5.18357166E+16   3.71583557E+08   0.00000000E+00   5.49234269E+07   0.29440839      
  28               2.69153480E-04   6.60541722E-03   775.08942146     2.41518478E-07   6.17268740E+16   3.71583560E+08   0.00000000E+00   5.44015600E+07   0.29418529      
  29               3.31131121E-04   8.00219574E-03   785.36717630     2.88760275E-07   7.38010029E+16   3.71583563E+08   0.00000000E+00   5.38726478E+07   0.29387673      
  30               4.07380278E-04   9.69075115E-03   799.62311161     3.43454997E-07   8.77804783E+16   3.71583568E+08   0.00000000E+00   5.33364664E+07   0.29362539      
  31               5.01187234E-04   1.17308957E-02   810.66656948     4.10095894E-07   1.04812903E+17   3.71583572E+08   0.00000000E+00   5.27928615E+07   0.29328155      
  32               6.16595002E-04   1.41937189E-02   826.06372698     4.86941153E-07   1.24453894E+17   3.71583577E+08   0.00000000E+00   5.22417335E+07   0.29318342      
  33               7.58577575E-04   1.71635042E-02   838.35875645     5.80187102E-07   1.48286596E+17   3.71583581E+08   0.00000000E+00   5.16830025E+07   0.29286655      
  34               9.33254301E-04   2.07394169E-02   855.26656823     6.87206351E-07   1.75638972E+17   3.71583585E+08   0.00000000E+00   5.11166853E+07   0.29252284      
  35               1.14815362E-03   2.50375359E-02   869.18529566     8.16335534E-07   2.08643593E+17   3.71583589E+08   0.00000000E+00   5.05428325E+07   0.29206719      
  36               1.41253754E-03   3.01925838E-02   888.19066892     9.63355224E-07   2.46218065E+17   3.71583592E+08   0.00000000E+00   4.99615253E+07   0.29166342      
  37               1.73780083E-03   3.63602977E-02   904.22680464     1.13956498E-06   2.91256679E+17   3.71583595E+08   0.00000000E+00   4.93728694E+07   0.2910948       
  38               2.13796209E-03   4.37203216E-02   925.48866153     1.33873294E-06   3.42166971E+17   3.71583597E+08   0.00000000E+00   4.87769840E+07   0.2905287       
  39               2.63026799E-03   5.24830095E-02   944.07981784     1.57538727E-06   4.02657559E+17   3.71583598E+08   0.00000000E+00   4.81735959E+07   0.28981419      
  40               3.23593657E-03   6.29005025E-02   968.45127616     1.84054192E-06   4.70437766E+17   3.71583595E+08   0.00000000E+00   4.75618137E+07   0.28923856      
  41               3.98107171E-03   7.52579332E-02   990.34022749     2.15343721E-06   5.50419367E+17   3.71583587E+08   0.00000000E+00   4.69411030E+07   0.28855185      
  42               4.89778819E-03   8.98726166E-02   1018.46319336    2.50056897E-06   6.39157497E+17   3.71583572E+08   0.00000000E+00   4.63113010E+07   0.28789596      
  43               6.02559586E-03   1.07085355E-01   1044.62062571    2.90484758E-06   7.42501479E+17   3.71583549E+08   0.00000000E+00   4.56726421E+07   0.28702612      
  44               7.41310241E-03   1.27263825E-01   1077.48088699    3.34688705E-06   8.55502409E+17   3.71583515E+08   0.00000000E+00   4.50254903E+07   0.28620887      
  45               9.12010839E-03   1.50786729E-01   1108.48196204    3.85457265E-06   9.85281505E+17   3.71583473E+08   0.00000000E+00   4.43705791E+07   0.28523765      
  46               1.12201845E-02   1.78046100E-01   1146.36577586    4.40095388E-06   1.12495485E+18   3.71583425E+08   0.00000000E+00   4.37087370E+07   0.2842509       
  47               1.38038426E-02   2.09539790E-01   1182.71069487    5.02022285E-06   1.28325753E+18   3.71583374E+08   0.00000000E+00   4.30387155E+07   0.28291338      
  48               1.69824365E-02   2.45830215E-01   1226.23856058    5.68058295E-06   1.45206525E+18   3.71583326E+08   0.00000000E+00   4.23591455E+07   0.28151128      
  49               2.08929613E-02   2.87476944E-01   1268.25050190    6.42286996E-06   1.64181348E+18   3.71583292E+08   0.00000000E+00   4.16696682E+07   0.27978487      
  50               2.57039578E-02   3.35034027E-01   1317.21698824    7.20711698E-06   1.84228762E+18   3.71583274E+08   0.00000000E+00   4.09706797E+07   0.27839923      
  51               3.16227766E-02   3.89013777E-01   1364.50041176    8.07832732E-06   2.06498618E+18   3.71583280E+08   0.00000000E+00   4.02632393E+07   0.27696945      
  52               3.89045145E-02   4.49969260E-01   1418.74136749    8.98698902E-06   2.29723515E+18   3.71583441E+08   0.00000000E+00   3.95478428E+07   0.27524875      
  53               4.78630092E-02   5.18420287E-01   1474.89562166    9.96059613E-06   2.54593049E+18   3.70552045E+08   1.03415419E+06   3.88243438E+07   0.27312516      
  54               5.88843655E-02   5.94018097E-01   1530.55166547    1.10017747E-05   2.81110794E+18   3.68238003E+08   3.34719874E+06   3.81021356E+07   0.27090559      
  55               7.24435960E-02   6.75057545E-01   1584.25603168    1.20801700E-05   3.08632223E+18   3.64469934E+08   7.11316005E+06   3.73991708E+07   0.26869767      
  56               8.91250938E-02   7.58171534E-01   1634.27284304    1.31581221E-05   3.36022803E+18   3.59202847E+08   1.23867779E+07   3.67399023E+07   0.26702896      
  57               1.09647820E-01   8.36143493E-01   1677.43937741    1.41514291E-05   3.61043741E+18   3.53063087E+08   1.85614360E+07   3.61684465E+07   0.26529493      
  58               1.34896288E-01   9.04796969E-01   1712.76852496    1.50033451E-05   3.82629370E+18   3.47008943E+08   2.47292629E+07   3.56972595E+07   0.26404943      
  59               1.65958691E-01   9.63285435E-01   1741.33572464    1.57112633E-05   4.00680607E+18   3.41540161E+08   3.03818567E+07   3.53163069E+07   0.26251814      
  60               2.04173794E-01   1.03022491E+00   1772.16085727    1.65098790E-05   4.21070433E+18   3.35121179E+08   3.69429027E+07   3.49006786E+07   0.2613123       
  61               2.51188643E-01   1.08656219E+00   1797.01827592    1.71862305E-05   4.37953431E+18   3.29188811E+08   4.28363000E+07   3.45661899E+07   0.26009315      
  62               3.09029543E-01   1.13151967E+00   1815.93205514    1.77105033E-05   4.51323920E+18   3.24171832E+08   4.77253728E+07   3.43085006E+07   0.25924931      
  63               3.80189396E-01   1.18396830E+00   1837.47499912    1.83136102E-05   4.66707174E+18   3.18470802E+08   5.34405733E+07   3.40172734E+07   0.25792486      
  64               4.67735141E-01   1.24475111E+00   1861.17012685    1.90079575E-05   4.84420248E+18   3.11805565E+08   6.01246503E+07   3.36914920E+07   0.25674378      
  65               5.75439937E-01   1.31465005E+00   1887.55301478    1.97937986E-05   5.04471740E+18   3.03898766E+08   6.80911109E+07   3.33311302E+07   0.25497534      
  66               7.07945784E-01   1.39400424E+00   1915.71171128    2.06788691E-05   5.27059664E+18   2.94736683E+08   7.73015476E+07   3.29388986E+07   0.25339316      
  67               8.70963590E-01   1.48374115E+00   1946.34073788    2.16620012E-05   5.52160210E+18   2.84863099E+08   8.70555251E+07   3.25149051E+07   0.25122502      
  68               1.07151931E+00   1.58636501E+00   1978.96686762    2.27762693E-05   5.80617924E+18   2.74455737E+08   9.73274861E+07   3.20528873E+07   0.24915293      
  69               1.31825674E+00   1.70330661E+00   2014.45250488    2.40215392E-05   6.12437310E+18   2.63029253E+08   1.08711056E+08   3.15529351E+07   0.24629016      
  70               1.62181010E+00   1.83613092E+00   2051.55757042    2.54225939E-05   6.48254851E+18   2.50493946E+08   1.21191410E+08   3.10154472E+07   0.24359094      
  71               1.99526231E+00   1.98656581E+00   2091.40112267    2.69763252E-05   6.88004785E+18   2.36712348E+08   1.34907859E+08   3.04410012E+07   0.240098        
  72               2.45470892E+00   2.15655517E+00   2132.36949779    2.87154265E-05   7.32527530E+18   2.21792395E+08   1.49756628E+08   2.98302350E+07   0.23680014      
  73               3.01995172E+00   2.34826347E+00   2175.93482236    3.06332033E-05   7.81676003E+18   2.05684072E+08   1.65788412E+08   2.91838519E+07   0.23275084      
  74               3.71535229E+00   2.56413690E+00   2220.07400380    3.27730236E-05   8.36564820E+18   1.88636102E+08   1.82753962E+08   2.85025367E+07   0.22889894      
  75               4.57088190E+00   2.80690108E+00   2266.66727021    3.51234980E-05   8.96943680E+18   1.70689041E+08   2.00617310E+08   2.77870005E+07   0.22412493      
  76               5.62341325E+00   3.07964151E+00   2313.15835501    3.77433059E-05   9.64318814E+18   1.52249900E+08   2.18972501E+08   2.70379084E+07   0.21955289      
  77               6.91830971E+00   3.38549248E+00   2361.91877980    4.06150445E-05   1.03820409E+19   1.33689992E+08   2.37449338E+08   2.62567046E+07   0.21440232      
  78               8.51138038E+00   3.72831911E+00   2409.96177713    4.38069816E-05   1.12054361E+19   1.15995462E+08   2.55067065E+08   2.54439393E+07   0.20952844      
  79               1.04712855E+01   4.11273897E+00   2460.24593702    4.72982812E-05   1.21081687E+19   9.96832485E+07   2.71309795E+08   2.45994028E+07   0.2042824       
  80               1.28824955E+01   4.54359483E+00   2509.35145774    5.11860329E-05   1.31148686E+19   8.49625831E+07   2.85967117E+08   2.37237327E+07   0.19929637      
  81               1.58489319E+01   5.02631097E+00   2560.62997607    5.54329111E-05   1.42176680E+19   7.22233696E+07   2.98651826E+08   2.28174985E+07   0.19426692      
  82               1.94984460E+01   5.56682816E+00   2610.37600449    6.01578677E-05   1.54465177E+19   6.12820943E+07   3.09548708E+08   2.18814736E+07   0.18923286      
  83               2.39883292E+01   6.17169725E+00   2662.09302941    6.53153920E-05   1.67921856E+19   5.22810630E+07   3.18511799E+08   2.09164973E+07   0.18471857      
  84               2.95120923E+01   6.84796286E+00   2712.21491977    7.10381353E-05   1.82878704E+19   4.44177951E+07   3.26346030E+08   1.99236726E+07   0.17983184      
  85               3.63078055E+01   7.60342618E+00   2763.89423026    7.72833045E-05   1.99257077E+19   3.80226671E+07   3.32717852E+08   1.89040613E+07   0.17580852      
  86               4.46683592E+01   8.44646373E+00   2814.14747983    8.41870086E-05   2.17397181E+19   3.23783935E+07   3.38346845E+08   1.78588817E+07   0.17138235      
  87               5.49540874E+01   9.38627065E+00   2865.52366363    9.17177649E-05   2.37254749E+19   2.78170462E+07   3.42892049E+08   1.67893354E+07   0.16813882      
  88               6.76082975E+01   1.04324063E+01   2915.88471088    9.99998806E-05   2.59143299E+19   2.37182201E+07   3.46981963E+08   1.56969615E+07   0.16422195      
  89               8.31763771E+01   1.15954863E+01   2966.75821797    1.09032164E-04   2.83095296E+19   2.03734784E+07   3.50318091E+08   1.45830703E+07   0.16152755      
  90               1.02329299E+02   1.28865338E+01   3017.12798585    1.18910566E-04   3.09362895E+19   1.73901239E+07   3.53299512E+08   1.34491967E+07   0.15830815      
  91               1.25892541E+02   1.43174096E+01   3067.48187892    1.29672778E-04   3.38071285E+19   1.48907192E+07   3.55802373E+08   1.22968654E+07   0.1559252       
  92               1.54881662E+02   1.58998685E+01   3117.63686194    1.41379966E-04   3.69397409E+19   1.27150334E+07   3.57995505E+08   1.11281090E+07   0.15340152      
  93               1.90546072E+02   1.76470700E+01   3167.48345449    1.54100168E-04   4.03537680E+19   1.08690627E+07   3.59871912E+08   9.94436656E+06   0.15129336      
  94               2.34422882E+02   1.95733694E+01   3217.25235341    1.67887183E-04   4.40662715E+19   9.30244441E+06   3.61481771E+08   8.74673532E+06   0.14961912      
  95               2.88403150E+02   2.16944103E+01   3266.88116809    1.82816656E-04   4.80994767E+19   7.95273380E+06   3.62891975E+08   7.53602044E+06   0.148125        
  96               3.54813389E+02   2.40275295E+01   3316.47237916    1.98961661E-04   5.24757404E+19   6.78021497E+06   3.64144482E+08   6.31266191E+06   0.14654643      
  97               4.36515832E+02   2.65923284E+01   3365.81951286    2.16431099E-04   5.72257352E+19   5.77798327E+06   3.65244499E+08   5.07666349E+06   0.14532592      
  98               5.37031796E+02   2.94103818E+01   3415.35751117    2.35290756E-04   6.23720948E+19   4.92262386E+06   3.66216326E+08   3.82785428E+06   0.14422727      
  99               6.60693448E+02   3.25056660E+01   3464.72771464    2.55683318E-04   6.79541209E+19   4.19316189E+06   3.67081333E+08   2.56586462E+06   0.14324731      
  100              8.12830516E+02   3.59048589E+01   3514.39106923    2.77688550E-04   7.39995327E+19   3.57704746E+06   3.67851132E+08   1.29014705E+06   0.14241115      
  101              1.00000000E+03   3.96376746E+01   3564.00884047    3.01476946E-04   8.05555069E+19   3.28607273E+06   3.68231756E+08   0.00000000E+00   0.14173442      
