# ATMO pressure-temperature profile
# Effective temperature = 250.0K
# log(g) = 3.0cm/s^2
# M/H = 0.0
# Optical depth grid in band 17 (1.20-1.33microns)
# All parameters in cgs units
#
# Model Level      Optical Depth    Pressure         Temperature      Density          Number Density   Rad Flux         Conv Flux        Radial Extension Adiabatic Gradient
#                                   [Ba]             [K]              [g/cm^3]         [/cm^3]          [ergs/s/cm^2/sr] [ergs/s/cm^2/sr] [cm]             [K/Ba]          
  1                1.00000000E-04   1.00000000E-05   30.04476691      9.43549630E-09   2.41077678E+15   2.21420242E+05   0.00000000E+00   2.03210478E+08   0.34574451      
  2                1.17489755E-04   3.92094564E-05   36.14517699      3.07520487E-08   7.85717281E+15   2.21420242E+05   0.00000000E+00   2.01495715E+08   0.34574451      
  3                1.38038426E-04   7.35051414E-05   39.66588698      5.25332337E-08   1.34222829E+16   2.21420242E+05   0.00000000E+00   2.00642447E+08   0.34574451      
  4                1.62181010E-04   1.13770819E-04   41.82118798      7.71201927E-08   1.97042704E+16   2.21420242E+05   0.00000000E+00   2.00009840E+08   0.31479426      
  5                1.90546072E-04   1.61043300E-04   44.02134220      1.03708170E-07   2.64975196E+16   2.21420242E+05   0.00000000E+00   1.99481251E+08   0.3148061       
  6                2.23872114E-04   2.16535762E-04   45.64467191      1.34484778E-07   3.43609674E+16   2.21420242E+05   0.00000000E+00   1.99011367E+08   0.31481652      
  7                2.63026799E-04   2.81673188E-04   47.53787787      1.67972934E-07   4.29172177E+16   2.21420242E+05   0.00000000E+00   1.98577982E+08   0.31482605      
  8                3.09029543E-04   3.58118393E-04   48.98582173      2.07247747E-07   5.29519636E+16   2.21420242E+05   0.00000000E+00   1.98168263E+08   0.31483498      
  9                3.63078055E-04   4.47826208E-04   50.79691869      2.49922712E-07   6.38554509E+16   2.21420242E+05   0.00000000E+00   1.97774094E+08   0.31484351      
  10               4.26579519E-04   5.53083060E-04   52.18132107      3.00475367E-07   7.67716945E+16   2.21420242E+05   0.00000000E+00   1.97389995E+08   0.31485175      
  11               5.01187234E-04   6.76553493E-04   54.01586465      3.55070340E-07   9.07207533E+16   2.21420242E+05   0.00000000E+00   1.97011987E+08   0.31485981      
  12               5.88843655E-04   8.21360599E-04   55.44042402      4.19991895E-07   1.07308262E+17   2.21420242E+05   0.00000000E+00   1.96637003E+08   0.31486775      
  13               6.91830971E-04   9.91166026E-04   57.35346729      4.89914526E-07   1.25173550E+17   2.21420242E+05   0.00000000E+00   1.96262659E+08   0.31487562      
  14               8.12830516E-04   1.19022722E-03   58.87298183      5.73122466E-07   1.46433244E+17   2.21420242E+05   0.00000000E+00   1.95886992E+08   0.31488347      
  15               9.54992586E-04   1.42348966E-03   60.97055992      6.61862419E-07   1.69106373E+17   2.21420242E+05   0.00000000E+00   1.95508256E+08   0.31489132      
  16               1.12201845E-03   1.69676259E-03   62.66408405      7.67601779E-07   1.96122863E+17   2.21420242E+05   0.00000000E+00   1.95124862E+08   0.31489921      
  17               1.31825674E-03   2.01682135E-03   64.96180346      8.80122138E-07   2.24871904E+17   2.21420242E+05   0.00000000E+00   1.94735467E+08   0.31490717      
  18               1.54881662E-03   2.39149972E-03   66.86380221      1.01394139E-06   2.59062830E+17   2.21420242E+05   0.00000000E+00   1.94338842E+08   0.31491521      
  19               1.81970086E-03   2.82983480E-03   69.47109332      1.15475682E-06   2.95041284E+17   2.21420242E+05   0.00000000E+00   1.93933749E+08   0.31492337      
  20               2.13796209E-03   3.34231889E-03   71.68544804      1.32175349E-06   3.37709065E+17   2.21420242E+05   0.00000000E+00   1.93518929E+08   0.31493166      
  21               2.51188643E-03   3.93875482E-03   74.69400951      1.49488148E-06   3.81943404E+17   2.21420242E+05   0.00000000E+00   1.93094617E+08   0.3149401       
  22               2.95120923E-03   4.62878015E-03   77.37873254      1.69581522E-06   4.33282134E+17   2.21420241E+05   0.00000000E+00   1.92661234E+08   0.31494871      
  23               3.46736850E-03   5.42287960E-03   81.08987002      1.89581932E-06   4.84383340E+17   2.21420188E+05   0.00000000E+00   1.92218352E+08   0.31495749      
  24               4.07380278E-03   6.33209568E-03   85.04296453      2.11077851E-06   5.39305584E+17   2.21414679E+05   5.56499130E+00   1.91763838E+08   0.31496641      
  25               4.78630092E-03   7.37285987E-03   89.32747173      2.33983118E-06   5.97828723E+17   2.21401539E+05   1.87040691E+01   1.91295523E+08   0.31497549      
  26               5.62341325E-03   8.56638159E-03   93.53603421      2.59628313E-06   6.63352398E+17   2.21379772E+05   4.04704506E+01   1.90811281E+08   0.31498473      
  27               6.60693448E-03   9.93669524E-03   98.13163093      2.87055890E-06   7.33430207E+17   2.21346957E+05   7.32860188E+01   1.90309331E+08   0.31499414      
  28               7.76247117E-03   1.15115671E-02   102.66075461     3.17880009E-06   8.12186632E+17   2.21301382E+05   1.18860954E+02   1.89787980E+08   0.31500378      
  29               9.12010839E-03   1.33234373E-02   107.62979499     3.50926337E-06   8.96622448E+17   2.21243880E+05   1.76362840E+02   1.89245495E+08   0.31501372      
  30               1.07151931E-02   1.54104005E-02   112.54089055     3.88178563E-06   9.91812133E+17   2.21177199E+05   2.43044194E+02   1.88680049E+08   0.31570206      
  31               1.25892541E-02   1.78159909E-02   117.97018508     4.28081568E-06   1.09386458E+18   2.21105077E+05   3.15165035E+02   1.88089926E+08   0.31813332      
  32               1.47910839E-02   2.05898809E-02   123.40829765     4.72980816E-06   1.20846844E+18   2.21031325E+05   3.88917364E+02   1.87473467E+08   0.32153367      
  33               1.73780083E-02   2.37889063E-02   129.46298707     5.20910239E-06   1.33092840E+18   2.20959638E+05   4.60604373E+02   1.86828979E+08   0.32306945      
  34               2.04173794E-02   2.74786234E-02   135.46852562     5.75030075E-06   1.46920503E+18   2.20896930E+05   5.23312340E+02   1.86154814E+08   0.32515198      
  35               2.39883292E-02   3.17349824E-02   142.18147719     6.32745285E-06   1.61666888E+18   2.20843689E+05   5.76553664E+02   1.85449182E+08   0.32602782      
  36               2.81838293E-02   3.66453351E-02   148.79891216     6.98156839E-06   1.78379434E+18   2.20800116E+05   6.20126358E+02   1.84710391E+08   0.32532377      
  37               3.31131121E-02   4.23109421E-02   156.12799688     7.68255969E-06   1.96289807E+18   2.20768914E+05   6.51328240E+02   1.83936790E+08   0.32506847      
  38               3.89045145E-02   4.88497009E-02   163.37382171     8.47643807E-06   2.16573483E+18   2.20746239E+05   6.74004030E+02   1.83126509E+08   0.32474098      
  39               4.57088190E-02   5.63967078E-02   171.39924943     9.32778392E-06   2.38325590E+18   2.20705181E+05   7.15061811E+02   1.82277761E+08   0.32435632      
  40               5.37031796E-02   6.51046700E-02   179.32717082     1.02919667E-05   2.62961328E+18   2.20578695E+05   8.41548388E+02   1.81389014E+08   0.32303165      
  41               6.30957344E-02   7.51472119E-02   188.05195765     1.13282628E-05   2.89441535E+18   2.20262993E+05   1.15725005E+03   1.80458950E+08   0.3218818       
  42               7.41310241E-02   8.67188984E-02   196.66225359     1.24999053E-05   3.19387989E+18   2.19750531E+05   1.66971148E+03   1.79486512E+08   0.31937859      
  43               8.70963590E-02   1.00036869E-01   206.04395962     1.37618319E-05   3.51662485E+18   2.19152182E+05   2.26806003E+03   1.78471090E+08   0.31790227      
  44               1.02329299E-01   1.15344239E-01   215.32951818     1.51766950E-05   3.87987897E+18   2.18235079E+05   3.18516336E+03   1.77411900E+08   0.31542943      
  45               1.20226443E-01   1.32925786E-01   225.37178081     1.67204011E-05   4.27204227E+18   2.16466370E+05   4.95387212E+03   1.76308215E+08   0.31408699      
  46               1.41253754E-01   1.53119926E-01   235.36815251     1.84425422E-05   4.71204959E+18   2.13255432E+05   8.16480968E+03   1.75158232E+08   0.31179024      
  47               1.65958691E-01   1.76327816E-01   246.12744410     2.03093167E-05   5.18903532E+18   2.08352082E+05   1.30681592E+04   1.73959071E+08   0.31057056      
  48               1.94984460E-01   2.02997373E-01   256.90943134     2.23999719E-05   5.72316425E+18   2.01859377E+05   1.95608639E+04   1.72708684E+08   0.30853449      
  49               2.29086765E-01   2.33642795E-01   268.45594315     2.46726873E-05   6.30384041E+18   1.94223225E+05   2.71970158E+04   1.71405116E+08   0.30751306      
  50               2.69153480E-01   2.68861391E-01   280.09715572     2.72117736E-05   6.95257341E+18   1.85738499E+05   3.56817429E+04   1.70045909E+08   0.30586078      
  51               3.16227766E-01   3.09309572E-01   292.50937261     2.99771733E-05   7.65912950E+18   1.76565590E+05   4.48546530E+04   1.68629707E+08   0.30510414      
  52               3.71535229E-01   3.55742800E-01   305.07885734     3.30568231E-05   8.44597610E+18   1.66903446E+05   5.45167984E+04   1.67154670E+08   0.30385248      
  53               4.36515832E-01   4.09006208E-01   318.42606481     3.64131624E-05   9.30351645E+18   1.57224396E+05   6.41958494E+04   1.65619455E+08   0.30326045      
  54               5.12861384E-01   4.70047196E-01   331.97750834     4.01393109E-05   1.02555427E+19   1.48188438E+05   7.32318090E+04   1.64022814E+08   0.30231239      
  55               6.02559586E-01   5.39937732E-01   346.31559843     4.41986233E-05   1.12926915E+19   1.40567145E+05   8.08531041E+04   1.62363498E+08   0.30191423      
  56               7.07945784E-01   6.19901421E-01   360.90545862     4.86929731E-05   1.24409923E+19   1.34579270E+05   8.68409798E+04   1.60639823E+08   0.30129902      
  57               8.31763771E-01   7.11344098E-01   376.31260975     5.35880804E-05   1.36916819E+19   1.30216035E+05   9.12042156E+04   1.58849705E+08   0.3010449       
  58               9.77237221E-01   8.15814612E-01   392.01173233     5.89969627E-05   1.50736440E+19   1.26829745E+05   9.45905066E+04   1.56991709E+08   0.30063065      
  59               1.14815362E+00   9.35036427E-01   408.55319177     6.48809222E-05   1.65769933E+19   1.23811349E+05   9.76089046E+04   1.55064706E+08   0.30041748      
  60               1.34896288E+00   1.07094404E+00   425.40370810     7.13684359E-05   1.82343944E+19   1.20185950E+05   1.01234595E+05   1.53067451E+08   0.30016678      
  61               1.58489319E+00   1.22569499E+00   443.13355431     7.84130677E-05   2.00342742E+19   1.14924741E+05   1.06495515E+05   1.50998806E+08   0.30004975      
  62               1.86208714E+00   1.40166993E+00   461.18058854     8.61619089E-05   2.20140819E+19   1.05968355E+05   1.15452231E+05   1.48857893E+08   0.29988574      
  63               2.18776162E+00   1.60143239E+00   480.13067506     9.45568052E-05   2.41587797E+19   9.06126747E+04   1.30807993E+05   1.46644743E+08   0.29979638      
  64               2.57039578E+00   1.82778516E+00   499.38050485     1.03761385E-04   2.65105906E+19   7.54297644E+04   1.45991034E+05   1.44359557E+08   0.29962371      
  65               3.01995172E+00   2.08420652E+00   519.57261150     1.13729074E-04   2.90549639E+19   6.85555983E+04   1.52865412E+05   1.41999026E+08   0.29951753      
  66               3.54813389E+00   2.37467405E+00   540.10797819     1.24652330E-04   3.18455867E+19   6.34504440E+04   1.57970514E+05   1.39559465E+08   0.29935059      
  67               4.16869383E+00   2.70339829E+00   561.64752941     1.36465678E-04   3.48635832E+19   5.90668177E+04   1.62354465E+05   1.37039063E+08   0.29925504      
  68               4.89778819E+00   3.07474099E+00   583.52373989     1.49391945E-04   3.81659299E+19   5.50063485E+04   1.66414828E+05   1.34438308E+08   0.29904184      
  69               5.75439937E+00   3.49317925E+00   606.38800526     1.63322988E-04   4.17249773E+19   5.13238011E+04   1.70098018E+05   1.31759484E+08   0.29888239      
  70               6.76082975E+00   3.96395912E+00   629.55193188     1.78514900E-04   4.56061536E+19   4.80259638E+04   1.73395417E+05   1.29002355E+08   0.29858028      
  71               7.94328235E+00   4.49367302E+00   653.74686266     1.94880533E-04   4.97871986E+19   4.53140987E+04   1.76108451E+05   1.26162345E+08   0.29840021      
  72               9.33254301E+00   5.08935407E+00   678.29418602     2.12726129E-04   5.43463538E+19   4.30088323E+04   1.78412565E+05   1.23236717E+08   0.29800715      
  73               1.09647820E+01   5.75807735E+00   703.87890086     2.31929174E-04   5.92523237E+19   4.11260966E+04   1.80297011E+05   1.20226080E+08   0.29773696      
  74               1.28824955E+01   6.50697709E+00   729.77951499     2.52791789E-04   6.45822912E+19   3.94973025E+04   1.81923828E+05   1.17133190E+08   0.2971524       
  75               1.51356125E+01   7.34348527E+00   756.63195061     2.75164496E-04   7.02980683E+19   3.82540210E+04   1.83184998E+05   1.13961487E+08   0.29678883      
  76               1.77827941E+01   8.27850754E+00   783.84064009     2.99432688E-04   7.64980054E+19   3.73829523E+04   1.84055445E+05   1.10704048E+08   0.29604857      
  77               2.08929613E+01   9.32581526E+00   812.10095891     3.25575391E-04   8.31768797E+19   3.70422023E+04   1.84392436E+05   1.07349770E+08   0.29561919      
  78               2.45470892E+01   1.04988594E+01   840.87764316     3.53985636E-04   9.04347108E+19   3.71518799E+04   1.84278516E+05   1.03894387E+08   0.2947046       
  79               2.88403150E+01   1.18104464E+01   870.64424515     3.84595376E-04   9.82542669E+19   3.78302777E+04   1.83595956E+05   1.00339689E+08   0.29420891      
  80               3.38844156E+01   1.32723107E+01   900.91667561     4.17676416E-04   1.06705733E+20   3.89040304E+04   1.82519089E+05   9.66922747E+07   0.29310413      
  81               3.98107171E+01   1.48950445E+01   931.91970093     4.53149004E-04   1.15768165E+20   4.04231840E+04   1.80997803E+05   9.29622921E+07   0.29227054      
  82               4.67735141E+01   1.66956603E+01   963.41075482     4.91326102E-04   1.25521450E+20   4.22483460E+04   1.79173004E+05   8.91462278E+07   0.29115184      
  83               5.49540874E+01   1.86946306E+01   995.65290081     5.32337925E-04   1.35998702E+20   4.41795619E+04   1.77245027E+05   8.52375684E+07   0.29028497      
  84               6.45654229E+01   2.09110367E+01   1028.47385548    5.76451782E-04   1.47267918E+20   4.56954005E+04   1.75727111E+05   8.12365147E+07   0.28901135      
  85               7.58577575E+01   2.33622121E+01   1061.89957527    6.23769473E-04   1.59351573E+20   4.69334941E+04   1.74488446E+05   7.71487847E+07   0.28779621      
  86               8.91250938E+01   2.60647417E+01   1095.79423175    6.74400134E-04   1.72286106E+20   4.85972817E+04   1.72823395E+05   7.29820139E+07   0.28649677      
  87               1.04712855E+02   2.90378280E+01   1130.16834757    7.28474164E-04   1.86100195E+20   5.06450565E+04   1.70775420E+05   6.87402973E+07   0.28525438      
  88               1.23026877E+02   3.23080420E+01   1165.01377666    7.86272950E-04   2.00865531E+20   5.26985636E+04   1.68736807E+05   6.44193149E+07   0.28396877      
  89               1.44543977E+02   3.59154859E+01   1200.48981773    8.48239904E-04   2.16695107E+20   5.47256397E+04   1.66704090E+05   6.00020471E+07   0.28258097      
  90               1.69824365E+02   3.98966684E+01   1236.58177539    9.14770658E-04   2.33689732E+20   5.65492540E+04   1.64875333E+05   5.54824795E+07   0.28104567      
  91               1.99526231E+02   4.42840284E+01   1273.28001341    9.86110894E-04   2.51912106E+20   5.80747483E+04   1.63348737E+05   5.08630892E+07   0.27966049      
  92               2.34422882E+02   4.91059241E+01   1310.53150577    1.06241246E-03   2.71401511E+20   5.91270448E+04   1.62295676E+05   4.61521352E+07   0.2781607       
  93               2.75422870E+02   5.43873835E+01   1348.18679545    1.14381826E-03   2.92195778E+20   5.96771542E+04   1.61746932E+05   4.13610986E+07   0.27677644      
  94               3.23593657E+02   6.01508528E+01   1386.22481846    1.23031443E-03   3.14292457E+20   5.98089041E+04   1.61611910E+05   3.65026434E+07   0.2752877       
  95               3.80189396E+02   6.64535820E+01   1424.64178803    1.32256648E-03   3.37861383E+20   5.98135517E+04   1.62144656E+05   3.15616669E+07   0.27392111      
  96               4.46683592E+02   7.33740724E+01   1463.77154825    1.42124696E-03   3.63074010E+20   5.96132112E+04   1.61807211E+05   2.65139560E+07   0.2723909       
  97               5.24807460E+02   8.09737403E+01   1503.43223252    1.52705571E-03   3.90109191E+20   5.91279703E+04   1.62292661E+05   2.13553340E+07   0.27101368      
  98               6.16595002E+02   8.92945347E+01   1543.78198393    1.63994311E-03   4.18952465E+20   5.81949751E+04   1.63227238E+05   1.60972829E+07   0.26956047      
  99               7.24435960E+02   9.83568529E+01   1584.34973812    1.76008870E-03   4.49654980E+20   5.67759738E+04   1.64644779E+05   1.07632075E+07   0.2682122       
  100              8.51138038E+02   1.08156707E+02   1625.20779110    1.88681819E-03   4.82025928E+20   5.47990323E+04   1.66624011E+05   5.38557535E+06   0.26678401      
  101              1.00000000E+03   1.18669729E+02   1665.72531279    2.01959372E-03   5.16015095E+20   5.35504560E+04   1.67871935E+05   0.00000000E+00   0.26546082      
