# ATMO pressure-temperature profile
# Effective temperature = 900.0K
# log(g) = 4.0cm/s^2
# M/H = 0.0
# Optical depth grid in band 17 (1.20-1.33microns)
# All parameters in cgs units
#
# Model Level      Optical Depth    Pressure         Temperature      Density          Number Density   Rad Flux         Conv Flux        Radial Extension Adiabatic Gradient
#                                   [Ba]             [K]              [g/cm^3]         [/cm^3]          [ergs/s/cm^2/sr] [ergs/s/cm^2/sr] [cm]             [K/Ba]          
  1                5.00000000E-05   1.00000000E-05   275.60407750     1.02803051E-09   2.62808980E+14   3.72000031E+07   0.00000000E+00   4.79552636E+07   0.30445378      
  2                5.91534807E-05   2.68597985E-04   322.61815531     2.35888903E-08   6.03031206E+15   3.72000031E+07   0.00000000E+00   4.27039449E+07   0.30169473      
  3                6.99826855E-05   5.54303633E-04   340.77070110     4.60870298E-08   1.17817911E+16   3.72000031E+07   0.00000000E+00   4.18374306E+07   0.30164976      
  4                8.27943887E-05   8.81982745E-04   354.14069583     7.05631496E-08   1.80389017E+16   3.72000031E+07   0.00000000E+00   4.12628241E+07   0.30150435      
  5                9.79515255E-05   1.26119718E-03   364.02121884     9.81634489E-08   2.50947071E+16   3.72000031E+07   0.00000000E+00   4.08071850E+07   0.30092412      
  6                1.15883473E-04   1.70173981E-03   373.81767081     1.28981270E-07   3.29730538E+16   3.72000031E+07   0.00000000E+00   4.04156688E+07   0.30089407      
  7                1.37098216E-04   2.21445598E-03   381.99450772     1.64249126E-07   4.19890232E+16   3.72000031E+07   0.00000000E+00   4.00634097E+07   0.30052861      
  8                1.62196734E-04   2.81188914E-03   390.61017756     2.03961145E-07   5.21411347E+16   3.72000031E+07   0.00000000E+00   3.97369993E+07   0.30052959      
  9                1.91890027E-04   3.50853993E-03   398.03655337     2.49746488E-07   6.38453551E+16   3.72000031E+07   0.00000000E+00   3.94283307E+07   0.300269        
  10               2.27019260E-04   4.32129732E-03   406.15445028     3.01452354E-07   7.70635074E+16   3.72000031E+07   0.00000000E+00   3.91321193E+07   0.30028296      
  11               2.68579588E-04   5.26972664E-03   413.26839768     3.61286322E-07   9.23595335E+16   3.72000031E+07   0.00000000E+00   3.88447304E+07   0.30008645      
  12               3.17748350E-04   6.37652250E-03   421.30373180     4.28828901E-07   1.09626218E+17   3.72000031E+07   0.00000000E+00   3.85635405E+07   0.30010639      
  13               3.75918418E-04   7.66827884E-03   428.51878347     5.07017963E-07   1.29614585E+17   3.72000031E+07   0.00000000E+00   3.82865104E+07   0.29994489      
  14               4.44737657E-04   9.17596844E-03   436.75160702     5.95266129E-07   1.52174975E+17   3.72000031E+07   0.00000000E+00   3.80120722E+07   0.29996398      
  15               5.26155608E-04   1.09353166E-02   444.33341428     6.97349634E-07   1.78257670E+17   3.72000031E+07   0.00000000E+00   3.77389985E+07   0.2998264       
  16               6.22478712E-04   1.29867492E-02   453.50555870     8.11425413E-07   2.07416679E+17   3.72000031E+07   0.00000000E+00   3.74662840E+07   0.29984086      
  17               7.36435649E-04   1.53770892E-02   461.67300408     9.43779392E-07   2.41248984E+17   3.72000032E+07   0.00000000E+00   3.71931346E+07   0.2997191       
  18               8.71254639E-04   1.81646792E-02   470.11436039     1.09485058E-06   2.79865944E+17   3.72000032E+07   0.00000000E+00   3.69189038E+07   0.29972594      
  19               1.03075489E-03   2.14144539E-02   478.56401756     1.26793642E-06   3.24110277E+17   3.72000032E+07   0.00000000E+00   3.66430830E+07   0.29961796      
  20               1.21945479E-03   2.52005975E-02   487.54839327     1.46461486E-06   3.74385438E+17   3.72000032E+07   0.00000000E+00   3.63652482E+07   0.29961663      
  21               1.44269991E-03   2.96083487E-02   496.74958524     1.68891143E-06   4.31720343E+17   3.72000032E+07   0.00000000E+00   3.60849941E+07   0.29952407      
  22               1.70681442E-03   3.47352862E-02   506.57824538     1.94291753E-06   4.96649710E+17   3.72000032E+07   0.00000000E+00   3.58019674E+07   0.2995853       
  23               2.01928028E-03   4.06932799E-02   516.64698239     2.23181755E-06   5.70498672E+17   3.72000032E+07   0.00000000E+00   3.55158505E+07   0.29951346      
  24               2.38894914E-03   4.76121422E-02   527.44988213     2.55779793E-06   6.53826263E+17   3.72000032E+07   0.00000000E+00   3.52262681E+07   0.29944377      
  25               2.82629313E-03   5.56402829E-02   538.67843400     2.92677488E-06   7.48144660E+17   3.72000032E+07   0.00000000E+00   3.49328498E+07   0.29929462      
  26               3.34370152E-03   6.49477199E-02   550.73134208     3.34159278E-06   8.54181096E+17   3.72000033E+07   0.00000000E+00   3.46352321E+07   0.29926134      
  27               3.95583167E-03   7.57267179E-02   563.23045622     3.80971325E-06   9.73842767E+17   3.72000033E+07   0.00000000E+00   3.43331288E+07   0.29921877      
  28               4.68002425E-03   8.81930240E-02   576.67405606     4.33344166E-06   1.10771914E+18   3.72000033E+07   0.00000000E+00   3.40263148E+07   0.2992074       
  29               5.53679448E-03   1.02586615E-01   590.76516015     4.92045035E-06   1.25777126E+18   3.72000034E+07   0.00000000E+00   3.37146052E+07   0.29912592      
  30               6.55041330E-03   1.19177177E-01   606.06928226     5.57185390E-06   1.42428421E+18   3.72000034E+07   0.00000000E+00   3.33977515E+07   0.29905863      
  31               7.74959494E-03   1.38263120E-01   622.19705533     6.29661595E-06   1.60954915E+18   3.72000034E+07   0.00000000E+00   3.30755258E+07   0.29893579      
  32               9.16831029E-03   1.60181073E-01   639.70967147     7.09507525E-06   1.81365268E+18   3.72000035E+07   0.00000000E+00   3.27476058E+07   0.29882652      
  33               1.08467493E-02   1.85317935E-01   658.26102652     7.97715377E-06   2.03913110E+18   3.72000035E+07   0.00000000E+00   3.24134811E+07   0.29867363      
  34               1.28324595E-02   2.14092091E-01   678.51688765     8.94063976E-06   2.28541883E+18   3.72000037E+07   0.00000000E+00   3.20727637E+07   0.29852701      
  35               1.51816929E-02   2.46960467E-01   700.15105166     9.99457706E-06   2.55482720E+18   3.72000037E+07   0.00000000E+00   3.17250580E+07   0.29835054      
  36               1.79609996E-02   2.84405884E-01   723.67178922     1.11359170E-05   2.84657594E+18   3.72000039E+07   0.00000000E+00   3.13701192E+07   0.29814459      
  37               2.12491128E-02   3.26923489E-01   748.71106827     1.23726726E-05   3.16269791E+18   3.72000040E+07   0.00000000E+00   3.10078974E+07   0.29786682      
  38               2.51391797E-02   3.75026267E-01   775.75366425     1.36984803E-05   3.50157708E+18   3.72000043E+07   0.00000000E+00   3.06384072E+07   0.29752399      
  39               2.97413996E-02   4.29370031E-01   804.40068645     1.51249471E-05   3.86620729E+18   3.72000043E+07   0.00000000E+00   3.02608640E+07   0.29717919      
  40               3.51861462E-02   4.90687932E-01   835.07133804     1.66500830E-05   4.25605899E+18   3.72000045E+07   0.00000000E+00   2.98744684E+07   0.29677203      
  41               4.16276604E-02   5.59715648E-01   867.20001259     1.82887064E-05   4.67491816E+18   3.72000042E+07   0.00000000E+00   2.94788980E+07   0.29632108      
  42               4.92484201E-02   6.37153937E-01   901.18800540     2.00338604E-05   5.12100038E+18   3.71796876E+07   9.50978349E+04   2.90743388E+07   0.29570395      
  43               5.82643093E-02   7.23696483E-01   935.65737883     2.19168595E-05   5.60228831E+18   3.71391405E+07   8.16097141E+04   2.86613306E+07   0.29504278      
  44               6.89307339E-02   8.20286829E-01   970.93042017     2.39401319E-05   6.11932430E+18   3.71242019E+07   8.19228183E+04   2.82396512E+07   0.29421043      
  45               8.15498567E-02   9.28111220E-01   1006.71044755    2.61241005E-05   6.67761363E+18   3.71541695E+07   4.87644947E+04   2.78084965E+07   0.29335778      
  46               9.64791575E-02   1.04847690E+00   1043.41758142    2.84735827E-05   7.27824309E+18   3.72000028E+07   0.00000000E+00   2.73671690E+07   0.29231855      
  47               1.14141560E-01   1.18275836E+00   1080.26695862    3.10241302E-05   7.93032114E+18   3.72000062E+07   0.00000000E+00   2.69153699E+07   0.29126168      
  48               1.35037411E-01   1.33253328E+00   1116.68215341    3.38123028E-05   8.64319537E+18   3.72000057E+07   0.00000000E+00   2.64529335E+07   0.29000115      
  49               1.59758657E-01   1.49955257E+00   1153.28980587    3.68417144E-05   9.41779170E+18   3.72000065E+07   0.00000000E+00   2.59797174E+07   0.28871113      
  50               1.89005613E-01   1.68603143E+00   1189.52706106    4.01604906E-05   1.02663763E+19   3.72000061E+07   0.00000000E+00   2.54949200E+07   0.28720176      
  51               2.23606798E-01   1.89459982E+00   1226.11602410    4.37810045E-05   1.11921047E+19   3.72000065E+07   0.00000000E+00   2.49975194E+07   0.28573157      
  52               2.64542408E-01   2.12858823E+00   1262.41996866    4.77729697E-05   1.22127549E+19   3.72000064E+07   0.00000000E+00   2.44858841E+07   0.2840764       
  53               3.12972084E-01   2.39253370E+00   1299.11179421    5.21795748E-05   1.33394333E+19   3.72000062E+07   0.00000000E+00   2.39572283E+07   0.28263058      
  54               3.70267763E-01   2.69331277E+00   1335.52483181    5.71365719E-05   1.46069877E+19   3.72000060E+07   0.00000000E+00   2.34063689E+07   0.28096713      
  55               4.38052539E-01   3.04100365E+00   1372.36861178    6.27780223E-05   1.60498879E+19   3.72000066E+07   0.00000000E+00   2.28258269E+07   0.27957026      
  56               5.18246648E-01   3.44754368E+00   1409.02732122    6.93159926E-05   1.77221416E+19   3.72000048E+07   0.00000000E+00   2.22095376E+07   0.27798881      
  57               6.13121862E-01   3.92464306E+00   1446.34213445    7.68707365E-05   1.96541816E+19   3.72000061E+07   0.00000000E+00   2.15559340E+07   0.27663039      
  58               7.25365844E-01   4.48081891E+00   1483.68814813    8.55533924E-05   2.18746244E+19   3.72000041E+07   0.00000000E+00   2.08701072E+07   0.27495544      
  59               8.58158289E-01   5.12002060E+00   1521.99119573    9.53038958E-05   2.43660655E+19   3.72000034E+07   0.00000000E+00   2.01622072E+07   0.27357392      
  60               1.01526100E+00   5.84386738E+00   1560.84262380    1.06068605E-04   2.71185881E+19   3.72000038E+07   0.00000000E+00   1.94422614E+07   0.27180052      
  61               1.20112443E+00   6.64015756E+00   1601.24318674    1.17527621E-04   3.00363343E+19   3.72000011E+07   0.00000000E+00   1.87290223E+07   0.27038911      
  62               1.42101382E+00   7.49679525E+00   1642.85359945    1.29331396E-04   3.30523715E+19   3.72000012E+07   0.00000000E+00   1.80341945E+07   0.2686118       
  63               1.68115827E+00   8.40104436E+00   1686.85225388    1.41161022E-04   3.60729842E+19   3.72021110E+07   0.00000000E+00   1.73649542E+07   0.26713682      
  64               1.98892727E+00   9.30977748E+00   1733.76714764    1.52245012E-04   3.88932621E+19   3.56343647E+07   1.56523640E+06   1.67450582E+07   0.26521437      
  65               2.35303941E+00   1.01618587E+01   1774.16693736    1.62482887E-04   4.14862814E+19   3.21535480E+07   5.04611363E+06   1.62032825E+07   0.26358269      
  66               2.78380943E+00   1.09220451E+01   1808.31613478    1.71505932E-04   4.37477225E+19   2.83556212E+07   8.84413258E+06   1.57478742E+07   0.26216108      
  67               3.29344035E+00   1.15788127E+01   1835.93338173    1.79081336E-04   4.56807212E+19   2.53996628E+07   1.18001871E+07   1.53731194E+07   0.26092051      
  68               3.89636920E+00   1.23086857E+01   1865.59967626    1.87337222E-04   4.77880232E+19   2.28173658E+07   1.43819235E+07   1.49746360E+07   0.25974361      
  69               4.60967600E+00   1.29334070E+01   1889.45968838    1.94405515E-04   4.95793871E+19   2.01868439E+07   1.70120477E+07   1.46472700E+07   0.25866397      
  70               5.45356761E+00   1.34415271E+01   1908.57504754    2.00017241E-04   5.10111612E+19   1.83448112E+07   1.88546434E+07   1.43895914E+07   0.25768681      
  71               6.45195012E+00   1.40170806E+01   1929.04631228    2.06365476E-04   5.26308949E+19   1.71289871E+07   2.00725985E+07   1.41062999E+07   0.2567493       
  72               7.63310614E+00   1.46663825E+01   1951.79294608    2.13404792E-04   5.44270884E+19   1.59828404E+07   2.12229288E+07   1.37968957E+07   0.2558857       
  73               9.03049593E+00   1.53958213E+01   1975.91878903    2.21270470E-04   5.64364398E+19   1.41360244E+07   2.30617729E+07   1.34612159E+07   0.25523928      
  74               1.06837053E+01   1.59110938E+01   1992.79954877    2.26943375E-04   5.78312075E+19   1.19378679E+07   2.52572215E+07   1.32312437E+07   0.25484996      
  75               1.26395671E+01   1.62586400E+01   2003.56975080    2.30649661E-04   5.87767527E+19   1.06595718E+07   2.65447322E+07   1.30793368E+07   0.25432167      
  76               1.49534878E+01   1.66559233E+01   2016.12199076    2.34811248E-04   5.98380931E+19   1.00825460E+07   2.71173663E+07   1.29086246E+07   0.25379993      
  77               1.76910170E+01   1.71110315E+01   2029.72388112    2.39606616E-04   6.10611627E+19   9.62239968E+06   2.75775148E+07   1.27167551E+07   0.25312943      
  78               2.09297047E+01   1.76304292E+01   2045.35086794    2.44988832E-04   6.24339634E+19   9.22062058E+06   2.79793192E+07   1.25023784E+07   0.25245983      
  79               2.47612977E+01   1.82208658E+01   2062.18445667    2.51120554E-04   6.39981382E+19   8.83228953E+06   2.83676024E+07   1.22643334E+07   0.2516222       
  80               2.92943389E+01   1.88921188E+01   2081.23530474    2.57980843E-04   6.57484204E+19   8.48660270E+06   2.87132134E+07   1.20006082E+07   0.25080452      
  81               3.46572422E+01   1.96526921E+01   2101.68411016    2.65746635E-04   6.77299024E+19   8.10880394E+06   2.90909952E+07   1.17101300E+07   0.24971552      
  82               4.10019301E+01   2.05116114E+01   2124.42329911    2.74380886E-04   6.99333872E+19   7.73744549E+06   2.94623368E+07   1.13920460E+07   0.24873962      
  83               4.85081376E+01   2.14784478E+01   2148.64315004    2.84061744E-04   7.24043134E+19   7.33339787E+06   2.98663685E+07   1.10457320E+07   0.24739605      
  84               5.73885036E+01   2.25634321E+01   2175.12821953    2.94760363E-04   7.51356653E+19   6.93599574E+06   3.02637549E+07   1.06707738E+07   0.24610092      
  85               6.78945948E+01   2.37774825E+01   2203.09452771    3.06656360E-04   7.81733239E+19   6.51841203E+06   3.06813236E+07   1.02669642E+07   0.24453777      
  86               8.03240320E+01   2.51323635E+01   2233.24523423    3.19728009E-04   8.15122265E+19   6.10829669E+06   3.10914247E+07   9.83426574E+06   0.24288703      
  87               9.50289215E+01   2.66407812E+01   2264.78749083    3.34165839E-04   8.52011267E+19   5.69343774E+06   3.15062713E+07   9.37278784E+06   0.24118826      
  88               1.12425830E+02   2.83165394E+01   2298.43338778    3.49945644E-04   8.92347670E+19   5.28267381E+06   3.19170241E+07   8.88274863E+06   0.23926301      
  89               1.33007583E+02   3.01741506E+01   2333.29173175    3.67320636E-04   9.36681302E+19   4.87360663E+06   3.23260812E+07   8.36460994E+06   0.23730959      
  90               1.57357229E+02   3.22302217E+01   2370.14277251    3.86189798E-04   9.84950999E+19   4.49298145E+06   3.27066970E+07   7.81870601E+06   0.23511389      
  91               1.86164557E+02   3.45035003E+01   2408.01714627    4.06853936E-04   1.03783765E+20   4.13239497E+06   3.30672762E+07   7.24520488E+06   0.23293563      
  92               2.20245630E+02   3.70141425E+01   2447.79619953    4.29276108E-04   1.09526265E+20   3.79153171E+06   3.34081329E+07   6.64444803E+06   0.23052298      
  93               2.60565913E+02   3.97845476E+01   2488.38742884    4.53772210E-04   1.15803655E+20   3.45829497E+06   3.37413621E+07   6.01674004E+06   0.22783524      
  94               3.08267614E+02   4.28401207E+01   2530.69143673    4.80323030E-04   1.22613229E+20   3.14934420E+06   3.40503040E+07   5.36224105E+06   0.22518218      
  95               3.64702046E+02   4.62102187E+01   2573.71481155    5.09289804E-04   1.30047929E+20   2.85817748E+06   3.43414627E+07   4.68085148E+06   0.22250056      
  96               4.31467909E+02   4.99284346E+01   2618.39480893    5.40685917E-04   1.38114304E+20   2.58983106E+06   3.46098007E+07   3.97228263E+06   0.21967604      
  97               5.10456573E+02   5.40332871E+01   2663.67849755    5.74961645E-04   1.46928290E+20   2.33924323E+06   3.48603796E+07   3.23606152E+06   0.21690743      
  98               6.03905660E+02   5.85689314E+01   2710.63629860    6.12149272E-04   1.56502720E+20   2.10999522E+06   3.50896199E+07   2.47153258E+06   0.21391459      
  99               7.14462436E+02   6.35858497E+01   2758.07198944    6.52826481E-04   1.66986253E+20   1.90098175E+06   3.52986259E+07   1.67791236E+06   0.21104316      
  100              8.45258798E+02   6.91410480E+01   2807.24981415    6.97026593E-04   1.78394202E+20   1.71576473E+06   3.54838352E+07   8.54381842E+05   0.20817921      
  101              1.00000000E+03   7.52996792E+01   2856.88627314    7.45457357E-04   1.90908829E+20   1.61604254E+06   3.55835425E+07   0.00000000E+00   0.20540682      
