# ATMO pressure-temperature profile
# Effective temperature = 1100.0K
# log(g) = 3.0cm/s^2
# M/H = 0.0
# Optical depth grid in band 17 (1.20-1.33microns)
# All parameters in cgs units
#
# Model Level      Optical Depth    Pressure         Temperature      Density          Number Density   Rad Flux         Conv Flux        Radial Extension Adiabatic Gradient
#                                   [Ba]             [K]              [g/cm^3]         [/cm^3]          [ergs/s/cm^2/sr] [ergs/s/cm^2/sr] [cm]             [K/Ba]          
  1                1.00000000E-04   1.00000000E-05   335.70674461     8.44072299E-10   2.15757436E+14   8.30127784E+07   0.00000000E+00   4.87308182E+08   0.29781059      
  2                1.17489755E-04   8.80402753E-05   395.28982204     6.31110100E-09   1.61321258E+15   8.30127784E+07   0.00000000E+00   4.53495750E+08   0.29743104      
  3                1.38038426E-04   1.72285788E-04   427.16507959     1.14286853E-08   2.92132282E+15   8.30127784E+07   0.00000000E+00   4.43576077E+08   0.29752551      
  4                1.62181010E-04   2.67200191E-04   444.55818602     1.70314177E-08   4.35345432E+15   8.30127784E+07   0.00000000E+00   4.36772950E+08   0.29758854      
  5                1.90546072E-04   3.75926938E-04   459.46523489     2.31842747E-08   5.92620445E+15   8.30127784E+07   0.00000000E+00   4.31301352E+08   0.29904782      
  6                2.23872114E-04   5.01150099E-04   470.58242451     3.01769209E-08   7.71361497E+15   8.30127784E+07   0.00000000E+00   4.26567110E+08   0.29900949      
  7                2.63026799E-04   6.45843764E-04   481.51110662     3.80070396E-08   9.71509387E+15   8.30127784E+07   0.00000000E+00   4.22294630E+08   0.29893144      
  8                3.09029543E-04   8.13360458E-04   490.11377436     4.70250333E-08   1.20202081E+16   8.30127784E+07   0.00000000E+00   4.18332200E+08   0.29890197      
  9                3.63078055E-04   1.00753119E-03   499.50597997     5.71558707E-08   1.46097790E+16   8.30127784E+07   0.00000000E+00   4.14586882E+08   0.29882576      
  10               4.26579519E-04   1.23274872E-03   507.15170281     6.88778833E-08   1.76060735E+16   8.30127784E+07   0.00000000E+00   4.10997399E+08   0.29879801      
  11               5.01187234E-04   1.49410536E-03   515.95472601     8.20564685E-08   2.09746860E+16   8.30127784E+07   0.00000000E+00   4.07520939E+08   0.29872044      
  12               5.88843655E-04   1.79754769E-03   523.25751388     9.73437834E-08   2.48823152E+16   8.30127784E+07   0.00000000E+00   4.04125737E+08   0.29869228      
  13               6.91830971E-04   2.14999104E-03   531.80302568     1.14558995E-07   2.92827383E+16   8.30127784E+07   0.00000000E+00   4.00788242E+08   0.29860871      
  14               8.12830516E-04   2.55945459E-03   538.89558551     1.34581769E-07   3.44008080E+16   8.30127784E+07   0.00000000E+00   3.97490569E+08   0.29857791      
  15               9.54992586E-04   3.03521592E-03   547.41249234     1.57115271E-07   4.01606494E+16   8.30127784E+07   0.00000000E+00   3.94218769E+08   0.29848784      
  16               1.12201845E-03   3.58798502E-03   554.64147327     1.83308193E-07   4.68558823E+16   8.30127784E+07   0.00000000E+00   3.90961575E+08   0.29845354      
  17               1.31825674E-03   4.23016718E-03   563.33846909     2.12780484E-07   5.43893617E+16   8.30127784E+07   0.00000000E+00   3.87709943E+08   0.29835418      
  18               1.54881662E-03   4.97607217E-03   570.80283647     2.47026930E-07   6.31431709E+16   8.30127785E+07   0.00000000E+00   3.84456483E+08   0.29831317      
  19               1.81970086E-03   5.84218192E-03   579.87037530     2.85488084E-07   7.29743094E+16   8.30127785E+07   0.00000000E+00   3.81195062E+08   0.29820054      
  20               2.13796209E-03   6.84735702E-03   587.95804392     3.30005024E-07   8.43533774E+16   8.30127785E+07   0.00000000E+00   3.77920242E+08   0.29815141      
  21               2.51188643E-03   8.01326386E-03   597.73523511     3.79878389E-07   9.71016088E+16   8.30127785E+07   0.00000000E+00   3.74627321E+08   0.29802208      
  22               2.95120923E-03   9.36468256E-03   606.56706703     4.37480120E-07   1.11825300E+17   8.30127785E+07   0.00000000E+00   3.71312284E+08   0.29795963      
  23               3.46736850E-03   1.09298932E-02   617.20065650     5.01803558E-07   1.28267130E+17   8.30127785E+07   0.00000000E+00   3.67971666E+08   0.29780672      
  24               4.07380278E-03   1.27411714E-02   627.00894178     5.75810950E-07   1.47184292E+17   8.30127786E+07   0.00000000E+00   3.64602066E+08   0.29772714      
  25               4.78630092E-03   1.48361930E-02   638.81955070     6.58095256E-07   1.68217090E+17   8.30127786E+07   0.00000000E+00   3.61198735E+08   0.29754531      
  26               5.62341325E-03   1.72580907E-02   649.77064089     7.52622628E-07   1.92379372E+17   8.30127786E+07   0.00000000E+00   3.57757433E+08   0.29743974      
  27               6.60693448E-03   2.00558118E-02   662.84500539     8.57379968E-07   2.19156369E+17   8.30127786E+07   0.00000000E+00   3.54274628E+08   0.29721719      
  28               7.76247117E-03   2.32843333E-02   675.23719577     9.77130870E-07   2.49765983E+17   8.30127787E+07   0.00000000E+00   3.50747342E+08   0.29707782      
  29               9.12010839E-03   2.70052546E-02   690.05069679     1.10895783E-06   2.83460870E+17   8.30127787E+07   0.00000000E+00   3.47172827E+08   0.29680327      
  30               1.07151931E-02   3.12871912E-02   704.38971726     1.25864206E-06   3.21720998E+17   8.30127788E+07   0.00000000E+00   3.43548464E+08   0.29661726      
  31               1.25892541E-02   3.62058290E-02   721.27551116     1.42241374E-06   3.63582648E+17   8.30127788E+07   0.00000000E+00   3.39872420E+08   0.29620526      
  32               1.47910839E-02   4.18430470E-02   737.91326032     1.60682602E-06   4.10718086E+17   8.30127789E+07   0.00000000E+00   3.36143631E+08   0.29598888      
  33               1.73780083E-02   4.82865155E-02   757.36908235     1.80662943E-06   4.61789586E+17   8.30127790E+07   0.00000000E+00   3.32361812E+08   0.29555796      
  34               2.04173794E-02   5.56345202E-02   776.85385865     2.02934386E-06   5.18717452E+17   8.30127791E+07   0.00000000E+00   3.28524235E+08   0.29521732      
  35               2.39883292E-02   6.40053332E-02   799.24490849     2.26927146E-06   5.80045583E+17   8.30127792E+07   0.00000000E+00   3.24623499E+08   0.29471102      
  36               2.81838293E-02   7.35238054E-02   821.88608373     2.53492915E-06   6.47951038E+17   8.30127794E+07   0.00000000E+00   3.20654864E+08   0.29434235      
  37               3.31131121E-02   8.43181050E-02   847.72046038     2.81848953E-06   7.20433687E+17   8.30127795E+07   0.00000000E+00   3.16616518E+08   0.29377254      
  38               3.89045145E-02   9.65134295E-02   874.10248953     3.12876292E-06   7.99744442E+17   8.30127797E+07   0.00000000E+00   3.12509760E+08   0.29326834      
  39               4.57088190E-02   1.10229603E-01   903.76658466     3.45616068E-06   8.83421169E+17   8.30127799E+07   0.00000000E+00   3.08338657E+08   0.29242654      
  40               5.37031796E-02   1.25583988E-01   933.71991532     3.81117695E-06   9.74189600E+17   8.30127801E+07   0.00000000E+00   3.04108017E+08   0.29168245      
  41               6.30957344E-02   1.42741337E-01   966.50579013     4.18477655E-06   1.06972252E+18   8.30127803E+07   0.00000000E+00   2.99811815E+08   0.29072873      
  42               7.41310241E-02   1.61890748E-01   999.52139876     4.58925183E-06   1.17315602E+18   8.30127796E+07   0.00000000E+00   2.95442146E+08   0.28991903      
  43               8.70963590E-02   1.83203496E-01   1035.68734025    5.01191865E-06   1.28124130E+18   8.29900331E+07   2.83797250E+04   2.90998220E+08   0.28874885      
  44               1.02329299E-01   2.06815291E-01   1072.76315354    5.46219276E-06   1.39638327E+18   8.27828068E+07   2.31272269E+05   2.86485445E+08   0.2877044       
  45               1.20226443E-01   2.32904995E-01   1109.74015058    5.94617728E-06   1.52013915E+18   8.24896975E+07   5.27248026E+05   2.81907539E+08   0.28646284      
  46               1.41253754E-01   2.61660048E-01   1147.54239818    6.46016014E-06   1.65156061E+18   8.21559494E+07   8.57709206E+05   2.77268012E+08   0.28542418      
  47               1.65958691E-01   2.93389170E-01   1185.33497476    7.01251298E-06   1.79278751E+18   8.17962434E+07   1.22277202E+06   2.72553902E+08   0.28399187      
  48               1.94984460E-01   3.28427931E-01   1224.05630148    7.60162876E-06   1.94341043E+18   8.14129088E+07   1.61380855E+06   2.67754815E+08   0.28267585      
  49               2.29086765E-01   3.67100277E-01   1262.87104632    8.23553433E-06   2.10548206E+18   8.09954626E+07   2.07883430E+06   2.62867150E+08   0.28101902      
  50               2.69153480E-01   4.09727814E-01   1302.55773612    8.91175388E-06   2.27837026E+18   8.05597439E+07   2.52844672E+06   2.57891350E+08   0.27961484      
  51               3.16227766E-01   4.56646861E-01   1342.35560787    9.63777229E-06   2.46398883E+18   8.01272239E+07   3.01783888E+06   2.52828682E+08   0.27818193      
  52               3.71535229E-01   5.08204150E-01   1382.99689348    1.04107590E-05   2.66160034E+18   7.97071168E+07   3.46127808E+06   2.47681597E+08   0.27701981      
  53               4.36515832E-01   5.64840071E-01   1423.80752900    1.12393869E-05   2.87342624E+18   7.92261212E+07   4.02720537E+06   2.42445827E+08   0.27534488      
  54               5.12861384E-01   6.26956599E-01   1465.32773424    1.21224140E-05   3.09904975E+18   7.85506115E+07   4.46176964E+06   2.37124187E+08   0.27383338      
  55               6.02559586E-01   6.94555493E-01   1506.74127400    1.30646767E-05   3.33882845E+18   7.74441501E+07   5.56823256E+06   2.31752288E+08   0.27199845      
  56               7.07945784E-01   7.67124081E-01   1548.00308109    1.40458344E-05   3.58938162E+18   7.56938282E+07   7.31855536E+06   2.26395212E+08   0.2704082       
  57               8.31763771E-01   8.43163559E-01   1587.85504124    1.50520421E-05   3.84615530E+18   7.31203154E+07   9.89216316E+06   2.21165589E+08   0.26846755      
  58               9.77237221E-01   9.18876257E-01   1624.87508710    1.60350288E-05   4.09602774E+18   6.97167223E+07   1.32962400E+07   2.16291994E+08   0.26663293      
  59               1.14815362E+00   9.88413243E-01   1656.60227371    1.69250383E-05   4.32161568E+18   6.58229381E+07   1.71896090E+07   2.12070887E+08   0.26498043      
  60               1.34896288E+00   1.06054668E+00   1687.81042833    1.78388698E-05   4.55126330E+18   6.14437756E+07   2.15690102E+07   2.07919310E+08   0.26357419      
  61               1.58489319E+00   1.12296813E+00   1713.28824925    1.86144627E-05   4.74747663E+18   5.72903878E+07   2.57261204E+07   2.04493638E+08   0.26229129      
  62               1.86208714E+00   1.17504196E+00   1733.82005486    1.92473522E-05   4.90879835E+18   5.40902554E+07   2.89243547E+07   2.01742522E+08   0.26105193      
  63               2.18776162E+00   1.23302514E+00   1755.62766772    1.99461901E-05   5.08704238E+18   5.10736740E+07   3.19380977E+07   1.98783238E+08   0.2599853       
  64               2.57039578E+00   1.29778251E+00   1779.19806391    2.07145048E-05   5.28327794E+18   4.77387091E+07   3.52781276E+07   1.95597411E+08   0.25904824      
  65               3.01995172E+00   1.34850628E+00   1796.82836290    2.13318260E-05   5.43590950E+18   4.46875655E+07   3.83446749E+07   1.93184082E+08   0.25834248      
  66               3.54813389E+00   1.38534868E+00   1809.47146564    2.17611678E-05   5.54540406E+18   4.23913457E+07   4.06322386E+07   1.91474095E+08   0.25773211      
  67               4.16869383E+00   1.42690965E+00   1823.19714070    2.22448830E-05   5.66876800E+18   4.03318469E+07   4.26801442E+07   1.89585105E+08   0.25703984      
  68               4.89778819E+00   1.47394075E+00   1838.53975832    2.27858566E-05   5.80674612E+18   3.83576523E+07   4.46542533E+07   1.87496110E+08   0.25622889      
  69               5.75439937E+00   1.52702172E+00   1855.15813048    2.33944255E-05   5.96197456E+18   3.63737107E+07   4.66381058E+07   1.85197051E+08   0.25533483      
  70               6.76082975E+00   1.58662827E+00   1873.45961628    2.40694740E-05   6.13418247E+18   3.43127841E+07   4.86989703E+07   1.82685137E+08   0.25432732      
  71               7.94328235E+00   1.65325230E+00   1893.02194503    2.48201698E-05   6.32571069E+18   3.21704167E+07   5.08412928E+07   1.79959328E+08   0.25321902      
  72               9.33254301E+00   1.72731776E+00   1914.20949043    2.56440537E-05   6.53594839E+18   2.99898887E+07   5.30217327E+07   1.77023569E+08   0.25196291      
  73               1.09647820E+01   1.80921623E+00   1936.52245405    2.65492101E-05   6.76696264E+18   2.79049235E+07   5.51065144E+07   1.73884818E+08   0.25056224      
  74               1.28824955E+01   1.89995524E+00   1960.45918627    2.75387572E-05   7.01958445E+18   2.60652271E+07   5.69460736E+07   1.70529015E+08   0.24896173      
  75               1.51356125E+01   2.00087542E+00   1985.69210552    2.86310678E-05   7.29850618E+18   2.43932539E+07   5.86179946E+07   1.66934936E+08   0.24721879      
  76               1.77827941E+01   2.11284933E+00   2012.62685116    2.98262956E-05   7.60380734E+18   2.27878367E+07   6.02233684E+07   1.63103170E+08   0.24529177      
  77               2.08929613E+01   2.23681534E+00   2040.74623564    3.11382091E-05   7.93902130E+18   2.12250153E+07   6.17861549E+07   1.59035396E+08   0.24320567      
  78               2.45470892E+01   2.37378626E+00   2070.45336916    3.25670896E-05   8.30428025E+18   1.97148987E+07   6.32962446E+07   1.54734163E+08   0.24090144      
  79               2.88403150E+01   2.52486040E+00   2101.18699742    3.41285154E-05   8.70359163E+18   1.82537156E+07   6.47574089E+07   1.50202653E+08   0.23846739      
  80               3.38844156E+01   2.69123183E+00   2133.37266165    3.58228523E-05   9.13713885E+18   1.68506346E+07   6.61604813E+07   1.45444470E+08   0.23584614      
  81               3.98107171E+01   2.87420165E+00   2166.40975220    3.76679959E-05   9.60953718E+18   1.54932978E+07   6.75178181E+07   1.40463494E+08   0.23304181      
  82               4.67735141E+01   3.07519080E+00   2200.73221482    3.96649365E-05   1.01211697E+19   1.41911623E+07   6.88199599E+07   1.35263718E+08   0.22994636      
  83               5.49540874E+01   3.29575463E+00   2235.68436198    4.18348851E-05   1.06775158E+19   1.29384030E+07   7.00727318E+07   1.29849155E+08   0.22664612      
  84               6.45654229E+01   3.53759835E+00   2271.73622101    4.41793737E-05   1.12791523E+19   1.17577119E+07   7.12534453E+07   1.24223697E+08   0.22314067      
  85               7.58577575E+01   3.80260502E+00   2308.21194417    4.67230950E-05   1.19324981E+19   1.06237400E+07   7.23874461E+07   1.18390810E+08   0.21956502      
  86               8.91250938E+01   4.09257392E+00   2345.61069692    4.94706037E-05   1.26376534E+19   9.55270705E+06   7.34585123E+07   1.12359284E+08   0.21584402      
  87               1.04712855E+02   4.40974516E+00   2383.21667950    5.24414201E-05   1.34021910E+19   8.57365864E+06   7.44375986E+07   1.06132184E+08   0.21206664      
  88               1.23026877E+02   4.75680590E+00   2421.64182319    5.56445941E-05   1.42275907E+19   7.69440059E+06   7.53168998E+07   9.97073788E+07   0.20821357      
  89               1.44543977E+02   5.13639347E+00   2460.13259667    5.91137814E-05   1.51225702E+19   6.87510683E+06   7.61362389E+07   9.30888795E+07   0.20441967      
  90               1.69824365E+02   5.55140379E+00   2499.34215333    6.28505693E-05   1.60880328E+19   6.12087271E+06   7.68905202E+07   8.62801877E+07   0.20053392      
  91               1.99526231E+02   6.00502173E+00   2538.44484832    6.68958713E-05   1.71345495E+19   5.43217480E+06   7.75792705E+07   7.92843475E+07   0.19671335      
  92               2.34422882E+02   6.50065113E+00   2578.17765523    7.12501111E-05   1.82629049E+19   4.82169458E+06   7.81898077E+07   7.21052657E+07   0.1929221       
  93               2.75422870E+02   7.04196348E+00   2617.67341173    7.59600981E-05   1.94851676E+19   4.27353705E+06   7.87380279E+07   6.47471470E+07   0.1892421       
  94               3.23593657E+02   7.63295530E+00   2657.73236037    8.10253135E-05   2.08021065E+19   3.78908442E+06   7.92225497E+07   5.72138849E+07   0.18550644      
  95               3.80189396E+02   8.27795716E+00   2697.39669921    8.65022322E-05   2.22281947E+19   3.35666548E+06   7.96550459E+07   4.95094337E+07   0.18195634      
  96               4.46683592E+02   8.98157974E+00   2737.59719670    9.23860293E-05   2.37634243E+19   2.97800399E+06   8.00337967E+07   4.16384673E+07   0.17858182      
  97               5.24807460E+02   9.74870470E+00   2777.34322417    9.87400478E-05   2.54239603E+19   2.63947072E+06   8.03724356E+07   3.36065105E+07   0.17543953      
  98               6.16595002E+02   1.05844868E+01   2817.62041068    1.05555018E-04   2.72090362E+19   2.34068545E+06   8.06713476E+07   2.54197452E+07   0.17236913      
  99               7.24435960E+02   1.14943733E+01   2857.33781509    1.12904757E-04   2.91373163E+19   2.07271426E+06   8.09394720E+07   1.70849106E+07   0.16953629      
  100              8.51138038E+02   1.24840929E+01   2897.59057584    1.20772172E-04   3.12065539E+19   1.83711789E+06   8.11752578E+07   8.60915843E+06   0.16685124      
  101              1.00000000E+03   1.35596656E+01   2937.21905546    1.29241560E-04   3.34378606E+19   1.71232727E+06   8.13001519E+07   0.00000000E+00   0.16435156      
