# ATMO pressure-temperature profile
# Effective temperature = 800.0K
# log(g) = 2.5cm/s^2
# M/H = 0.0
# Optical depth grid in band 17 (1.20-1.33microns)
# All parameters in cgs units
#
# Model Level      Optical Depth    Pressure         Temperature      Density          Number Density   Rad Flux         Conv Flux        Radial Extension Adiabatic Gradient
#                                   [Ba]             [K]              [g/cm^3]         [/cm^3]          [ergs/s/cm^2/sr] [ergs/s/cm^2/sr] [cm]             [K/Ba]          
  1                5.00000000E-04   1.00000000E-05   248.02411267     1.14231029E-09   2.92033003E+14   2.32237225E+07   0.00000000E+00   1.20225832E+09   0.30425013      
  2                5.78069831E-04   1.49059450E-04   296.02541458     1.42661974E-08   3.64717293E+15   2.32237225E+07   0.00000000E+00   1.09332661E+09   0.30188491      
  3                6.68329458E-04   2.95976627E-04   319.59506225     2.62382218E-08   6.70784773E+15   2.32237225E+07   0.00000000E+00   1.06931334E+09   0.30108181      
  4                7.72682194E-04   4.58891522E-04   332.71727888     3.90760954E-08   9.98988568E+15   2.32237225E+07   0.00000000E+00   1.05322401E+09   0.30065204      
  5                8.93328530E-04   6.41836682E-04   346.88141256     5.24226658E-08   1.34019917E+16   2.32237225E+07   0.00000000E+00   1.04044180E+09   0.30040278      
  6                1.03281254E-03   8.48329965E-04   356.14710410     6.74856849E-08   1.72528652E+16   2.32237225E+07   0.00000000E+00   1.02946335E+09   0.30021475      
  7                1.19407555E-03   1.08228066E-03   367.53192409     8.34296378E-08   2.13290087E+16   2.32237225E+07   0.00000000E+00   1.01960377E+09   0.30008617      
  8                1.38051810E-03   1.34795131E-03   374.90674774     1.01865233E-07   2.60421471E+16   2.32237225E+07   0.00000000E+00   1.01049058E+09   0.29997174      
  9                1.59607173E-03   1.65016180E-03   384.97435674     1.21442071E-07   3.10470661E+16   2.32237225E+07   0.00000000E+00   1.00189823E+09   0.29988448      
  10               1.84528182E-03   1.99427777E-03   391.55239543     1.44301169E-07   3.68910998E+16   2.32237225E+07   0.00000000E+00   9.93677979E+08   0.29979768      
  11               2.13340350E-03   2.38641860E-03   401.07467588     1.68575576E-07   4.30970183E+16   2.32237225E+07   0.00000000E+00   9.85727197E+08   0.29972713      
  12               2.46651240E-03   2.83343805E-03   407.42190338     1.97038146E-07   5.03726952E+16   2.32237225E+07   0.00000000E+00   9.77970878E+08   0.29965491      
  13               2.85163282E-03   3.34309291E-03   417.04677782     2.27114149E-07   5.80616691E+16   2.32237225E+07   0.00000000E+00   9.70352212E+08   0.29959632      
  14               3.29688580E-03   3.92413144E-03   423.63411085     2.62441684E-07   6.70931934E+16   2.32237225E+07   0.00000000E+00   9.62826174E+08   0.29954059      
  15               3.81166043E-03   4.58660420E-03   433.60785368     2.99691363E-07   7.66160863E+16   2.32237225E+07   0.00000000E+00   9.55356278E+08   0.29949149      
  16               4.40681180E-03   5.34169678E-03   440.83378516     3.43308260E-07   8.77667870E+16   2.32237225E+07   0.00000000E+00   9.47912027E+08   0.29944031      
  17               5.09488990E-03   6.20174823E-03   451.87889746     3.88842012E-07   9.94072159E+16   2.32237225E+07   0.00000000E+00   9.40468199E+08   0.29946624      
  18               5.89040429E-03   7.18056757E-03   460.02987122     4.42265181E-07   1.13057292E+17   2.32237225E+07   0.00000000E+00   9.33004063E+08   0.29941257      
  19               6.81013002E-03   8.29585781E-03   470.51129894     4.99575309E-07   1.27707700E+17   2.32237225E+07   0.00000000E+00   9.25500871E+08   0.29932839      
  20               7.87346142E-03   9.56655207E-03   478.71495860     5.66223627E-07   1.44745237E+17   2.32237225E+07   0.00000000E+00   9.17945661E+08   0.29921925      
  21               9.10282102E-03   1.10139897E-02   489.49419576     6.37538520E-07   1.62975740E+17   2.32237225E+07   0.00000000E+00   9.10327455E+08   0.29913872      
  22               1.05241324E-02   1.26618811E-02   498.27221758     7.20013615E-07   1.84059144E+17   2.32237225E+07   0.00000000E+00   9.02636062E+08   0.29908307      
  23               1.21673669E-02   1.45369664E-02   509.78359482     8.07973050E-07   2.06544564E+17   2.32237225E+07   0.00000000E+00   8.94861925E+08   0.29904303      
  24               1.40671754E-02   1.66694015E-02   519.35899643     9.09412987E-07   2.32476034E+17   2.32237225E+07   0.00000000E+00   8.86995148E+08   0.29898928      
  25               1.62636194E-02   1.90938088E-02   531.76328573     1.01737918E-06   2.60075870E+17   2.32237225E+07   0.00000000E+00   8.79024684E+08   0.29891526      
  26               1.88030155E-02   2.18483891E-02   542.48120883     1.14115127E-06   2.91716210E+17   2.32237225E+07   0.00000000E+00   8.70940385E+08   0.29881448      
  27               2.17389119E-02   2.49753907E-02   556.30891929     1.27205124E-06   3.25178712E+17   2.32237225E+07   0.00000000E+00   8.62733011E+08   0.29869322      
  28               2.51332183E-02   2.85213584E-02   568.67535486     1.42106524E-06   3.63271760E+17   2.32237225E+07   0.00000000E+00   8.54392831E+08   0.29854791      
  29               2.90575105E-02   3.25376561E-02   584.21951755     1.57804104E-06   4.03400137E+17   2.32237225E+07   0.00000000E+00   8.45911583E+08   0.2983917       
  30               3.35945403E-02   3.70794628E-02   598.49350342     1.75542377E-06   4.48745216E+17   2.32237226E+07   0.00000000E+00   8.37282224E+08   0.29821513      
  31               3.88399805E-02   4.22059013E-02   616.20316463     1.94069426E-06   4.96106702E+17   2.32237226E+07   0.00000000E+00   8.28499157E+08   0.29799798      
  32               4.49044419E-02   4.79790779E-02   633.06452582     2.14739383E-06   5.48946169E+17   2.32237226E+07   0.00000000E+00   8.19556215E+08   0.29771408      
  33               5.19158062E-02   5.44727374E-02   653.65834948     2.36121808E-06   6.03606944E+17   2.32237226E+07   0.00000000E+00   8.10436828E+08   0.29733979      
  34               6.00219227E-02   6.17655439E-02   673.69188078     2.59772201E-06   6.64065314E+17   2.32237226E+07   0.00000000E+00   8.01125100E+08   0.29693145      
  35               6.93937253E-02   6.99375639E-02   697.74856451     2.84000714E-06   7.26001283E+17   2.32237226E+07   0.00000000E+00   7.91610875E+08   0.29648492      
  36               8.02288381E-02   7.90561137E-02   723.13260238     3.09761978E-06   7.91850798E+17   2.31591326E+07   6.45850888E+04   7.81888941E+08   0.29601613      
  37               9.27557418E-02   8.91991436E-02   749.84922076     3.37052788E-06   8.61613668E+17   2.30117696E+07   2.11944277E+05   7.71962243E+08   0.29549994      
  38               1.07238592E-01   1.00458782E-01   776.18827282     3.66719564E-06   9.37446884E+17   2.28065238E+07   4.17187333E+05   7.61834592E+08   0.29493518      
  39               1.23982789E-01   1.12966935E-01   803.95891683     3.98135095E-06   1.01775520E+18   2.25615431E+07   6.62166890E+05   7.51482909E+08   0.29428013      
  40               1.43341420E-01   1.26861803E-01   831.36768507     4.32364754E-06   1.10525778E+18   2.22965233E+07   9.27187272E+05   7.40892467E+08   0.29356993      
  41               1.65722701E-01   1.42277079E-01   860.29610408     4.68596376E-06   1.19787865E+18   2.20244196E+07   1.19929326E+06   7.30062508E+08   0.29277561      
  42               1.91598587E-01   1.59340950E-01   888.75150021     5.07994075E-06   1.29859251E+18   2.17630170E+07   1.46069902E+06   7.19002664E+08   0.29196686      
  43               2.21514726E-01   1.78175050E-01   918.71361422     5.49515768E-06   1.40472910E+18   2.15265827E+07   1.69713632E+06   7.07730012E+08   0.29109607      
  44               2.56101960E-01   1.98913637E-01   948.04128938     5.94499582E-06   1.51971848E+18   2.13381691E+07   1.88555232E+06   6.96256041E+08   0.29023166      
  45               2.96089634E-01   2.21767194E-01   978.97189975     6.41846064E-06   1.64078968E+18   2.12078064E+07   2.01591726E+06   6.84556664E+08   0.28930903      
  46               3.42320969E-01   2.46951675E-01   1009.27693420    6.93255810E-06   1.77226013E+18   2.11354892E+07   2.08823612E+06   6.72617582E+08   0.28839869      
  47               3.95770849E-01   2.74672210E-01   1041.28717954    7.47348062E-06   1.91060117E+18   2.11082672E+07   2.11545964E+06   6.60439088E+08   0.28742292      
  48               4.57566375E-01   3.05126730E-01   1072.55156127    8.05988698E-06   2.06057257E+18   2.11210481E+07   2.10268025E+06   6.48030396E+08   0.28647159      
  49               5.29010634E-01   3.38508010E-01   1105.53259187    8.67467768E-06   2.21780439E+18   2.11640548E+07   2.05967573E+06   6.35405959E+08   0.28545245      
  50               6.11610175E-01   3.75010270E-01   1137.59164048    9.33908258E-06   2.38771567E+18   2.12421053E+07   1.98162757E+06   6.22581439E+08   0.28444344      
  51               7.07106781E-01   4.14932010E-01   1171.44156589    1.00345207E-05   2.56555985E+18   2.13567983E+07   1.86693687E+06   6.09540491E+08   0.28333748      
  52               8.17514195E-01   4.58637550E-01   1204.36837169    1.07881111E-05   2.75826575E+18   2.15133893E+07   1.71034782E+06   5.96256898E+08   0.28226268      
  53               9.45160584E-01   5.06492279E-01   1239.26715076    1.15781397E-05   2.96028641E+18   2.16965362E+07   1.52720264E+06   5.82716456E+08   0.28108063      
  54               1.09273764E+00   5.58864383E-01   1273.17382654    1.24350161E-05   3.17939561E+18   2.19009989E+07   1.32274126E+06   5.68913963E+08   0.27995772      
  55               1.26335732E+00   6.16134149E-01   1309.15510062    1.33324113E-05   3.40886669E+18   2.21118183E+07   1.11192340E+06   5.54848696E+08   0.27883666      
  56               1.46061751E+00   6.78706617E-01   1344.05055804    1.43049996E-05   3.65756723E+18   2.23289625E+07   8.94781419E+05   5.40520709E+08   0.27783529      
  57               1.68867783E+00   7.47012822E-01   1381.12661455    1.53219179E-05   3.91760280E+18   2.25316071E+07   6.92174819E+05   5.25930548E+08   0.2767819       
  58               1.95234742E+00   8.21604064E-01   1417.04501369    1.64246259E-05   4.19956949E+18   2.27001059E+07   5.23655572E+05   5.11061459E+08   0.27559968      
  59               2.25718628E+00   9.03019000E-01   1455.24036322    1.75794825E-05   4.49456842E+18   2.27517866E+07   4.72023114E+05   4.95909752E+08   0.27433415      
  60               2.60962258E+00   9.91423890E-01   1491.99988722    1.88249573E-05   4.81300629E+18   2.25911869E+07   6.32638824E+05   4.80542109E+08   0.27302953      
  61               3.01708817E+00   1.08635609E+00   1530.56809607    2.01144101E-05   5.14097373E+18   2.20995000E+07   1.12431390E+06   4.65113738E+08   0.27169755      
  62               3.48817529E+00   1.18681619E+00   1566.73459518    2.14680282E-05   5.48673352E+18   2.12210379E+07   2.00280431E+06   4.49825946E+08   0.27036546      
  63               4.03281780E+00   1.29144951E+00   1603.83320816    2.28229813E-05   5.83235659E+18   1.98919871E+07   3.33194126E+06   4.34877654E+08   0.26907792      
  64               4.66250061E+00   1.39690083E+00   1636.97551400    2.41912188E-05   6.18086462E+18   1.81320849E+07   5.09197770E+06   4.20685731E+08   0.26788207      
  65               5.39050188E+00   1.49569836E+00   1668.17679754    2.54293732E-05   6.49423174E+18   1.60716075E+07   7.15237622E+06   4.08088780E+08   0.26664824      
  66               6.23217301E+00   1.58073313E+00   1691.84382378    2.65101176E-05   6.76743548E+18   1.42148946E+07   9.00898979E+06   3.97731885E+08   0.26549692      
  67               7.20526240E+00   1.66884185E+00   1717.40613767    2.75897724E-05   7.03830383E+18   1.26584378E+07   1.05683025E+07   3.87429166E+08   0.2645492       
  68               8.33028963E+00   1.76076056E+00   1740.81731992    2.87186547E-05   7.32610168E+18   1.12908261E+07   1.19469510E+07   3.77102789E+08   0.26346154      
  69               9.63097823E+00   1.84227399E+00   1762.73379879    2.96843325E-05   7.56995553E+18   1.01466921E+07   1.30835564E+07   3.68273952E+08   0.26255076      
  70               1.11347559E+01   1.90923682E+00   1778.21855140    3.04951800E-05   7.77679238E+18   9.40766988E+06   1.38098312E+07   3.61235865E+08   0.26152224      
  71               1.28733329E+01   1.98345060E+00   1797.10614879    3.13471272E-05   7.99417219E+18   8.93614298E+06   1.42822629E+07   3.53645368E+08   0.26091089      
  72               1.48833708E+01   2.06548282E+00   1815.09382580    3.23195199E-05   8.24229866E+18   8.45509115E+06   1.47799423E+07   3.45495450E+08   0.25982325      
  73               1.72072553E+01   2.15628784E+00   1836.54809918    3.33446866E-05   8.50413737E+18   7.77046912E+06   1.55211734E+07   3.36748348E+08   0.25909834      
  74               1.98939903E+01   2.22831514E+00   1851.13629582    3.42153314E-05   8.71894733E+18   7.01599221E+06   1.62488450E+07   3.30004330E+08   0.25773286      
  75               2.30002312E+01   2.28285193E+00   1863.74785613    3.48150369E-05   8.87189566E+18   6.50164137E+06   1.67154965E+07   3.25007485E+08   0.25711826      
  76               2.65914795E+01   2.34392222E+00   1875.36968327    3.55243840E-05   9.05278373E+18   6.19210283E+06   1.70250253E+07   3.19516082E+08   0.25629555      
  77               3.07434641E+01   2.41209434E+00   1890.24189334    3.62692739E-05   9.24278276E+18   5.96245483E+06   1.72547111E+07   3.13510235E+08   0.25580867      
  78               3.55437382E+01   2.48795026E+00   1904.19977041    3.71349354E-05   9.46357056E+18   5.68807617E+06   1.75292886E+07   3.06973984E+08   0.25476422      
  79               4.10935254E+01   2.57219012E+00   1921.44577900    3.80466984E-05   9.69618230E+18   5.45430025E+06   1.77633341E+07   2.99886893E+08   0.25418934      
  80               4.75098546E+01   2.66527781E+00   1937.82070987    3.90894273E-05   9.96218794E+18   5.13509588E+06   1.80825426E+07   2.92253734E+08   0.25283517      
  81               5.49280272E+01   2.76770132E+00   1957.37044839    4.01847350E-05   1.02416996E+19   4.85014033E+06   1.83675269E+07   2.84081522E+08   0.25215824      
  82               6.35044707E+01   2.87976095E+00   1976.01529275    4.14157175E-05   1.05558200E+19   4.52150807E+06   1.86964714E+07   2.75395193E+08   0.25036022      
  83               7.34200373E+01   3.00252847E+00   1997.69158138    4.27106483E-05   1.08864062E+19   4.30041387E+06   1.89179454E+07   2.66164524E+08   0.24959474      
  84               8.48838171E+01   3.13759104E+00   2018.76559415    4.41636474E-05   1.12573529E+19   4.05904638E+06   1.91597420E+07   2.56330421E+08   0.24745826      
  85               9.81375475E+01   3.28589179E+00   2042.77787991    4.57043026E-05   1.16508591E+19   3.86179454E+06   1.93574478E+07   2.45892048E+08   0.24636376      
  86               1.13460711E+02   3.44841615E+00   2066.29960971    4.74154078E-05   1.20879378E+19   3.62885953E+06   1.95908739E+07   2.34851754E+08   0.24415206      
  87               1.31176428E+02   3.62625373E+00   2092.53534189    4.92309672E-05   1.25519508E+19   3.43667295E+06   1.97835601E+07   2.23211961E+08   0.24301363      
  88               1.51658271E+02   3.82054847E+00   2118.40803040    5.12301094E-05   1.30629703E+19   3.21325459E+06   2.00074974E+07   2.10977639E+08   0.24038876      
  89               1.75338142E+02   4.03257867E+00   2146.65076535    5.33551926E-05   1.36065272E+19   3.02885122E+06   2.01924048E+07   1.98152928E+08   0.23919852      
  90               2.02715380E+02   4.26368144E+00   2174.75492341    5.56762665E-05   1.42003898E+19   2.81582669E+06   2.04059364E+07   1.84744351E+08   0.23604395      
  91               2.34367291E+02   4.51537695E+00   2204.72546450    5.81518822E-05   1.48342411E+19   2.64123247E+06   2.05810048E+07   1.70756221E+08   0.23487912      
  92               2.70961321E+02   4.78924257E+00   2234.95214272    6.08335068E-05   1.55211696E+19   2.43822002E+06   2.07844764E+07   1.56195414E+08   0.23097581      
  93               3.13269130E+02   5.08711019E+00   2266.28480374    6.37101061E-05   1.62585757E+19   2.25621753E+06   2.09668967E+07   1.41065057E+08   0.22801042      
  94               3.62182865E+02   5.41093914E+00   2298.02522977    6.68135531E-05   1.70546848E+19   2.06122217E+06   2.11622725E+07   1.25369353E+08   0.22332029      
  95               4.18733975E+02   5.76268025E+00   2330.28319104    7.01599396E-05   1.79119002E+19   1.88695539E+06   2.13368843E+07   1.09122820E+08   0.22016193      
  96               4.84114957E+02   6.14468878E+00   2363.27562574    7.37440105E-05   1.88326465E+19   1.73056872E+06   2.14935650E+07   9.23283214E+07   0.21734373      
  97               5.59704502E+02   6.55979180E+00   2396.83583031    7.75970310E-05   1.98233755E+19   1.58424134E+06   2.16401275E+07   7.49754197E+07   0.21415816      
  98               6.47096573E+02   7.01081180E+00   2430.96931432    8.17366822E-05   2.08888568E+19   1.44303872E+06   2.17815205E+07   5.70665946E+07   0.21042535      
  99               7.48134013E+02   7.50089830E+00   2465.41769749    8.61923741E-05   2.20368039E+19   1.31411965E+06   2.19105877E+07   3.86023169E+07   0.20732153      
  100              8.64947405E+02   8.03351940E+00   2500.57863931    9.09721229E-05   2.32697206E+19   1.19003628E+06   2.20347724E+07   1.95813521E+07   0.20336359      
  101              1.00000000E+03   8.61257988E+00   2535.69444787    9.61302069E-05   2.46015337E+19   1.12420373E+06   2.21006741E+07   0.00000000E+00   0.20035293      
