# ATMO pressure-temperature profile
# Effective temperature = 1700.0K
# log(g) = 4.0cm/s^2
# M/H = 0.0
# Optical depth grid in band 17 (1.20-1.33microns)
# All parameters in cgs units
#
# Model Level      Optical Depth    Pressure         Temperature      Density          Number Density   Rad Flux         Conv Flux        Radial Extension Adiabatic Gradient
#                                   [Ba]             [K]              [g/cm^3]         [/cm^3]          [ergs/s/cm^2/sr] [ergs/s/cm^2/sr] [cm]             [K/Ba]          
  1                1.00000000E-06   1.00000000E-05   428.80082117     6.61046570E-10   1.68915783E+14   4.73555539E+08   0.00000000E+00   7.12648781E+07   0.29800116      
  2                1.23026877E-06   1.77268143E-05   477.04898956     1.05330771E-09   2.69149486E+14   4.73555539E+08   0.00000000E+00   7.03388866E+07   0.29798161      
  3                1.51356125E-06   2.66907776E-05   505.45206033     1.49681703E-09   3.82478559E+14   4.73555539E+08   0.00000000E+00   6.96249854E+07   0.29787373      
  4                1.86208714E-06   3.73653698E-05   520.35742911     2.03542410E-09   5.20107798E+14   4.73555539E+08   0.00000000E+00   6.90134248E+07   0.29778207      
  5                2.29086765E-06   5.01879996E-05   538.66125387     2.64101814E-09   6.74854251E+14   4.73555539E+08   0.00000000E+00   6.84603753E+07   0.29761749      
  6                2.81838293E-06   6.56432649E-05   549.46363491     3.38640079E-09   8.65320631E+14   4.73555539E+08   0.00000000E+00   6.79435764E+07   0.29751287      
  7                3.46736850E-06   8.43103645E-05   565.29469899     4.22759067E-09   1.08026895E+15   4.73555539E+08   0.00000000E+00   6.74502195E+07   0.29730541      
  8                4.26579519E-06   1.06876022E-04   574.81472607     5.27034584E-09   1.34672287E+15   4.73555539E+08   0.00000000E+00   6.69721600E+07   0.29718682      
  9                5.24807460E-06   1.34175304E-04   589.60300472     6.45058583E-09   1.64830942E+15   4.73555539E+08   0.00000000E+00   6.65039592E+07   0.29723116      
  10               6.45654229E-06   1.67209331E-04   598.48561391     7.91941061E-09   2.02363711E+15   4.73555539E+08   0.00000000E+00   6.60417746E+07   0.29713676      
  11               7.94328235E-06   2.07194368E-04   612.74194954     9.58485899E-09   2.44921083E+15   4.73555539E+08   0.00000000E+00   6.55828320E+07   0.29693172      
  12               9.77237221E-06   2.55588907E-04   621.36929770     1.16594314E-08   2.97932616E+15   4.73555539E+08   0.00000000E+00   6.51250436E+07   0.29683091      
  13               1.20226443E-05   3.14181266E-04   635.51139874     1.40133563E-08   3.58082239E+15   4.73555539E+08   0.00000000E+00   6.46666573E+07   0.29660645      
  14               1.47910839E-05   3.85142596E-04   644.15970686     1.69477983E-08   4.33065750E+15   4.73555539E+08   0.00000000E+00   6.42061950E+07   0.29649746      
  15               1.81970086E-05   4.71103357E-04   658.43884932     2.02806827E-08   5.18234822E+15   4.73555539E+08   0.00000000E+00   6.37425321E+07   0.2962544       
  16               2.23872114E-05   5.75233176E-04   667.18843556     2.44387251E-08   6.24483913E+15   4.73555539E+08   0.00000000E+00   6.32748025E+07   0.29613654      
  17               2.75422870E-05   7.01372541E-04   681.58634507     2.91679719E-08   7.45338778E+15   4.73555540E+08   0.00000000E+00   6.28023499E+07   0.2958711       
  18               3.38844156E-05   8.54149705E-04   690.35534893     3.50702254E-08   8.96163271E+15   4.73555540E+08   0.00000000E+00   6.23246710E+07   0.29574364      
  19               4.16869383E-05   1.03916087E-03   704.85454503     4.17882951E-08   1.06784722E+16   4.73555540E+08   0.00000000E+00   6.18413882E+07   0.29545594      
  20               5.12861384E-05   1.26313600E-03   713.66041246     5.01682357E-08   1.28198914E+16   4.73555540E+08   0.00000000E+00   6.13522202E+07   0.29531871      
  21               6.30957344E-05   1.53418753E-03   728.34635622     5.97041197E-08   1.52569012E+16   4.73555540E+08   0.00000000E+00   6.08569578E+07   0.29500584      
  22               7.76247117E-05   1.86205760E-03   737.26527912     7.15866832E-08   1.82934311E+16   4.73555540E+08   0.00000000E+00   6.03554433E+07   0.29485664      
  23               9.54992586E-05   2.25846954E-03   752.19482915     8.51020904E-08   2.17475198E+16   4.73555540E+08   0.00000000E+00   5.98475640E+07   0.29451748      
  24               1.17489755E-04   2.73754458E-03   761.18741233     1.01935473E-07   2.60492631E+16   4.73555540E+08   0.00000000E+00   5.93331997E+07   0.29435775      
  25               1.44543977E-04   3.31664471E-03   776.37726044     1.21080963E-07   3.09422566E+16   4.73555540E+08   0.00000000E+00   5.88119413E+07   0.29399136      
  26               1.77827941E-04   4.01674638E-03   785.56834032     1.44923839E-07   3.70353351E+16   4.73555540E+08   0.00000000E+00   5.82834312E+07   0.29381712      
  27               2.18776162E-04   4.86306612E-03   801.20518770     1.72032693E-07   4.39635001E+16   4.73555540E+08   0.00000000E+00   5.77474381E+07   0.29341881      
  28               2.69153480E-04   5.88582352E-03   810.80765777     2.05747032E-07   5.25793525E+16   4.73555540E+08   0.00000000E+00   5.72038119E+07   0.29322705      
  29               3.31131121E-04   7.12110204E-03   827.21725942     2.43988511E-07   6.23524412E+16   4.73555540E+08   0.00000000E+00   5.66524792E+07   0.29279069      
  30               4.07380278E-04   8.61190067E-03   837.57675927     2.91417315E-07   7.44732374E+16   4.73555540E+08   0.00000000E+00   5.60933958E+07   0.2925739       
  31               5.01187234E-04   1.04091674E-02   854.98666796     3.45067150E-07   8.81825164E+16   4.73555540E+08   0.00000000E+00   5.55266294E+07   0.2924123       
  32               6.16595002E-04   1.25732265E-02   866.34633699     4.11340488E-07   1.05118955E+17   4.73555540E+08   0.00000000E+00   5.49522265E+07   0.29221135      
  33               7.58577575E-04   1.51754754E-02   885.18724285     4.85900682E-07   1.24174665E+17   4.73555540E+08   0.00000000E+00   5.43701576E+07   0.29168454      
  34               9.33254301E-04   1.82988361E-02   898.02628981     5.77528733E-07   1.47591130E+17   4.73555539E+08   0.00000000E+00   5.37805520E+07   0.29132685      
  35               1.14815362E-03   2.20397574E-02   918.66347612     6.79960620E-07   1.73770559E+17   4.73555539E+08   0.00000000E+00   5.31835855E+07   0.29063934      
  36               1.41253754E-03   2.65103423E-02   933.39852115     8.04970435E-07   2.05718840E+17   4.73555538E+08   0.00000000E+00   5.25793134E+07   0.29022176      
  37               1.73780083E-03   3.18476605E-02   956.32813585     9.43836547E-07   2.41210629E+17   4.73555537E+08   0.00000000E+00   5.19669844E+07   0.28941774      
  38               2.13796209E-03   3.82116326E-02   973.24043996     1.11275523E-06   2.84381464E+17   4.73555536E+08   0.00000000E+00   5.13460009E+07   0.28892652      
  39               2.63026799E-03   4.57868095E-02   998.69173772     1.29935627E-06   3.32073917E+17   4.73555535E+08   0.00000000E+00   5.07160177E+07   0.28811364      
  40               3.23593657E-03   5.47805189E-02   1018.47911123    1.52437309E-06   3.89582872E+17   4.73555533E+08   0.00000000E+00   5.00769761E+07   0.28764739      
  41               3.98107171E-03   6.54256171E-02   1047.42594963    1.77026271E-06   4.52428900E+17   4.73555531E+08   0.00000000E+00   4.94289608E+07   0.28679489      
  42               4.89778819E-03   7.79743150E-02   1070.95124124    2.06344639E-06   5.27360636E+17   4.73555529E+08   0.00000000E+00   4.87723875E+07   0.28619594      
  43               6.02559586E-03   9.26983507E-02   1104.07992241    2.37946780E-06   6.08131269E+17   4.73555526E+08   0.00000000E+00   4.81078945E+07   0.28516599      
  44               7.41310241E-03   1.09877048E-01   1132.13671431    2.75052075E-06   7.02965398E+17   4.73555524E+08   0.00000000E+00   4.74363993E+07   0.28439303      
  45               9.12010839E-03   1.29858491E-01   1170.04623816    3.14537324E-06   8.03883597E+17   4.73555522E+08   0.00000000E+00   4.67570652E+07   0.28311396      
  46               1.12201845E-02   1.53045177E-01   1203.03205330    3.60534027E-06   9.21442605E+17   4.73555520E+08   0.00000000E+00   4.60685247E+07   0.28202349      
  47               1.38038426E-02   1.79859753E-01   1246.25429025    4.09006246E-06   1.04532940E+18   4.73555518E+08   0.00000000E+00   4.53702394E+07   0.28021417      
  48               1.69824365E-02   2.10709438E-01   1285.06742314    4.64686462E-06   1.18763753E+18   4.73555517E+08   0.00000000E+00   4.46626100E+07   0.27885938      
  49               2.08929613E-02   2.46003195E-01   1334.39952799    5.22464405E-06   1.33530571E+18   4.73555517E+08   0.00000000E+00   4.39463184E+07   0.27742416      
  50               2.57039578E-02   2.86105504E-01   1379.38245632    5.87821904E-06   1.50233697E+18   4.73555517E+08   0.00000000E+00   4.32226842E+07   0.27600346      
  51               3.16227766E-02   3.31455352E-01   1435.12103268    6.54564171E-06   1.67287059E+18   4.73555516E+08   0.00000000E+00   4.24915767E+07   0.27369996      
  52               3.89045145E-02   3.82234131E-01   1491.99145350    7.26321231E-06   1.85561967E+18   4.72256648E+08   1.29538508E+06   4.17550606E+07   0.27128105      
  53               4.78630092E-02   4.38441384E-01   1548.27223717    8.02883441E-06   2.05111520E+18   4.69668162E+08   3.88068645E+06   4.10190141E+07   0.26904463      
  54               5.88843655E-02   4.97482067E-01   1601.62603613    8.80914876E-06   2.24979087E+18   4.65864388E+08   7.68603970E+06   4.03169501E+07   0.26718699      
  55               7.24435960E-02   5.56144682E-01   1649.85387792    9.56527067E-06   2.44156419E+18   4.61046296E+08   1.25008269E+07   3.96778486E+07   0.26552224      
  56               8.91250938E-02   6.12373524E-01   1692.48993600    1.02743320E-05   2.62069301E+18   4.55548647E+08   1.79830376E+07   3.91106227E+07   0.26395726      
  57               1.09647820E-01   6.64189132E-01   1729.02868298    1.09078838E-05   2.78237336E+18   4.49768877E+08   2.38707813E+07   3.86211665E+07   0.26241912      
  58               1.34896288E-01   7.06489923E-01   1757.21030143    1.14277541E-05   2.91211198E+18   4.44471008E+08   2.99138473E+07   3.82422250E+07   0.26120672      
  59               1.65958691E-01   7.36948943E-01   1776.63366284    1.17899153E-05   3.00445258E+18   4.40349153E+08   3.41075719E+07   3.79798150E+07   0.26020054      
  60               2.04173794E-01   7.72145957E-01   1798.32751098    1.22036855E-05   3.10997182E+18   4.35632518E+08   3.80062129E+07   3.76863845E+07   0.25906669      
  61               2.51188643E-01   8.12926907E-01   1822.38959186    1.26781397E-05   3.23099371E+18   4.30031205E+08   4.36066353E+07   3.73585275E+07   0.257749        
  62               3.09029543E-01   8.59845988E-01   1848.90722216    1.32169341E-05   3.36845996E+18   4.23295989E+08   5.03454860E+07   3.69960703E+07   0.25624134      
  63               3.80189396E-01   9.13356094E-01   1877.62406547    1.38239140E-05   3.52336250E+18   4.15217306E+08   5.84361165E+07   3.66001976E+07   0.25445569      
  64               4.67735141E-01   9.73697277E-01   1908.36581009    1.44987193E-05   3.69562731E+18   4.05870226E+08   6.77689065E+07   3.61739771E+07   0.25247426      
  65               5.75439937E-01   1.04180654E+00   1941.07529223    1.52500297E-05   3.88750122E+18   3.95653557E+08   7.79208448E+07   3.57159334E+07   0.25025591      
  66               7.07945784E-01   1.11941836E+00   1976.17498786    1.60931473E-05   4.10291828E+18   3.84424943E+08   8.90978340E+07   3.52205137E+07   0.24773896      
  67               8.70963590E-01   1.20758276E+00   2013.42997955    1.70368332E-05   4.34416399E+18   3.71728434E+08   1.01773498E+08   3.46880624E+07   0.24478266      
  68               1.07151931E+00   1.30745198E+00   2052.76435820    1.80889401E-05   4.61330840E+18   3.57327998E+08   1.16150717E+08   3.41191668E+07   0.24150368      
  69               1.31825674E+00   1.42031298E+00   2093.93044988    1.92595648E-05   4.91300993E+18   3.41089117E+08   1.32364484E+08   3.35144994E+07   0.23787613      
  70               1.62181010E+00   1.54761025E+00   2136.82128439    2.05585509E-05   5.24589069E+18   3.22964319E+08   1.50463739E+08   3.28747608E+07   0.23394498      
  71               1.99526231E+00   1.69096923E+00   2181.18420107    2.19983083E-05   5.61525135E+18   3.02986491E+08   1.70415462E+08   3.22006403E+07   0.22974565      
  72               2.45470892E+00   1.85222820E+00   2226.91968594    2.35912193E-05   6.02442742E+18   2.81254429E+08   1.92120270E+08   3.14927625E+07   0.22525634      
  73               3.01995172E+00   2.03346049E+00   2273.75779984    2.53529929E-05   6.47764847E+18   2.57829606E+08   2.15525699E+08   3.07517071E+07   0.22034662      
  74               3.71535229E+00   2.23675471E+00   2321.48088749    2.73005927E-05   6.97877326E+18   2.32994100E+08   2.40341477E+08   2.99789510E+07   0.21513246      
  75               4.57088190E+00   2.46470354E+00   2369.86117882    2.94479199E-05   7.53299402E+18   2.07584979E+08   2.65716280E+08   2.91749985E+07   0.20990863      
  76               5.62341325E+00   2.72044804E+00   2418.91616386    3.18184040E-05   8.14601973E+18   1.82294748E+08   2.90976968E+08   2.83394978E+07   0.20460905      
  77               6.91830971E+00   3.00720227E+00   2468.36500533    3.44356152E-05   8.82427633E+18   1.57617505E+08   3.15634992E+08   2.74731856E+07   0.19927961      
  78               8.51138038E+00   3.32855054E+00   2518.19332619    3.73218277E-05   9.57396701E+18   1.34336938E+08   3.38898071E+08   2.65767915E+07   0.19412354      
  79               1.04712855E+01   3.68850392E+00   2568.22953509    4.05042806E-05   1.04026085E+19   1.13374506E+08   3.59845917E+08   2.56509785E+07   0.18899399      
  80               1.28824955E+01   4.09154197E+00   2618.40405614    4.40115734E-05   1.13181693E+19   9.53427222E+07   3.77866187E+08   2.46963782E+07   0.18401704      
  81               1.58489319E+01   4.54256688E+00   2668.61332178    4.78750190E-05   1.23293880E+19   8.02960129E+07   3.92903793E+08   2.37137880E+07   0.17937746      
  82               1.94984460E+01   5.04687288E+00   2718.88658838    5.21248596E-05   1.34448857E+19   6.78069976E+07   4.05386395E+08   2.27042389E+07   0.17481111      
  83               2.39883292E+01   5.61018536E+00   2768.96789030    5.67991862E-05   1.46752372E+19   5.74446990E+07   4.15745045E+08   2.16689387E+07   0.17053111      
  84               2.95120923E+01   6.23865014E+00   2819.01518643    6.19287082E-05   1.60294660E+19   4.88139958E+07   4.24374129E+08   2.06092592E+07   0.16664473      
  85               3.63078055E+01   6.93883288E+00   2868.83857009    6.75534825E-05   1.75188727E+19   4.15573360E+07   4.31630230E+08   1.95266986E+07   0.16311238      
  86               4.46683592E+01   7.71780494E+00   2918.59890154    7.37065720E-05   1.91533711E+19   3.54407939E+07   4.37748738E+08   1.84227325E+07   0.15980334      
  87               5.49540874E+01   8.58326652E+00   2968.04860890    8.04354925E-05   2.09463053E+19   3.02781792E+07   4.42916612E+08   1.72986931E+07   0.15678869      
  88               6.76082975E+01   9.54349833E+00   3017.42565964    8.77753631E-05   2.29085110E+19   2.59065785E+07   4.47298271E+08   1.61558762E+07   0.15405084      
  89               8.31763771E+01   1.06071259E+01   3066.47163728    9.57773437E-05   2.50544350E+19   2.21444966E+07   4.51078444E+08   1.49958109E+07   0.15150051      
  90               1.02329299E+02   1.17830096E+01   3115.36994063    1.04476172E-04   2.73950721E+19   1.89125435E+07   4.54338789E+08   1.38202781E+07   0.14917136      
  91               1.25892541E+02   1.30809233E+01   3163.89954773    1.13927364E-04   2.99461884E+19   1.61358302E+07   4.57156161E+08   1.26305895E+07   0.14713493      
  92               1.54881662E+02   1.45116629E+01   3212.34650211    1.24170153E-04   3.27205531E+19   1.37675182E+07   4.59579110E+08   1.14276384E+07   0.14533123      
  93               1.90546072E+02   1.60872196E+01   3260.48466885    1.35273146E-04   3.57375410E+19   1.17487441E+07   4.61669316E+08   1.02119301E+07   0.14370866      
  94               2.34422882E+02   1.78209527E+01   3308.60929204    1.47285806E-04   3.90131728E+19   1.00344386E+07   4.63473721E+08   8.98362688E+06   0.1422512       
  95               2.88403150E+02   1.97277368E+01   3356.50421430    1.60292363E-04   4.25712015E+19   8.56688143E+06   4.65051221E+08   7.74262058E+06   0.14098267      
  96               3.54813389E+02   2.18241241E+01   3404.51080362    1.74351590E-04   4.64309901E+19   7.31221682E+06   4.66436679E+08   6.48858057E+06   0.1398581       
  97               4.36515832E+02   2.41285633E+01   3452.39225274    1.89567361E-04   5.06217517E+19   6.23253570E+06   4.67668271E+08   5.22098850E+06   0.13886954      
  98               5.37031796E+02   2.66616361E+01   3500.50763711    2.06011314E-04   5.51672845E+19   5.30902603E+06   4.68764402E+08   3.93916177E+06   0.13800957      
  99               6.60693448E+02   2.94462761E+01   3548.61828945    2.23809424E-04   6.01031083E+19   4.51863697E+06   4.69746330E+08   2.64230183E+06   0.13728965      
  100              8.12830516E+02   3.25079446E+01   3597.10732401    2.43046429E-04   6.54578830E+19   3.85011876E+06   4.70623579E+08   1.32954848E+06   0.13668281      
  101              1.00000000E+03   3.58749101E+01   3645.71327915    2.63874205E-04   7.12744953E+19   3.53670362E+06   4.71092444E+08   0.00000000E+00   0.13617668      
