# ATMO pressure-temperature profile
# Effective temperature = 800.0K
# log(g) = 4.5cm/s^2
# M/H = 0.0
# Optical depth grid in band 17 (1.20-1.33microns)
# All parameters in cgs units
#
# Model Level      Optical Depth    Pressure         Temperature      Density          Number Density   Rad Flux         Conv Flux        Radial Extension Adiabatic Gradient
#                                   [Ba]             [K]              [g/cm^3]         [/cm^3]          [ergs/s/cm^2/sr] [ergs/s/cm^2/sr] [cm]             [K/Ba]          
  1                5.00000000E-05   1.00000000E-05   233.08642713     1.21546564E-09   3.10748367E+14   2.32237813E+07   0.00000000E+00   1.49076845E+07   0.31081738      
  2                5.91534807E-05   5.33727770E-04   265.36087503     5.69826423E-08   1.45682957E+16   2.32237813E+07   0.00000000E+00   1.29176392E+07   0.30779326      
  3                6.99826855E-05   1.11969106E-03   284.81295069     1.11377677E-07   2.84750384E+16   2.32237813E+07   0.00000000E+00   1.26850444E+07   0.30547347      
  4                8.27943887E-05   1.79013503E-03   297.35232908     1.70558796E-07   4.36054012E+16   2.32237813E+07   0.00000000E+00   1.25312196E+07   0.30502487      
  5                9.79515255E-05   2.56446821E-03   308.44388446     2.35548763E-07   6.02208658E+16   2.32237813E+07   0.00000000E+00   1.24090536E+07   0.30388514      
  6                1.15883473E-04   3.46227093E-03   317.36644182     3.09072039E-07   7.90179732E+16   2.32237813E+07   0.00000000E+00   1.23038306E+07   0.30370272      
  7                1.37098216E-04   4.50538403E-03   326.63133293     3.90781188E-07   9.99078957E+16   2.32237813E+07   0.00000000E+00   1.22089156E+07   0.30290175      
  8                1.62196734E-04   5.71881380E-03   334.36296169     4.84559892E-07   1.23883547E+17   2.32237813E+07   0.00000000E+00   1.21207348E+07   0.30281023      
  9                1.91890027E-04   7.13164131E-03   342.79048505     5.89413989E-07   1.50690743E+17   2.32237813E+07   0.00000000E+00   1.20371350E+07   0.30220505      
  10               2.27019260E-04   8.77774881E-03   349.96619679     7.10586168E-07   1.81669864E+17   2.32237813E+07   0.00000000E+00   1.19567010E+07   0.3021594       
  11               2.68579588E-04   1.06969997E-02   357.90277156     8.46752727E-07   2.16482484E+17   2.32237814E+07   0.00000000E+00   1.18784581E+07   0.30168756      
  12               3.17748350E-04   1.29354305E-02   364.83847774     1.00447725E-06   2.56806546E+17   2.32237814E+07   0.00000000E+00   1.18017051E+07   0.30166667      
  13               3.75918418E-04   1.55464332E-02   372.83483982     1.18133784E-06   3.02023068E+17   2.32237814E+07   0.00000000E+00   1.17259084E+07   0.30128192      
  14               4.44737657E-04   1.85915487E-02   379.99694054     1.38610232E-06   3.54373558E+17   2.32237814E+07   0.00000000E+00   1.16506562E+07   0.3012702       
  15               5.26155608E-04   2.21417104E-02   388.36512128     1.61521632E-06   4.12949349E+17   2.32237814E+07   0.00000000E+00   1.15756262E+07   0.30094963      
  16               6.22478712E-04   2.62784385E-02   396.01188459     1.87997529E-06   4.80636973E+17   2.32237815E+07   0.00000000E+00   1.15005563E+07   0.30093722      
  17               7.36435649E-04   3.10964069E-02   404.88869957     2.17588194E-06   5.56288900E+17   2.32237815E+07   0.00000000E+00   1.14252259E+07   0.30066468      
  18               8.71254639E-04   3.67045273E-02   413.04850423     2.51755694E-06   6.43642068E+17   2.32237815E+07   0.00000000E+00   1.13494537E+07   0.30059891      
  19               1.03075489E-03   4.32279375E-02   422.50582314     2.89862787E-06   7.41067308E+17   2.32237816E+07   0.00000000E+00   1.12730897E+07   0.30045993      
  20               1.21945479E-03   5.08115521E-02   431.38759265     3.33699150E-06   8.53140679E+17   2.32237817E+07   0.00000000E+00   1.11959811E+07   0.30044147      
  21               1.44269991E-03   5.96233161E-02   441.69874628     3.82434250E-06   9.77722928E+17   2.32237818E+07   0.00000000E+00   1.11179787E+07   0.30021129      
  22               1.70681442E-03   6.98546349E-02   451.56404736     4.38270935E-06   1.12047381E+18   2.32237821E+07   0.00000000E+00   1.10389505E+07   0.30017102      
  23               2.01928028E-03   8.17215450E-02   463.07389349     4.99980734E-06   1.27823914E+18   2.32237829E+07   0.00000000E+00   1.09587846E+07   0.30002407      
  24               2.38894914E-03   9.54638588E-02   474.45285133     5.70052873E-06   1.45737651E+18   2.32237844E+07   0.00000000E+00   1.08773843E+07   0.30003804      
  25               2.82629313E-03   1.11360034E-01   486.88798136     6.47989410E-06   1.65663236E+18   2.32237850E+07   0.00000000E+00   1.07946756E+07   0.29989766      
  26               3.34370152E-03   1.29740521E-01   498.60327010     7.37256121E-06   1.88471790E+18   2.32237855E+07   0.00000000E+00   1.07105807E+07   0.29984982      
  27               3.95583167E-03   1.50967128E-01   512.09073101     8.35281991E-06   2.13531189E+18   2.32237859E+07   0.00000000E+00   1.06250435E+07   0.29970501      
  28               4.68002425E-03   1.75448943E-01   525.08656417     9.46710162E-06   2.42016898E+18   2.32237862E+07   0.00000000E+00   1.05379836E+07   0.29967189      
  29               5.53679448E-03   2.03656086E-01   540.02566833     1.06851246E-05   2.73154796E+18   2.32237863E+07   0.00000000E+00   1.04492964E+07   0.29959139      
  30               6.55041330E-03   2.36116032E-01   554.62559337     1.20620638E-05   3.08355294E+18   2.32237863E+07   0.00000000E+00   1.03588800E+07   0.29956763      
  31               7.74959494E-03   2.73423953E-01   571.24327293     1.35615975E-05   3.46689986E+18   2.32237861E+07   0.00000000E+00   1.02666367E+07   0.29945524      
  32               9.16831029E-03   3.16233941E-01   587.70667946     1.52455345E-05   3.89738845E+18   2.32237857E+07   0.00000000E+00   1.01724871E+07   0.29939182      
  33               1.08467493E-02   3.65261938E-01   606.42312009     1.70656488E-05   4.36269155E+18   2.32237852E+07   0.00000000E+00   1.00763676E+07   0.29924156      
  34               1.28324595E-02   4.21277485E-01   625.27866946     1.90892205E-05   4.88000733E+18   2.32237843E+07   0.00000000E+00   9.97822605E+06   0.29918567      
  35               1.51816929E-02   4.85186711E-01   646.62313262     2.12593804E-05   5.43479916E+18   2.32237831E+07   0.00000000E+00   9.87790452E+06   0.2990189       
  36               1.79609996E-02   5.58036508E-01   668.28624929     2.36587890E-05   6.04819698E+18   2.32237814E+07   0.00000000E+00   9.77518410E+06   0.29890142      
  37               2.12491128E-02   6.40941399E-01   692.47713004     2.62243553E-05   6.70407291E+18   2.32237793E+07   0.00000000E+00   9.66993182E+06   0.29864986      
  38               2.51391797E-02   7.35053877E-01   717.14114120     2.90406357E-05   7.42404121E+18   2.32237766E+07   0.00000000E+00   9.56208888E+06   0.29849814      
  39               2.97413996E-02   8.41555173E-01   744.47960243     3.20273679E-05   8.18758139E+18   2.32237731E+07   0.00000000E+00   9.45165781E+06   0.29815182      
  40               3.51861462E-02   9.61707438E-01   772.44976679     3.52748117E-05   9.01775783E+18   2.32237689E+07   0.00000000E+00   9.33861600E+06   0.29787447      
  41               4.16276604E-02   1.09718497E+00   803.17836438     3.87045508E-05   9.89449625E+18   2.32237747E+07   0.00000000E+00   9.22267040E+06   0.29731576      
  42               4.92484201E-02   1.24974764E+00   834.93907199     4.24095632E-05   1.08416000E+19   2.31745978E+07   4.93113314E+04   9.10359125E+06   0.29692544      
  43               5.82643093E-02   1.42132995E+00   867.34324814     4.64301400E-05   1.18694268E+19   2.31163595E+07   1.09587345E+05   8.98131542E+06   0.29624502      
  44               6.89307339E-02   1.61386169E+00   900.63989210     5.07704801E-05   1.29789922E+19   2.30739867E+07   1.53188621E+05   8.85591564E+06   0.29574423      
  45               8.15498567E-02   1.82929205E+00   934.54721785     5.54598502E-05   1.41777606E+19   2.30627716E+07   1.64780624E+05   8.72753129E+06   0.2947923       
  46               9.64791575E-02   2.07024313E+00   969.24736391     6.05182665E-05   1.54707926E+19   2.30968353E+07   1.29614394E+05   8.59600982E+06   0.29406921      
  47               1.14141560E-01   2.33977684E+00   1004.69640905    6.59858569E-05   1.68680713E+19   2.31658679E+07   5.77934671E+04   8.46113043E+06   0.29288109      
  48               1.35037411E-01   2.64110095E+00   1040.90446675    7.18925750E-05   1.83780729E+19   2.32237683E+07   0.00000000E+00   8.32278447E+06   0.29202262      
  49               1.59758657E-01   2.97778945E+00   1077.11461224    7.83321669E-05   2.00243261E+19   2.32237164E+07   0.00000000E+00   8.18090608E+06   0.29061944      
  50               1.89005613E-01   3.35397497E+00   1112.73963853    8.54027907E-05   2.18319284E+19   2.32237133E+07   0.00000000E+00   8.03546200E+06   0.28956334      
  51               2.23606798E-01   3.77437923E+00   1148.60529541    9.31061066E-05   2.38012935E+19   2.32237117E+07   0.00000000E+00   7.88637421E+06   0.28792207      
  52               2.64542408E-01   4.24529205E+00   1183.92964092    1.01597785E-04   2.59721270E+19   2.32237114E+07   0.00000000E+00   7.73326215E+06   0.28674675      
  53               3.12972084E-01   4.77375869E+00   1219.51891428    1.10911927E-04   2.83529179E+19   2.32237117E+07   0.00000000E+00   7.57583254E+06   0.28501097      
  54               3.70267763E-01   5.36773455E+00   1254.53647053    1.21235044E-04   3.09908565E+19   2.32237118E+07   0.00000000E+00   7.41385089E+06   0.28385516      
  55               4.38052539E-01   6.03701626E+00   1289.82012629    1.32630143E-04   3.39015095E+19   2.32237116E+07   0.00000000E+00   7.24694396E+06   0.28215806      
  56               5.18246648E-01   6.79522583E+00   1324.54509448    1.45386022E-04   3.71589117E+19   2.32237111E+07   0.00000000E+00   7.07427735E+06   0.28106047      
  57               6.13121862E-01   7.66256678E+00   1359.64316036    1.59719407E-04   4.08202039E+19   2.32237101E+07   0.00000000E+00   6.89428569E+06   0.27937692      
  58               7.25365844E-01   8.66644576E+00   1394.30624561    1.76151756E-04   4.50203317E+19   2.32237097E+07   0.00000000E+00   6.70502426E+06   0.27831777      
  59               8.58158289E-01   9.83600012E+00   1429.62680788    1.94976751E-04   4.98335334E+19   2.32237095E+07   0.00000000E+00   6.50545737E+06   0.27663727      
  60               1.01526100E+00   1.11948556E+01   1464.90273774    2.16560048E-04   5.53522840E+19   2.32237092E+07   0.00000000E+00   6.29633767E+06   0.27558895      
  61               1.20112443E+00   1.27612145E+01   1501.36427606    2.40858665E-04   6.15647002E+19   2.32237091E+07   0.00000000E+00   6.07945553E+06   0.27386934      
  62               1.42101382E+00   1.45487593E+01   1538.34598135    2.67986300E-04   6.85011367E+19   2.32237090E+07   0.00000000E+00   5.85696000E+06   0.27281362      
  63               1.68115827E+00   1.65683895E+01   1577.14276246    2.97693161E-04   7.60913215E+19   2.32237096E+07   0.00000000E+00   5.63084026E+06   0.27105611      
  64               1.98892727E+00   1.88300361E+01   1617.06724968    3.29965470E-04   8.43429741E+19   2.32237109E+07   0.00000000E+00   5.40264389E+06   0.26993966      
  65               2.35303941E+00   2.13130424E+01   1659.43985365    3.64083310E-04   9.30271620E+19   2.32237136E+07   0.00000000E+00   5.17608894E+06   0.26811768      
  66               2.78380943E+00   2.39861822E+01   1703.59818624    3.99124194E-04   1.01981125E+20   2.32237163E+07   0.00000000E+00   4.95433571E+06   0.26688996      
  67               3.29344035E+00   2.68068594E+01   1750.86407698    4.34035481E-04   1.10896884E+20   2.32227687E+07   0.00000000E+00   4.74002651E+06   0.26490797      
  68               3.89636920E+00   2.96785623E+01   1801.34545041    4.67192266E-04   1.19336059E+20   2.13592530E+07   1.86392482E+06   4.53835659E+06   0.2634928       
  69               4.60967600E+00   3.24718336E+01   1841.58238687    5.00229755E-04   1.27714880E+20   1.86996352E+07   4.52246260E+06   4.35563372E+06   0.26176896      
  70               5.45356761E+00   3.49627741E+01   1880.29240708    5.28060784E-04   1.34681000E+20   1.58449331E+07   7.37543755E+06   4.20236038E+06   0.26092132      
  71               6.45195012E+00   3.70653019E+01   1906.26819577    5.52177990E-04   1.40834605E+20   1.40302101E+07   9.19044334E+06   4.07923135E+06   0.25942638      
  72               7.63310614E+00   3.93946946E+01   1939.42085806    5.76832141E-04   1.47126707E+20   1.30822185E+07   1.01412844E+07   3.94871079E+06   0.2585316       
  73               9.03049593E+00   4.19653097E+01   1968.45231844    6.05387898E-04   1.54415671E+20   1.15983965E+07   1.16292897E+07   3.81114967E+06   0.25704286      
  74               1.06837053E+01   4.40340598E+01   1995.72389278    6.26740200E-04   1.59813738E+20   9.55668946E+06   1.36802905E+07   3.70493907E+06   0.25672218      
  75               1.26395671E+01   4.55945190E+01   2010.81767015    6.44071258E-04   1.64235027E+20   8.42435063E+06   1.48252225E+07   3.62727113E+06   0.25556604      
  76               1.49534878E+01   4.73620612E+01   2033.23289929    6.61649547E-04   1.68721064E+20   8.09102303E+06   1.51685436E+07   3.54164841E+06   0.25505845      
  77               1.76910170E+01   4.93561335E+01   2051.88993600    6.83225644E-04   1.74225977E+20   7.62656338E+06   1.56435444E+07   3.44786092E+06   0.25360892      
  78               2.09297047E+01   5.15967547E+01   2077.87489290    7.05290829E-04   1.79857615E+20   7.33158087E+06   1.59495642E+07   3.34578988E+06   0.25320038      
  79               2.47612977E+01   5.41034871E+01   2100.16220811    7.31664170E-04   1.86594250E+20   6.49239452E+06   1.67844615E+07   3.23544095E+06   0.25188929      
  80               2.92943389E+01   5.59916641E+01   2121.10322630    7.50339498E-04   1.91199790E+20   5.26585350E+06   1.79775115E+07   3.15484667E+06   0.25201722      
  81               3.46572422E+01   5.73808182E+01   2131.52189338    7.65187686E-04   1.94985707E+20   4.69878723E+06   1.85178564E+07   3.09687209E+06   0.25084541      
  82               4.10019301E+01   5.89775885E+01   2148.92791401    7.80091493E-04   1.98788384E+20   4.66423271E+06   1.85523252E+07   3.03151604E+06   0.25076636      
  83               4.85081376E+01   6.08071751E+01   2162.74933686    7.99136922E-04   2.03645342E+20   4.41195678E+06   1.88045509E+07   2.95823871E+06   0.24934744      
  84               5.73885036E+01   6.28969317E+01   2183.68150071    8.18650771E-04   2.08624834E+20   4.34285636E+06   1.88735080E+07   2.87653609E+06   0.24919328      
  85               6.78945948E+01   6.52758841E+01   2201.30844908    8.42789135E-04   2.14781911E+20   4.09329924E+06   1.91229488E+07   2.78596762E+06   0.24744714      
  86               8.03240320E+01   6.79754693E+01   2226.04517950    8.67853882E-04   2.21179096E+20   3.98579681E+06   1.92302303E+07   2.68614831E+06   0.24719953      
  87               9.50289215E+01   7.10287533E+01   2247.75316298    8.98043751E-04   2.28881881E+20   3.73713263E+06   1.94787074E+07   2.57677903E+06   0.24504434      
  88               1.12425830E+02   7.44717758E+01   2276.39434178    9.29674915E-04   2.36957278E+20   3.59959114E+06   1.96159387E+07   2.45762028E+06   0.24470067      
  89               1.33007583E+02   7.83422923E+01   2302.30936548    9.66930204E-04   2.46466805E+20   3.34936749E+06   1.98659187E+07   2.32852627E+06   0.24211909      
  90               1.57357229E+02   8.26813298E+01   2334.76734816    1.00632086E-03   2.56501366E+20   3.18588512E+06   2.00290439E+07   2.18942156E+06   0.24167958      
  91               1.86164557E+02   8.75328686E+01   2364.86668895    1.05173029E-03   2.68096002E+20   2.94049721E+06   2.02741927E+07   2.04029344E+06   0.23859926      
  92               2.20245630E+02   9.29468572E+01   2400.88332641    1.09991433E-03   2.80407415E+20   2.77188597E+06   2.04424377E+07   1.88111418E+06   0.23807925      
  93               2.60565913E+02   9.89753818E+01   2435.06032997    1.15469502E-03   2.94403724E+20   2.53768465E+06   2.06764467E+07   1.71195380E+06   0.23445938      
  94               3.08267614E+02   1.05678752E+02   2474.24647945    1.21320898E-03   3.09364556E+20   2.36508717E+06   2.08487050E+07   1.53285496E+06   0.23384675      
  95               3.64702046E+02   1.13119374E+02   2512.32158079    1.27876480E-03   3.26127638E+20   2.14171892E+06   2.10720437E+07   1.34394838E+06   0.2295242       
  96               4.31467909E+02   1.21375543E+02   2554.15617642    1.34938609E-03   3.44198979E+20   1.97565920E+06   2.12380664E+07   1.14519414E+06   0.22878147      
  97               5.10456573E+02   1.30532499E+02   2595.97995978    1.42753367E-03   3.64202698E+20   1.77622154E+06   2.14378148E+07   9.36557223E+05   0.22346706      
  98               6.03905660E+02   1.40694007E+02   2639.86491907    1.51274640E-03   3.86028823E+20   1.61997236E+06   2.15943181E+07   7.17890125E+05   0.22122988      
  99               7.14462436E+02   1.51974290E+02   2684.81264388    1.60627407E-03   4.09998227E+20   1.47314782E+06   2.17414771E+07   4.89051767E+05   0.21896675      
  100              8.45258798E+02   1.64504805E+02   2731.80873147    1.70830928E-03   4.36168340E+20   1.33809185E+06   2.18769399E+07   2.49842601E+05   0.21663313      
  101              1.00000000E+03   1.78437377E+02   2779.82079904    1.82040244E-03   4.64937814E+20   1.26523117E+06   2.19496989E+07   0.00000000E+00   0.21430366      
