# ATMO pressure-temperature profile
# Effective temperature = 1300.0K
# log(g) = 3.5cm/s^2
# M/H = 0.0
# Optical depth grid in band 17 (1.20-1.33microns)
# All parameters in cgs units
#
# Model Level      Optical Depth    Pressure         Temperature      Density          Number Density   Rad Flux         Conv Flux        Radial Extension Adiabatic Gradient
#                                   [Ba]             [K]              [g/cm^3]         [/cm^3]          [ergs/s/cm^2/sr] [ergs/s/cm^2/sr] [cm]             [K/Ba]          
  1                3.00000000E-06   1.00000000E-05   339.31554541     8.35096025E-10   2.13462741E+14   1.61937743E+08   0.00000000E+00   1.78538161E+08   0.29747584      
  2                3.65048058E-06   1.92034212E-05   391.96882437     1.38824755E-09   3.54856627E+14   1.61937743E+08   0.00000000E+00   1.75835151E+08   0.29746739      
  3                4.44200282E-06   2.96338750E-05   415.63303689     2.02031407E-09   5.16421391E+14   1.61937743E+08   0.00000000E+00   1.73865630E+08   0.29753239      
  4                5.40514834E-06   4.18839675E-05   432.95656935     2.74123517E-09   7.00695487E+14   1.61937743E+08   0.00000000E+00   1.72219526E+08   0.2976193       
  5                6.57712968E-06   5.64155835E-05   446.75824726     3.57823884E-09   9.14644539E+14   1.61937743E+08   0.00000000E+00   1.70752270E+08   0.29766896      
  6                8.00322805E-06   7.37558454E-05   458.09815705     4.56226732E-09   1.16617504E+15   1.61937743E+08   0.00000000E+00   1.69395111E+08   0.29773864      
  7                9.73854285E-06   9.45042934E-05   468.83066866     5.71187068E-09   1.46002861E+15   1.61937743E+08   0.00000000E+00   1.68109806E+08   0.29777438      
  8                1.18501205E-05   1.19373182E-04   478.14637946     7.07438604E-09   1.80830524E+15   1.61937743E+08   0.00000000E+00   1.66872655E+08   0.29782573      
  9                1.44195449E-05   1.49214547E-04   487.49896094     8.67321957E-09   2.21698783E+15   1.61937743E+08   0.00000000E+00   1.65667941E+08   0.29784949      
  10               1.75460896E-05   1.85046507E-04   495.95334651     1.05726282E-08   2.70250127E+15   1.61937743E+08   0.00000000E+00   1.64484657E+08   0.29788194      
  11               2.13505531E-05   2.28086000E-04   504.86853631     1.28015701E-08   3.27224764E+15   1.61937743E+08   0.00000000E+00   1.63314769E+08   0.29789389      
  12               2.59799264E-05   2.79789044E-04   513.14497629     1.54501808E-08   3.94926670E+15   1.61937743E+08   0.00000000E+00   1.62152203E+08   0.29790628      
  13               3.16130723E-05   3.41916473E-04   522.01902399     1.85599442E-08   4.74416226E+15   1.61937743E+08   0.00000000E+00   1.60992015E+08   0.29790589      
  14               3.84676354E-05   4.16590051E-04   530.25630612     2.22620965E-08   5.69047988E+15   1.61937743E+08   0.00000000E+00   1.59830311E+08   0.29844949      
  15               4.68084520E-05   5.06365561E-04   539.05006151     2.66181645E-08   6.80394666E+15   1.61937743E+08   0.00000000E+00   1.58664077E+08   0.29840312      
  16               5.69577817E-05   6.14322172E-04   547.12355138     3.18166065E-08   8.13273498E+15   1.61937743E+08   0.00000000E+00   1.57490982E+08   0.29831113      
  17               6.93077586E-05   7.44168413E-04   555.73906023     3.79440274E-08   9.69898191E+15   1.61937743E+08   0.00000000E+00   1.56309218E+08   0.2982605       
  18               8.43355422E-05   9.00364534E-04   563.66010221     4.52630937E-08   1.15698286E+16   1.61937743E+08   0.00000000E+00   1.55117354E+08   0.29815954      
  19               1.02621753E-04   1.08827000E-03   572.19410950     5.38935113E-08   1.37758725E+16   1.61937743E+08   0.00000000E+00   1.53914262E+08   0.29810574      
  20               1.24872905E-04   1.31431748E-03   580.08722439     6.42022467E-08   1.64109160E+16   1.61937743E+08   0.00000000E+00   1.52699038E+08   0.29799542      
  21               1.51948705E-04   1.58621542E-03   588.72614485     7.63470260E-08   1.95152754E+16   1.61937743E+08   0.00000000E+00   1.51470935E+08   0.29793632      
  22               1.84895266E-04   1.91319390E-03   596.81706346     9.08366566E-08   2.32190044E+16   1.61937743E+08   0.00000000E+00   1.50229304E+08   0.29781373      
  23               2.24985526E-04   2.30629890E-03   605.72614040     1.07890374E-07   2.75781491E+16   1.61937743E+08   0.00000000E+00   1.48973602E+08   0.2977483       
  24               2.73768430E-04   2.77871109E-03   614.19283345     1.28198253E-07   3.27690981E+16   1.61937743E+08   0.00000000E+00   1.47703353E+08   0.29761379      
  25               3.33128779E-04   3.34622877E-03   623.42551215     1.52094942E-07   3.88773718E+16   1.61937743E+08   0.00000000E+00   1.46418123E+08   0.29753914      
  26               4.05360046E-04   4.02795267E-03   632.22215606     1.80533745E-07   4.61466827E+16   1.61937743E+08   0.00000000E+00   1.45117139E+08   0.29738775      
  27               4.93252992E-04   4.84685834E-03   641.78153058     2.14001523E-07   5.47014643E+16   1.61937743E+08   0.00000000E+00   1.43799652E+08   0.29730051      
  28               6.00203489E-04   5.83040978E-03   650.95542618     2.53800466E-07   6.48744468E+16   1.61937743E+08   0.00000000E+00   1.42465079E+08   0.29712992      
  29               7.30343727E-04   7.01133418E-03   661.11668235     3.00515704E-07   7.68154167E+16   1.61937742E+08   0.00000000E+00   1.41112874E+08   0.2970279       
  30               8.88701864E-04   8.42855608E-03   671.03580311     3.55919704E-07   9.09773595E+16   1.61937742E+08   0.00000000E+00   1.39742535E+08   0.29683246      
  31               1.08139630E-03   1.01281936E-02   682.11067933     4.20750252E-07   1.07548160E+17   1.61937742E+08   0.00000000E+00   1.38353642E+08   0.2967089       
  32               1.31587206E-03   1.21645958E-02   693.15230790     4.97297479E-07   1.27114428E+17   1.61937742E+08   0.00000000E+00   1.36945835E+08   0.29648122      
  33               1.60118847E-03   1.46015125E-02   705.74623641     5.86268284E-07   1.49856337E+17   1.61937741E+08   0.00000000E+00   1.35518637E+08   0.29633027      
  34               1.94836913E-03   1.75139819E-02   718.21709492     6.91001099E-07   1.76626149E+17   1.61937741E+08   0.00000000E+00   1.34071618E+08   0.29606124      
  35               2.37082789E-03   2.09896328E-02   732.30426777     8.12199636E-07   2.07605625E+17   1.61937740E+08   0.00000000E+00   1.32604498E+08   0.29586957      
  36               2.88488706E-03   2.51297920E-02   746.47635563     9.53942412E-07   2.43836478E+17   1.61937740E+08   0.00000000E+00   1.31117109E+08   0.2955451       
  37               3.51040806E-03   3.00512522E-02   762.69533111     1.11650473E-06   2.85389063E+17   1.61937739E+08   0.00000000E+00   1.29609105E+08   0.29530342      
  38               4.27155881E-03   3.58935123E-02   779.16099559     1.30538133E-06   3.33668027E+17   1.61937737E+08   0.00000000E+00   1.28078786E+08   0.29484906      
  39               5.19774750E-03   4.28196194E-02   797.90489140     1.52068662E-06   3.88702662E+17   1.61937736E+08   0.00000000E+00   1.26524251E+08   0.29458082      
  40               6.32475876E-03   5.10136759E-02   817.36681612     1.76854715E-06   4.52059350E+17   1.61937734E+08   0.00000000E+00   1.24944201E+08   0.29411332      
  41               7.69613634E-03   6.06830189E-02   839.60194414     2.04804470E-06   5.23503491E+17   1.61937732E+08   0.00000000E+00   1.23337559E+08   0.29374607      
  42               9.36486541E-03   7.20559819E-02   862.80175537     2.36648033E-06   6.04901777E+17   1.61937730E+08   0.00000000E+00   1.21703933E+08   0.29322668      
  43               1.13954198E-02   8.53773042E-02   889.01129155     2.72130956E-06   6.95602286E+17   1.61937727E+08   0.00000000E+00   1.20043936E+08   0.29271715      
  44               1.38662528E-02   1.00899100E-01   916.56760888     3.11937866E-06   7.97349318E+17   1.61937724E+08   0.00000000E+00   1.18359247E+08   0.29188785      
  45               1.68728289E-02   1.18895932E-01   947.42864087     3.55594634E-06   9.08963251E+17   1.61937721E+08   0.00000000E+00   1.16650474E+08   0.29117271      
  46               2.05313114E-02   1.39722561E-01   979.60696571     4.04143914E-06   1.03309560E+18   1.61937719E+08   0.00000000E+00   1.14913179E+08   0.29029446      
  47               2.49830512E-02   1.63751884E-01   1015.11930196    4.57064173E-06   1.16840944E+18   1.61937718E+08   0.00000000E+00   1.13145167E+08   0.28946422      
  48               3.04000477E-02   1.91349272E-01   1052.07055736    5.15319631E-06   1.31737006E+18   1.61937718E+08   0.00000000E+00   1.11346953E+08   0.28829552      
  49               3.69915946E-02   2.22864917E-01   1092.34937621    5.78048288E-06   1.47776706E+18   1.61937719E+08   0.00000000E+00   1.09520931E+08   0.28725949      
  50               4.50123658E-02   2.58638691E-01   1133.78002440    6.46308756E-06   1.65230620E+18   1.61937722E+08   0.00000000E+00   1.07670117E+08   0.28601472      
  51               5.47722558E-02   2.99114927E-01   1178.25877025    7.19228340E-06   1.83875237E+18   1.61937728E+08   0.00000000E+00   1.05792760E+08   0.28477459      
  52               6.66483519E-02   3.44874548E-01   1223.90668435    7.98321815E-06   2.04097967E+18   1.61937705E+08   0.00000000E+00   1.03883081E+08   0.28308429      
  53               8.10995048E-02   3.96443085E-01   1273.12294532    8.82211711E-06   2.25546629E+18   1.61809495E+08   1.26589078E+05   1.01939917E+08   0.28147394      
  54               9.86840557E-02   4.54338752E-01   1322.65441816    9.73181374E-06   2.48805074E+18   1.61357102E+08   5.77798757E+05   9.99640261E+07   0.27952002      
  55               1.20081410E-01   5.19224313E-01   1372.85238765    1.07149717E-05   2.73940987E+18   1.60745636E+08   1.18843329E+06   9.79546729E+07   0.27806742      
  56               1.46118284E-01   5.91877431E-01   1423.58816808    1.17790496E-05   3.01143331E+18   1.59905867E+08   2.02746676E+06   9.59096168E+07   0.27633367      
  57               1.77800653E-01   6.72980813E-01   1474.87064809    1.29281936E-05   3.30502379E+18   1.58581372E+08   3.35123167E+06   9.38312528E+07   0.27455276      
  58               2.16352610E-01   7.62372600E-01   1526.05300005    1.41588600E-05   3.61845771E+18   1.56333868E+08   5.59803090E+06   9.17417516E+07   0.27240798      
  59               2.63263667E-01   8.58547892E-01   1576.03892910    1.54410905E-05   3.94569422E+18   1.52812087E+08   9.11943625E+06   8.96848375E+07   0.27045402      
  60               3.20346302E-01   9.56574299E-01   1622.65555210    1.67139602E-05   4.26990495E+18   1.47942795E+08   1.39891791E+07   8.77552114E+07   0.26814905      
  61               3.89805984E-01   1.05221130E+00   1664.40183472    1.79350329E-05   4.57899971E+18   1.41975272E+08   1.99579693E+07   8.60083552E+07   0.26586702      
  62               4.74326391E-01   1.14096540E+00   1700.52449057    1.90490606E-05   4.85976672E+18   1.35589701E+08   2.63457927E+07   8.44898399E+07   0.26388019      
  63               5.77173093E-01   1.22045977E+00   1730.85515804    2.00256578E-05   5.10726721E+18   1.29592169E+08   3.23479460E+07   8.32027075E+07   0.26220113      
  64               7.02319722E-01   1.29074866E+00   1756.43354321    2.08705361E-05   5.32274671E+18   1.24435364E+08   3.75090374E+07   8.21154644E+07   0.26067523      
  65               8.54601502E-01   1.37114662E+00   1784.19980476    2.18242437E-05   5.56629540E+18   1.18834588E+08   4.31081961E+07   8.09241980E+07   0.25938211      
  66               1.03990206E+00   1.43616749E+00   1805.76131485    2.26062716E-05   5.76063801E+18   1.13826064E+08   4.81081397E+07   7.99983836E+07   0.25824086      
  67               1.26538076E+00   1.48547903E+00   1821.49482949    2.31800849E-05   5.90696533E+18   1.09853977E+08   5.20721586E+07   7.93171803E+07   0.25736392      
  68               1.53974930E+00   1.54294447E+00   1839.40761314    2.38418161E-05   6.07572568E+18   1.05786881E+08   5.61384092E+07   7.85441799E+07   0.25656397      
  69               1.87360830E+00   1.60954795E+00   1859.38028533    2.46031755E-05   6.26991331E+18   1.01383893E+08   6.05406600E+07   7.76745554E+07   0.25565665      
  70               2.27985690E+00   1.68628397E+00   1881.67172706    2.54699379E-05   6.49101618E+18   9.65082533E+07   6.54157098E+07   7.67051843E+07   0.25459083      
  71               2.77419111E+00   1.77410230E+00   1906.04786278    2.64525835E-05   6.74171977E+18   9.10288899E+07   7.08947321E+07   7.56352983E+07   0.2533885       
  72               3.37571026E+00   1.87345823E+00   1932.54745152    2.75496204E-05   7.02165823E+18   8.50666989E+07   7.68567406E+07   7.44714338E+07   0.25197332      
  73               4.10765492E+00   1.98543686E+00   1960.88863626    2.87724746E-05   7.33379880E+18   7.92651048E+07   8.26583248E+07   7.32136983E+07   0.25035402      
  74               4.99830483E+00   2.11284116E+00   1991.62656409    3.01438157E-05   7.68395438E+18   7.37938727E+07   8.81297644E+07   7.18456638E+07   0.24846609      
  75               6.08207157E+00   2.25725991E+00   2024.42909490    3.16792736E-05   8.07615858E+18   6.83389200E+07   9.35852056E+07   7.03677886E+07   0.24637922      
  76               7.40082804E+00   2.42042462E+00   2059.46433814    3.33871862E-05   8.51261763E+18   6.28753221E+07   9.90494851E+07   6.87812528E+07   0.24400857      
  77               9.00552635E+00   2.60423658E+00   2096.32802707    3.52856239E-05   8.99802166E+18   5.74542209E+07   1.04471449E+08   6.70877483E+07   0.24138653      
  78               1.09581663E+01   2.81079619E+00   2135.17495741    3.73844672E-05   9.53502264E+18   5.21538392E+07   1.09772843E+08   6.52892805E+07   0.2384991       
  79               1.33341911E+01   3.04243240E+00   2175.56314347    3.97050631E-05   1.01291986E+19   4.70409431E+07   1.14886858E+08   6.33880269E+07   0.23538749      
  80               1.62254019E+01   3.30173286E+00   2217.65557387    4.22595089E-05   1.07838460E+19   4.21665645E+07   1.19762373E+08   6.13862268E+07   0.23188744      
  81               1.97435049E+01   3.59158993E+00   2260.92872181    4.50747356E-05   1.15060356E+19   3.75809010E+07   1.24349195E+08   5.92860391E+07   0.22804992      
  82               2.40244270E+01   3.91526359E+00   2305.56869069    4.81663717E-05   1.23001039E+19   3.32857698E+07   1.28645450E+08   5.70893308E+07   0.22390101      
  83               2.92335681E+01   4.27606922E+00   2351.00177650    5.15698394E-05   1.31739985E+19   2.93010147E+07   1.32631292E+08   5.47999394E+07   0.21962043      
  84               3.55721908E+01   4.67803073E+00   2397.50115101    5.52933506E-05   1.41328609E+19   2.57365962E+07   1.36196722E+08   5.24195128E+07   0.21512501      
  85               4.32851972E+01   5.12591729E+00   2444.51412588    5.93850791E-05   1.51881502E+19   2.25466054E+07   1.39387672E+08   4.99477996E+07   0.2105668       
  86               5.26705906E+01   5.62464373E+00   2492.37961186    6.38656683E-05   1.63458184E+19   1.96507787E+07   1.42284398E+08   4.73868809E+07   0.20595437      
  87               6.40909893E+01   6.17976550E+00   2540.50020665    6.87841142E-05   1.76188923E+19   1.70454204E+07   1.44890694E+08   4.47382790E+07   0.20131727      
  88               7.79876373E+01   6.79731926E+00   2589.24990605    7.41654503E-05   1.90147027E+19   1.47751903E+07   1.47161971E+08   4.20040386E+07   0.19665697      
  89               9.48974517E+01   7.48395138E+00   2638.00578950    8.00670620E-05   2.05485439E+19   1.27963966E+07   1.49142112E+08   3.91862817E+07   0.19215758      
  90               1.15473768E+02   8.24700429E+00   2687.26052466    8.65159291E-05   2.22286091E+19   1.10780491E+07   1.50862316E+08   3.62870202E+07   0.18759584      
  91               1.40511583E+02   9.09445507E+00   2736.25945256    9.35834938E-05   2.40738332E+19   9.57741200E+06   1.52365752E+08   3.33086771E+07   0.18324045      
  92               1.70978268E+02   1.00348741E+01   2785.65227376    1.01294044E-04   2.60922099E+19   8.28351812E+06   1.53663949E+08   3.02541908E+07   0.17916894      
  93               2.08050949E+02   1.10773997E+01   2834.69989071    1.09725975E-04   2.83045712E+19   7.15321063E+06   1.54800890E+08   2.71270423E+07   0.17535828      
  94               2.53161982E+02   1.22317694E+01   2884.06855642    1.18902538E-04   3.07191747E+19   6.17637489E+06   1.55787827E+08   2.39310670E+07   0.17173185      
  95               3.08054300E+02   1.35083586E+01   2932.95907445    1.28913381E-04   3.33597215E+19   5.32720249E+06   1.56652247E+08   2.06703331E+07   0.16845206      
  96               3.74848746E+02   1.49181864E+01   2982.16862007    1.39774685E-04   3.62334488E+19   4.59799469E+06   1.57404131E+08   1.73490041E+07   0.16530997      
  97               4.56126023E+02   1.64730841E+01   3030.76708120    1.51594084E-04   3.93684388E+19   3.96587171E+06   1.58069313E+08   1.39710380E+07   0.16241777      
  98               5.55026396E+02   1.81848043E+01   3079.64185900    1.64374836E-04   4.27695084E+19   3.42296485E+06   1.58659450E+08   1.05419145E+07   0.1597645       
  99               6.75371026E+02   2.00653747E+01   3127.81560942    1.78229322E-04   4.64656452E+19   2.94923899E+06   1.59198672E+08   7.06742381E+06   0.15744688      
  100              8.21809604E+02   2.21277594E+01   3176.29111916    1.93147738E-04   5.04595043E+19   2.54013902E+06   1.59696468E+08   3.55227011E+06   0.15526723      
  101              1.00000000E+03   2.43861400E+01   3223.98198007    2.09271422E-04   5.47868457E+19   2.33462997E+06   1.59967723E+08   0.00000000E+00   0.15334108      
