# ATMO pressure-temperature profile
# Effective temperature = 1300.0K
# log(g) = 2.5cm/s^2
# M/H = 0.0
# Optical depth grid in band 17 (1.20-1.33microns)
# All parameters in cgs units
#
# Model Level      Optical Depth    Pressure         Temperature      Density          Number Density   Rad Flux         Conv Flux        Radial Extension Adiabatic Gradient
#                                   [Ba]             [K]              [g/cm^3]         [/cm^3]          [ergs/s/cm^2/sr] [ergs/s/cm^2/sr] [cm]             [K/Ba]          
  1                1.00000000E-04   1.00000000E-05   343.65404225     8.24987365E-10   2.10767858E+14   1.61937829E+08   0.00000000E+00   1.67838381E+09   0.29768535      
  2                1.17489755E-04   2.95516125E-05   418.48944863     2.00200516E-09   5.11472762E+14   1.61937829E+08   0.00000000E+00   1.63027480E+09   0.2979837       
  3                1.38038426E-04   5.02745469E-05   458.05935574     3.11169997E-09   7.94972758E+14   1.61937829E+08   0.00000000E+00   1.60401928E+09   0.29795498      
  4                1.62181010E-04   7.34470895E-05   480.75727655     4.33131672E-09   1.10655897E+15   1.61937829E+08   0.00000000E+00   1.58405908E+09   0.29786386      
  5                1.90546072E-04   9.98431515E-05   498.79922396     5.67497145E-09   1.44983424E+15   1.61937829E+08   0.00000000E+00   1.56722275E+09   0.29774968      
  6                2.23872114E-04   1.30116891E-04   512.63879861     7.19603611E-09   1.83843401E+15   1.61937829E+08   0.00000000E+00   1.55224187E+09   0.29762666      
  7                2.63026799E-04   1.64982457E-04   525.71039346     8.89738324E-09   2.27309215E+15   1.61937829E+08   0.00000000E+00   1.53846283E+09   0.29749204      
  8                3.09029543E-04   2.05243695E-04   536.64412888     1.08431265E-08   2.77018825E+15   1.61937829E+08   0.00000000E+00   1.52550063E+09   0.29757632      
  9                3.63078055E-04   2.51814250E-04   547.79339437     1.30327053E-08   3.32957921E+15   1.61937829E+08   0.00000000E+00   1.51311218E+09   0.29745334      
  10               4.26579519E-04   3.05743350E-04   557.32854311     1.55530935E-08   3.97348496E+15   1.61937829E+08   0.00000000E+00   1.50113382E+09   0.29733297      
  11               5.01187234E-04   3.68246169E-04   567.38453168     1.84005914E-08   4.70096032E+15   1.61937830E+08   0.00000000E+00   1.48945025E+09   0.29720741      
  12               5.88843655E-04   4.40728360E-04   576.07034400     2.16903473E-08   5.54142320E+15   1.61937830E+08   0.00000000E+00   1.47797712E+09   0.29708401      
  13               6.91830971E-04   5.24817755E-04   585.50804600     2.54124580E-08   6.49234352E+15   1.61937830E+08   0.00000000E+00   1.46665091E+09   0.29695311      
  14               8.12830516E-04   6.22391714E-04   593.81591380     2.97154958E-08   7.59167853E+15   1.61937831E+08   0.00000000E+00   1.45542247E+09   0.29682226      
  15               9.54992586E-04   7.35610646E-04   603.17386532     3.45761414E-08   8.83346983E+15   1.61937831E+08   0.00000000E+00   1.44425283E+09   0.29668153      
  16               1.12201845E-03   8.66960775E-04   611.56504095     4.01909070E-08   1.02679238E+16   1.61937832E+08   0.00000000E+00   1.43311044E+09   0.29654022      
  17               1.31825674E-03   1.01931038E-03   621.09413070     4.65286166E-08   1.18870711E+16   1.61937832E+08   0.00000000E+00   1.42196962E+09   0.29638886      
  18               1.54881662E-03   1.19600412E-03   629.68813125     5.38490732E-08   1.37572936E+16   1.61937833E+08   0.00000000E+00   1.41080685E+09   0.29623455      
  19               1.81970086E-03   1.40095111E-03   639.49068134     6.21098069E-08   1.58677226E+16   1.61937834E+08   0.00000000E+00   1.39960028E+09   0.29606728      
  20               2.13796209E-03   1.63865408E-03   648.46222489     7.16430166E-08   1.83032596E+16   1.61937835E+08   0.00000000E+00   1.38833175E+09   0.29589465      
  21               2.51188643E-03   1.91429798E-03   658.75730557     8.23868115E-08   2.10479565E+16   1.61937837E+08   0.00000000E+00   1.37698600E+09   0.29570761      
  22               2.95120923E-03   2.23384093E-03   668.27147069     9.47704074E-08   2.42116932E+16   1.61937838E+08   0.00000000E+00   1.36555027E+09   0.29551459      
  23               3.46736850E-03   2.60411682E-03   679.20825920     1.08700399E-07   2.77704773E+16   1.61937839E+08   0.00000000E+00   1.35401378E+09   0.2953046       
  24               4.07380278E-03   3.03293102E-03   689.47037986     1.24715423E-07   3.18619799E+16   1.61937841E+08   0.00000000E+00   1.34236733E+09   0.2950858       
  25               4.78630092E-03   3.52918462E-03   701.29978857     1.42674141E-07   3.64499141E+16   1.61937842E+08   0.00000000E+00   1.33060289E+09   0.29484724      
  26               5.62341325E-03   4.10299550E-03   712.50238319     1.63263350E-07   4.17100355E+16   1.61937844E+08   0.00000000E+00   1.31871371E+09   0.29459843      
  27               6.60693448E-03   4.76580623E-03   725.41723895     1.86260485E-07   4.75854684E+16   1.61937846E+08   0.00000000E+00   1.30669426E+09   0.29432751      
  28               7.76247117E-03   5.53046145E-03   737.86396470     2.12498558E-07   5.42888832E+16   1.61937847E+08   0.00000000E+00   1.29454003E+09   0.29404351      
  29               9.12010839E-03   6.41132075E-03   752.21979803     2.41640770E-07   6.17345923E+16   1.61937849E+08   0.00000000E+00   1.28224744E+09   0.29373405      
  30               1.07151931E-02   7.42458198E-03   766.18929936     2.74726660E-07   7.01878217E+16   1.61937851E+08   0.00000000E+00   1.26981129E+09   0.29340842      
  31               1.25892541E-02   8.58952995E-03   782.05612813     3.11379742E-07   7.95531378E+16   1.61937852E+08   0.00000000E+00   1.25721592E+09   0.29305291      
  32               1.47910839E-02   9.92787030E-03   797.66505890     3.52850003E-07   9.01490939E+16   1.61937854E+08   0.00000000E+00   1.24444781E+09   0.29267712      
  33               1.73780083E-02   1.14636222E-02   815.43910231     3.98544307E-07   1.01825411E+17   1.61937855E+08   0.00000000E+00   1.23149728E+09   0.29224759      
  34               2.04173794E-02   1.32229804E-02   833.24079440     4.49883258E-07   1.14943567E+17   1.61937856E+08   0.00000000E+00   1.21835816E+09   0.29219329      
  35               2.39883292E-02   1.52341360E-02   853.51265990     5.05990267E-07   1.29280702E+17   1.61937855E+08   0.00000000E+00   1.20502831E+09   0.29176522      
  36               2.81838293E-02   1.75268067E-02   873.99990465     5.68495279E-07   1.45250372E+17   1.61937854E+08   0.00000000E+00   1.19151046E+09   0.29121328      
  37               3.31131121E-02   2.01321963E-02   897.18980984     6.36107853E-07   1.62529674E+17   1.61937852E+08   0.00000000E+00   1.17780972E+09   0.29054097      
  38               3.89045145E-02   2.30817158E-02   920.88164471     7.10526983E-07   1.81547433E+17   1.61937848E+08   0.00000000E+00   1.16393591E+09   0.28981682      
  39               4.57088190E-02   2.64093621E-02   947.52978903     7.90082134E-07   2.01878876E+17   1.61937842E+08   0.00000000E+00   1.14989126E+09   0.2890434       
  40               5.37031796E-02   3.01585717E-02   974.67773840     8.77104426E-07   2.24117393E+17   1.61937835E+08   0.00000000E+00   1.13564903E+09   0.28822911      
  41               6.30957344E-02   3.43740338E-02   1004.79120239    9.69729458E-07   2.47788140E+17   1.61937827E+08   0.00000000E+00   1.12119481E+09   0.2873711       
  42               7.41310241E-02   3.90980532E-02   1035.75316983    1.07001903E-06   2.73416489E+17   1.61937818E+08   0.00000000E+00   1.10652952E+09   0.28653376      
  43               8.70963590E-02   4.43671223E-02   1070.37751704    1.17493551E-06   3.00227260E+17   1.61937809E+08   0.00000000E+00   1.09166909E+09   0.28568686      
  44               1.02329299E-01   5.01972634E-02   1108.78117649    1.28328212E-06   3.27914058E+17   1.61700167E+08   2.42040544E+05   1.07665459E+09   0.28482168      
  45               1.20226443E-01   5.66121417E-02   1147.32693880    1.39865050E-06   3.57394804E+17   1.61112041E+08   8.29307634E+05   1.06151295E+09   0.28388813      
  46               1.41253754E-01   6.36811515E-02   1186.27371422    1.52164040E-06   3.88822905E+17   1.60246978E+08   1.69473175E+06   1.04618980E+09   0.28285497      
  47               1.65958691E-01   7.14798272E-02   1225.57450071    1.65321462E-06   4.22444458E+17   1.59105178E+08   2.83569623E+06   1.03064088E+09   0.28165553      
  48               1.94984460E-01   8.00800044E-02   1265.38248718    1.79385518E-06   4.58382584E+17   1.57656194E+08   4.28513599E+06   1.01484844E+09   0.28025929      
  49               2.29086765E-01   8.95506859E-02   1305.51860212    1.94433732E-06   4.96834438E+17   1.55866755E+08   6.07499999E+06   9.98812214E+08   0.27883435      
  50               2.69153480E-01   9.99590360E-02   1346.12205852    2.10487463E-06   5.37852830E+17   1.53714103E+08   8.22810740E+06   9.82542353E+08   0.27765654      
  51               3.16227766E-01   1.11369680E-01   1387.04084214    2.27604428E-06   5.81572096E+17   1.51179668E+08   1.07628564E+07   9.66056565E+08   0.2762933       
  52               3.71535229E-01   1.23869769E-01   1428.34463462    2.45844215E-06   6.28142475E+17   1.48259110E+08   1.36838276E+07   9.49345731E+08   0.27448901      
  53               4.36515832E-01   1.37537867E-01   1469.81339959    2.65350403E-06   6.77775587E+17   1.44911417E+08   1.70322484E+07   9.32422181E+08   0.2723064       
  54               5.12861384E-01   1.52350953E-01   1511.20403312    2.85889392E-06   7.30210224E+17   1.41056927E+08   2.08882666E+07   9.15414732E+08   0.27008487      
  55               6.02559586E-01   1.68102475E-01   1551.73014421    3.07281268E-06   7.84664041E+17   1.36644872E+08   2.53051403E+07   8.98608566E+08   0.26802958      
  56               7.07945784E-01   1.84317243E-01   1590.41427545    3.28834755E-06   8.39424305E+17   1.31698774E+08   3.02631065E+07   8.82477331E+08   0.26620233      
  57               8.31763771E-01   2.00051137E-01   1625.35079329    3.49580031E-06   8.91496734E+17   1.26488662E+08   3.54520388E+07   8.67800876E+08   0.26440823      
  58               9.77237221E-01   2.13963981E-01   1654.43756882    3.67311273E-06   9.36733658E+17   1.21725340E+08   4.02171742E+07   8.55522928E+08   0.26271951      
  59               1.14815362E+00   2.29341336E-01   1684.80487647    3.86594418E-06   9.85958343E+17   1.16752128E+08   4.52743134E+07   8.42618552E+08   0.26126669      
  60               1.34896288E+00   2.43246523E-01   1710.86741153    4.04121219E-06   1.02980768E+18   1.12170674E+08   4.98207570E+07   8.31492542E+08   0.25992471      
  61               1.58489319E+00   2.55020204E-01   1731.96875788    4.18509079E-06   1.06649881E+18   1.08298103E+08   5.35984597E+07   8.22439298E+08   0.25859977      
  62               1.86208714E+00   2.68103098E-01   1754.49733008    4.34315708E-06   1.10681481E+18   1.04206231E+08   5.76972339E+07   8.12735340E+08   0.25723345      
  63               2.18776162E+00   2.82586274E-01   1778.34635572    4.51620499E-06   1.15096085E+18   9.97691364E+07   6.21410142E+07   8.02394052E+08   0.25595798      
  64               2.57039578E+00   2.98546720E-01   1803.51130103    4.70446811E-06   1.19900025E+18   9.49136276E+07   6.70029138E+07   7.91444321E+08   0.25466946      
  65               3.01995172E+00   3.16027751E-01   1829.77367045    4.90815233E-06   1.25098956E+18   8.96114413E+07   7.23134336E+07   7.79940201E+08   0.25321571      
  66               3.54813389E+00   3.35006664E-01   1856.95369543    5.12637165E-06   1.30670698E+18   8.40042607E+07   7.79281253E+07   7.67975330E+08   0.25153438      
  67               4.16869383E+00   3.55476183E-01   1884.76971414    5.35883984E-06   1.36608604E+18   7.85072279E+07   8.34242404E+07   7.55625298E+08   0.2496461       
  68               4.89778819E+00   3.77774351E-01   1913.54524097    5.60871788E-06   1.42994579E+18   7.34354149E+07   8.84932802E+07   7.42763459E+08   0.24754593      
  69               5.75439937E+00   4.02313880E-01   1943.46419979    5.88029455E-06   1.49938897E+18   6.86446370E+07   9.32863734E+07   7.29250945E+08   0.2452298       
  70               6.76082975E+00   4.29282995E-01   1974.52850284    6.17474530E-06   1.57473006E+18   6.39472741E+07   9.79858687E+07   7.15097598E+08   0.24260789      
  71               7.94328235E+00   4.58888691E-01   2006.55666898    6.49394200E-06   1.65646310E+18   5.93151692E+07   1.02619656E+08   7.00312869E+08   0.23966836      
  72               9.33254301E+00   4.91359281E-01   2039.54324184    6.83936023E-06   1.74498656E+18   5.47633441E+07   1.07172721E+08   6.84905432E+08   0.23637994      
  73               1.09647820E+01   5.26948857E-01   2073.29065570    7.21332046E-06   1.84091661E+18   5.03366894E+07   1.11600188E+08   6.68882206E+08   0.23283399      
  74               1.28824955E+01   5.65938805E-01   2107.81909001    7.61761112E-06   1.94474194E+18   4.60681837E+07   1.15869104E+08   6.52248902E+08   0.22899952      
  75               1.51356125E+01   6.08639434E-01   2142.91380148    8.05507713E-06   2.05722231E+18   4.19820273E+07   1.19955430E+08   6.35010647E+08   0.22495653      
  76               1.77827941E+01   6.55392207E-01   2178.61738601    8.52783804E-06   2.17894439E+18   3.80908657E+07   1.23846473E+08   6.17172211E+08   0.22066731      
  77               2.08929613E+01   7.06572823E-01   2214.69354072    9.03935221E-06   2.31083603E+18   3.44071737E+07   1.27529775E+08   5.98738129E+08   0.21619953      
  78               2.45470892E+01   7.62593704E-01   2251.20555509    9.59213227E-06   2.45360079E+18   3.09321829E+07   1.31004308E+08   5.79712971E+08   0.21146865      
  79               2.88403150E+01   8.23908024E-01   2287.87756516    1.01904505E-05   2.60838559E+18   2.76674747E+07   1.34269493E+08   5.60101390E+08   0.20645556      
  80               3.38844156E+01   8.91017816E-01   2324.76607450    1.08375013E-05   2.77608633E+18   2.45899932E+07   1.37347762E+08   5.39907035E+08   0.20126332      
  81               3.98107171E+01   9.64354064E-01   2361.56198111    1.15383487E-05   2.95776051E+18   2.17340153E+07   1.40203251E+08   5.19167449E+08   0.19618849      
  82               4.67735141E+01   1.04450813E+00   2398.44318904    1.22939721E-05   3.15433800E+18   1.91993071E+07   1.42737509E+08   4.97885390E+08   0.19120863      
  83               5.49540874E+01   1.13224827E+00   2435.20366078    1.31124453E-05   3.36769085E+18   1.69462818E+07   1.44991345E+08   4.76032110E+08   0.18626827      
  84               6.45654229E+01   1.22827645E+00   2471.99197057    1.39976572E-05   3.59894251E+18   1.48937737E+07   1.47045241E+08   4.53617266E+08   0.18144456      
  85               7.58577575E+01   1.33334286E+00   2508.56116691    1.49560755E-05   3.84984269E+18   1.30415022E+07   1.48899479E+08   4.30653977E+08   0.17691764      
  86               8.91250938E+01   1.44827819E+00   2545.14734211    1.59917136E-05   4.12159109E+18   1.14077859E+07   1.50535932E+08   4.07152012E+08   0.17249495      
  87               1.04712855E+02   1.57398367E+00   2581.43005385    1.71127294E-05   4.41637252E+18   9.97036192E+06   1.51977095E+08   3.83121999E+08   0.1682434       
  88               1.23026877E+02   1.71142819E+00   2617.68425620    1.83234658E-05   4.73551548E+18   8.71863912E+06   1.53233868E+08   3.58576543E+08   0.16421043      
  89               1.44543977E+02   1.86165546E+00   2653.60532305    1.96330370E-05   5.08146360E+18   7.62855927E+06   1.54330564E+08   3.33529395E+08   0.16050933      
  90               1.69824365E+02   2.02578130E+00   2689.53249873    2.10456933E-05   5.45558846E+18   6.67732844E+06   1.55290385E+08   3.07995987E+08   0.15691126      
  91               1.99526231E+02   2.20500338E+00   2725.05542693    2.25726045E-05   5.86083858E+18   5.84354876E+06   1.56135196E+08   2.81992830E+08   0.15352801      
  92               2.34422882E+02   2.40060333E+00   2760.57933952    2.42178791E-05   6.29862874E+18   5.12066935E+06   1.56872158E+08   2.55537272E+08   0.15038774      
  93               2.75422870E+02   2.61394979E+00   2795.70298657    2.59939513E-05   6.77223549E+18   4.49153526E+06   1.57518979E+08   2.28647438E+08   0.14761819      
  94               3.23593657E+02   2.84649676E+00   2830.91029355    2.79041895E-05   7.28300193E+18   3.94543738E+06   1.58087191E+08   2.01342151E+08   0.14504619      
  95               3.80189396E+02   3.09979789E+00   2865.71494679    2.99633797E-05   7.83476960E+18   3.46637990E+06   1.58593625E+08   1.73639986E+08   0.14270227      
  96               4.46683592E+02   3.37551338E+00   2900.63638188    3.21745950E-05   8.42892876E+18   3.05053695E+06   1.59043168E+08   1.45558768E+08   0.14052777      
  97               5.24807460E+02   3.67542795E+00   2935.15671780    3.45550025E-05   9.06989916E+18   2.68695385E+06   1.59447733E+08   1.17114680E+08   0.13859502      
  98               6.16595002E+02   4.00145870E+00   2969.85402714    3.71070602E-05   9.75908442E+18   2.37189182E+06   1.59812251E+08   8.83220501E+07   0.13679685      
  99               7.24435960E+02   4.35565689E+00   3004.15203464    3.98510966E-05   1.05016513E+19   2.09446473E+06   1.60148391E+08   5.91944886E+07   0.13515871      
  100              8.51138038E+02   4.74018803E+00   3038.65892837    4.27887726E-05   1.12989856E+19   1.85204350E+06   1.60459336E+08   2.97466970E+07   0.13362998      
  101              1.00000000E+03   5.15725470E+00   3072.75365008    4.59425941E-05   1.21567274E+19   1.72950460E+06   1.60634624E+08   0.00000000E+00   0.132289        
