# ATMO pressure-temperature profile
# Effective temperature = 800.0K
# log(g) = 3.0cm/s^2
# M/H = 0.0
# Optical depth grid in band 17 (1.20-1.33microns)
# All parameters in cgs units
#
# Model Level      Optical Depth    Pressure         Temperature      Density          Number Density   Rad Flux         Conv Flux        Radial Extension Adiabatic Gradient
#                                   [Ba]             [K]              [g/cm^3]         [/cm^3]          [ergs/s/cm^2/sr] [ergs/s/cm^2/sr] [cm]             [K/Ba]          
  1                1.00000000E-04   1.00000000E-05   230.54652226     1.22891475E-09   3.14171846E+14   2.32237223E+07   0.00000000E+00   3.92913414E+08   0.30900939      
  2                1.17489755E-04   1.01591396E-04   273.90287549     1.05084970E-08   2.68649587E+15   2.32237223E+07   0.00000000E+00   3.67426134E+08   0.30375844      
  3                1.38038426E-04   2.00823416E-04   294.12164921     1.93449450E-08   4.94553407E+15   2.32237223E+07   0.00000000E+00   3.60466317E+08   0.30332435      
  4                1.62181010E-04   3.13103374E-04   305.99857405     2.89900032E-08   7.41129644E+15   2.32237223E+07   0.00000000E+00   3.55725051E+08   0.30259805      
  5                1.90546072E-04   4.41693042E-04   316.88130409     3.94915099E-08   1.00960102E+16   2.32237223E+07   0.00000000E+00   3.51924644E+08   0.30207747      
  6                2.23872114E-04   5.89678970E-04   324.94759850     5.14140490E-08   1.31440181E+16   2.32237223E+07   0.00000000E+00   3.48640459E+08   0.30173095      
  7                2.63026799E-04   7.60433039E-04   333.89371076     6.45256133E-08   1.64959974E+16   2.32237223E+07   0.00000000E+00   3.45675873E+08   0.30141396      
  8                3.09029543E-04   9.57716936E-04   341.07087638     7.95557419E-08   2.03384743E+16   2.32237223E+07   0.00000000E+00   3.42922343E+08   0.30117819      
  9                3.63078055E-04   1.18589532E-03   349.38076581     9.61670161E-08   2.45851692E+16   2.32237223E+07   0.00000000E+00   3.40313633E+08   0.30095222      
  10               4.26579519E-04   1.45002492E-03   356.08920167     1.15370607E-07   2.94945994E+16   2.32237223E+07   0.00000000E+00   3.37806044E+08   0.30078317      
  11               5.01187234E-04   1.75599958E-03   364.01081361     1.36674792E-07   3.49410509E+16   2.32237223E+07   0.00000000E+00   3.35369391E+08   0.30061677      
  12               5.88843655E-04   2.11064984E-03   370.38120020     1.61452582E-07   4.12755713E+16   2.32237223E+07   0.00000000E+00   3.32981945E+08   0.30049223      
  13               6.91830971E-04   2.52192488E-03   378.00963905     1.89020235E-07   4.83231360E+16   2.32237223E+07   0.00000000E+00   3.30627676E+08   0.30036473      
  14               8.12830516E-04   2.99898036E-03   384.26161317     2.21118534E-07   5.65291506E+16   2.32237223E+07   0.00000000E+00   3.28294207E+08   0.30026774      
  15               9.54992586E-04   3.55240023E-03   391.96632081     2.56774250E-07   6.56445956E+16   2.32237223E+07   0.00000000E+00   3.25971649E+08   0.30016679      
  16               1.12201845E-03   4.19438092E-03   398.37981733     2.98296652E-07   7.62599261E+16   2.32237223E+07   0.00000000E+00   3.23652002E+08   0.30008605      
  17               1.31825674E-03   4.93895829E-03   406.41282023     3.44306789E-07   8.80225202E+16   2.32237223E+07   0.00000000E+00   3.21328661E+08   0.29999984      
  18               1.54881662E-03   5.80224332E-03   413.23958788     3.97805445E-07   1.01699743E+17   2.32237223E+07   0.00000000E+00   3.18996030E+08   0.29993003      
  19               1.81970086E-03   6.80279790E-03   421.83266144     4.56912251E-07   1.16808166E+17   2.32237223E+07   0.00000000E+00   3.16649150E+08   0.29985373      
  20               2.13796209E-03   7.96217734E-03   429.23927477     5.25553978E-07   1.34356361E+17   2.32237223E+07   0.00000000E+00   3.14283227E+08   0.29978907      
  21               2.51188643E-03   9.30521236E-03   438.49454479     6.01238471E-07   1.53704978E+17   2.32237223E+07   0.00000000E+00   3.11894012E+08   0.29972153      
  22               2.95120923E-03   1.08600529E-02   446.82128866     6.88624271E-07   1.76045093E+17   2.32237223E+07   0.00000000E+00   3.09477598E+08   0.29965981      
  23               3.46736850E-03   1.26579239E-02   457.55444574     7.83802048E-07   2.00375925E+17   2.32237223E+07   0.00000000E+00   3.07030424E+08   0.29967132      
  24               4.07380278E-03   1.47350778E-02   466.77345196     8.94399463E-07   2.28650485E+17   2.32237223E+07   0.00000000E+00   3.04549579E+08   0.29963425      
  25               4.78630092E-03   1.71363599E-02   477.39810885     1.01706955E-06   2.59994237E+17   2.32237223E+07   0.00000000E+00   3.02031865E+08   0.29953147      
  26               5.62341325E-03   1.99109635E-02   487.19194595     1.15798912E-06   2.96017929E+17   2.32237223E+07   0.00000000E+00   2.99475202E+08   0.29940612      
  27               6.60693448E-03   2.31142560E-02   498.63404151     1.31343942E-06   3.35756040E+17   2.32237223E+07   0.00000000E+00   2.96877799E+08   0.29932832      
  28               7.76247117E-03   2.68086830E-02   509.49612082     1.49089213E-06   3.81118857E+17   2.32237223E+07   0.00000000E+00   2.94237708E+08   0.29929397      
  29               9.12010839E-03   3.10662519E-02   522.11681584     1.68590288E-06   4.30969978E+17   2.32237223E+07   0.00000000E+00   2.91552226E+08   0.29927058      
  30               1.07151931E-02   3.59699041E-02   534.21980265     1.90778879E-06   4.87691445E+17   2.32237223E+07   0.00000000E+00   2.88817976E+08   0.29922379      
  31               1.25892541E-02   4.16128060E-02   548.25567700     2.15057513E-06   5.49755653E+17   2.32237223E+07   0.00000000E+00   2.86032111E+08   0.29915264      
  32               1.47910839E-02   4.80978877E-02   562.07456919     2.42461333E-06   6.19809041E+17   2.32237224E+07   0.00000000E+00   2.83192120E+08   0.29906587      
  33               1.73780083E-02   5.55396082E-02   578.14193424     2.72193987E-06   6.95815630E+17   2.32237224E+07   0.00000000E+00   2.80295358E+08   0.29895467      
  34               2.04173794E-02   6.40639130E-02   594.25379746     3.05457923E-06   7.80849498E+17   2.32237224E+07   0.00000000E+00   2.77339089E+08   0.29882676      
  35               2.39883292E-02   7.38067332E-02   612.84703603     3.41235002E-06   8.72307754E+17   2.32237224E+07   0.00000000E+00   2.74321346E+08   0.2986743       
  36               2.81838293E-02   8.49120474E-02   631.84626193     3.80774028E-06   9.73382943E+17   2.32237224E+07   0.00000000E+00   2.71240497E+08   0.29850546      
  37               3.31131121E-02   9.75472578E-02   653.74112440     4.22783955E-06   1.08077452E+18   2.32237224E+07   0.00000000E+00   2.68091374E+08   0.29830778      
  38               3.89045145E-02   1.11894496E-01   676.51655941     4.68640005E-06   1.19799811E+18   2.32237224E+07   0.00000000E+00   2.64868158E+08   0.29807229      
  39               4.57088190E-02   1.28143290E-01   702.56795442     5.16792935E-06   1.32109294E+18   2.32237221E+07   0.00000000E+00   2.61566416E+08   0.29775265      
  40               5.37031796E-02   1.46460834E-01   731.06304676     5.67644100E-06   1.45108385E+18   2.31576232E+07   6.61280441E+04   2.58184436E+08   0.2973535       
  41               6.30957344E-02   1.67033804E-01   760.18073484     6.22586154E-06   1.59152459E+18   2.30071127E+07   2.20535454E+05   2.54723770E+08   0.29685242      
  42               7.41310241E-02   1.90106516E-01   789.91822794     6.81913382E-06   1.74317387E+18   2.28027759E+07   4.27592667E+05   2.51182698E+08   0.29639194      
  43               8.70963590E-02   2.15998128E-01   820.36925829     7.46027277E-06   1.90706919E+18   2.25707407E+07   6.68594988E+05   2.47552610E+08   0.29578751      
  44               1.02329299E-01   2.45037263E-01   851.51108270     8.15371732E-06   2.08433570E+18   2.23381647E+07   8.85547630E+05   2.43829306E+08   0.2951571       
  45               1.20226443E-01   2.77543014E-01   883.38155731     8.90216608E-06   2.27566229E+18   2.21256367E+07   1.09807616E+06   2.40013953E+08   0.29431515      
  46               1.41253754E-01   3.13820607E-01   915.83343215     9.70911106E-06   2.48193729E+18   2.19529160E+07   1.27079544E+06   2.36111828E+08   0.29350104      
  47               1.65958691E-01   3.54182063E-01   948.92346493     1.05759664E-05   2.70346789E+18   2.18380332E+07   1.38567660E+06   2.32128751E+08   0.29249297      
  48               1.94984460E-01   3.99090964E-01   982.54408768     1.15090212E-05   2.94202046E+18   2.17976585E+07   1.42604710E+06   2.28058199E+08   0.2915669       
  49               2.29086765E-01   4.49045899E-01   1016.91159279    1.25117072E-05   3.19840441E+18   2.18300434E+07   1.42966459E+06   2.23895251E+08   0.29043288      
  50               2.69153480E-01   5.04559680E-01   1051.79631072    1.35918401E-05   3.47461539E+18   2.19299740E+07   1.31396577E+06   2.19638252E+08   0.28941697      
  51               3.16227766E-01   5.66138459E-01   1087.44989435    1.47501771E-05   3.77084988E+18   2.20816918E+07   1.18788348E+06   2.15289210E+08   0.28817385      
  52               3.71535229E-01   6.34291460E-01   1123.49343836    1.59951912E-05   4.08925472E+18   2.22782530E+07   9.79031766E+05   2.10852186E+08   0.28703671      
  53               4.36515832E-01   7.09613359E-01   1160.29465004    1.73265727E-05   4.42975118E+18   2.25077184E+07   7.28077711E+05   2.06327687E+08   0.28567349      
  54               5.12861384E-01   7.92930401E-01   1197.47438633    1.87593776E-05   4.79617119E+18   2.27650710E+07   4.62681666E+05   2.01706342E+08   0.28439113      
  55               6.02559586E-01   8.85116625E-01   1235.56124068    2.02944592E-05   5.18874182E+18   2.30301953E+07   2.09442458E+05   1.96981707E+08   0.28285397      
  56               7.07945784E-01   9.87195236E-01   1274.04608530    2.19509121E-05   5.61233715E+18   2.32237190E+07   0.00000000E+00   1.92145334E+08   0.2815775       
  57               8.31763771E-01   1.10044287E+00   1312.57875856    2.37502997E-05   6.07250621E+18   2.32237222E+07   0.00000000E+00   1.87185485E+08   0.28009596      
  58               9.77237221E-01   1.22667836E+00   1349.02575915    2.57589251E-05   6.58622101E+18   2.32237222E+07   0.00000000E+00   1.82081807E+08   0.27893332      
  59               1.14815362E+00   1.36809073E+00   1386.40652018    2.79530407E-05   7.14743392E+18   2.32237223E+07   0.00000000E+00   1.76811820E+08   0.27760467      
  60               1.34896288E+00   1.52725411E+00   1422.18580480    3.04191637E-05   7.77823037E+18   2.32237223E+07   0.00000000E+00   1.71353541E+08   0.27643547      
  61               1.58489319E+00   1.70648725E+00   1459.55131986    3.31194807E-05   8.46855899E+18   2.32237223E+07   0.00000000E+00   1.65706670E+08   0.27493638      
  62               1.86208714E+00   1.90729518E+00   1496.11643257    3.61117914E-05   9.23375525E+18   2.32237224E+07   0.00000000E+00   1.59900159E+08   0.27365806      
  63               2.18776162E+00   2.12935764E+00   1535.27322743    3.92915072E-05   1.00458982E+19   2.32237223E+07   0.00000000E+00   1.54004848E+08   0.27209273      
  64               2.57039578E+00   2.36814493E+00   1574.45688236    4.26250557E-05   1.08944007E+19   2.32237002E+07   0.00000000E+00   1.48169745E+08   0.27074545      
  65               3.01995172E+00   2.61889933E+00   1617.59719469    4.58838401E-05   1.17266580E+19   2.27682600E+07   4.75494951E+05   1.42499677E+08   0.2690875       
  66               3.54813389E+00   2.87567339E+00   1658.91233643    4.91373527E-05   1.25557298E+19   2.11199420E+07   2.10377927E+06   1.37091857E+08   0.26766726      
  67               4.16869383E+00   3.12514118E+00   1695.95553204    5.22515882E-05   1.33469189E+19   1.88568298E+07   4.36690091E+06   1.32168432E+08   0.26619662      
  68               4.89778819E+00   3.35363560E+00   1728.22220706    5.50596051E-05   1.40553650E+19   1.63741439E+07   6.84959588E+06   1.27908274E+08   0.26505035      
  69               5.75439937E+00   3.55192102E+00   1754.48688745    5.74832090E-05   1.46635462E+19   1.43025819E+07   8.92114953E+06   1.24383623E+08   0.26393903      
  70               6.76082975E+00   3.76226956E+00   1781.47479640    5.99640275E-05   1.52966407E+19   1.26165083E+07   1.06072020E+07   1.20800813E+08   0.26292101      
  71               7.94328235E+00   3.94254870E+00   1803.28600344    6.20968248E-05   1.58357375E+19   1.11615650E+07   1.20621313E+07   1.17846298E+08   0.26188105      
  72               9.33254301E+00   4.08400375E+00   1820.17264264    6.37272569E-05   1.62517222E+19   1.02068837E+07   1.30168101E+07   1.15597651E+08   0.26121559      
  73               1.09647820E+01   4.24309153E+00   1838.22722261    6.55584539E-05   1.67189518E+19   9.62067841E+06   1.36030157E+07   1.13136377E+08   0.26028917      
  74               1.28824955E+01   4.42136517E+00   1858.16921002    6.75785668E-05   1.72344316E+19   9.08356842E+06   1.41401265E+07   1.10458020E+08   0.25946915      
  75               1.51356125E+01   4.62035871E+00   1879.30939169    6.98216931E-05   1.78075122E+19   8.22110773E+06   1.50025882E+07   1.07561080E+08   0.25833022      
  76               1.77827941E+01   4.77209573E+00   1895.17816644    7.15708414E-05   1.82383247E+19   7.19059782E+06   1.60331015E+07   1.05414359E+08   0.25766291      
  77               2.08929613E+01   4.88391314E+00   1906.36595763    7.28170101E-05   1.85561339E+19   6.56980645E+06   1.66538973E+07   1.03865453E+08   0.2570033       
  78               2.45470892E+01   5.01116938E+00   1919.13924332    7.42159166E-05   1.89129135E+19   6.26381104E+06   1.69598944E+07   1.02134385E+08   0.25650093      
  79               2.88403150E+01   5.15548279E+00   1933.01272630    7.58037999E-05   1.93179247E+19   5.98262569E+06   1.72410818E+07   1.00210351E+08   0.25569037      
  80               3.38844156E+01   5.31844769E+00   1948.56699900    7.75740747E-05   1.97694865E+19   5.70873536E+06   1.75149745E+07   9.80851964E+07   0.25503489      
  81               3.98107171E+01   5.50168623E+00   1965.32241238    7.95605053E-05   2.02762600E+19   5.41753043E+06   1.78061824E+07   9.57527595E+07   0.25402461      
  82               4.67735141E+01   5.70701804E+00   1983.78710802    8.17591961E-05   2.08372317E+19   5.13187364E+06   1.80918427E+07   9.32068710E+07   0.25316971      
  83               5.49540874E+01   5.93613738E+00   2003.50701350    8.42013893E-05   2.14604545E+19   4.86175202E+06   1.83619677E+07   9.04454410E+07   0.25191623      
  84               6.45654229E+01   6.19261961E+00   2025.02195189    8.69023218E-05   2.21498356E+19   4.63058565E+06   1.85931369E+07   8.74470916E+07   0.25086122      
  85               7.58577575E+01   6.47892929E+00   2047.97126261    8.98965746E-05   2.29142276E+19   4.38652059E+06   1.88372044E+07   8.42078070E+07   0.24937413      
  86               8.91250938E+01   6.79767878E+00   2072.65210512    9.31902614E-05   2.37552752E+19   4.14827424E+06   1.90754528E+07   8.07252913E+07   0.24808211      
  87               1.04712855E+02   7.15165595E+00   2098.78468528    9.68150031E-05   2.46811031E+19   3.90300519E+06   1.93207235E+07   7.69986365E+07   0.2463029       
  88               1.23026877E+02   7.54389533E+00   2126.51477752    1.00784278E-04   2.56952643E+19   3.66722151E+06   1.95565081E+07   7.30277811E+07   0.24475175      
  89               1.44543977E+02   7.97766243E+00   2155.69096240    1.05125848E-04   2.68049495E+19   3.42957361E+06   1.97941563E+07   6.88136679E+07   0.24273164      
  90               1.69824365E+02   8.45652837E+00   2186.28874857    1.09863103E-04   2.80162775E+19   3.20132904E+06   2.00224003E+07   6.43577812E+07   0.24092993      
  91               1.99526231E+02   8.98436603E+00   2218.30781138    1.15019278E-04   2.93353631E+19   2.97321866E+06   2.02505095E+07   5.96621913E+07   0.23854798      
  92               2.34422882E+02   9.56545193E+00   2251.50807996    1.20632606E-04   3.07721488E+19   2.75561581E+06   2.04681106E+07   5.47290465E+07   0.2364226       
  93               2.75422870E+02   1.02044486E+01   2286.10908602    1.26718464E-04   3.23309475E+19   2.53693459E+06   2.06867896E+07   4.95607467E+07   0.23366043      
  94               3.23593657E+02   1.09061519E+01   2321.58551674    1.33346393E-04   3.40261409E+19   2.32704924E+06   2.08966724E+07   4.41624422E+07   0.23131079      
  95               3.80189396E+02   1.16762273E+01   2358.47942307    1.40492315E-04   3.58588444E+19   2.12757579E+06   2.10961433E+07   3.85362027E+07   0.22824992      
  96               4.46683592E+02   1.25213389E+01   2395.93692321    1.48262377E-04   3.78530806E+19   1.94545853E+06   2.12782580E+07   3.26805635E+07   0.22572534      
  97               5.24807460E+02   1.34483567E+01   2434.91907245    1.56636681E-04   4.00046548E+19   1.77034972E+06   2.14533646E+07   2.65974179E+07   0.22239495      
  98               6.16595002E+02   1.44649582E+01   2474.07285572    1.65749033E-04   4.23477692E+19   1.60798849E+06   2.16157237E+07   2.02881204E+07   0.2197865       
  99               7.24435960E+02   1.55796816E+01   2514.93603869    1.75545467E-04   4.48701449E+19   1.45426741E+06   2.17694432E+07   1.37530582E+07   0.21624657      
  100              8.51138038E+02   1.68022202E+01   2555.52180336    1.86226176E-04   4.76225802E+19   1.28817168E+06   2.19355379E+07   6.99144333E+06   0.20889143      
  101              1.00000000E+03   1.81441883E+01   2596.27997488    1.97840971E-04   5.06188017E+19   1.21378195E+06   2.20099267E+07   0.00000000E+00   0.205921        
