# ATMO pressure-temperature profile
# Effective temperature = 1600.0K
# log(g) = 3.0cm/s^2
# M/H = 0.0
# Optical depth grid in band 17 (1.20-1.33microns)
# All parameters in cgs units
#
# Model Level      Optical Depth    Pressure         Temperature      Density          Number Density   Rad Flux         Conv Flux        Radial Extension Adiabatic Gradient
#                                   [Ba]             [K]              [g/cm^3]         [/cm^3]          [ergs/s/cm^2/sr] [ergs/s/cm^2/sr] [cm]             [K/Ba]          
  1                1.00000000E-05   1.00000000E-05   383.20828150     7.39841958E-10   1.89012686E+14   3.71582526E+08   0.00000000E+00   6.48802304E+08   0.29799385      
  2                1.20226443E-05   1.66047887E-05   462.76731564     1.01729662E-09   2.59894156E+14   3.71582526E+08   0.00000000E+00   6.41189106E+08   0.29792956      
  3                1.44543977E-05   2.38526355E-05   494.87223930     1.36653288E-09   3.49115490E+14   3.71582526E+08   0.00000000E+00   6.35041936E+08   0.29777049      
  4                1.73780083E-05   3.22229338E-05   515.78728342     1.77121455E-09   4.52501776E+14   3.71582526E+08   0.00000000E+00   6.29661774E+08   0.29760513      
  5                2.08929613E-05   4.20071588E-05   533.05303964     2.23423784E-09   5.70793112E+14   3.71582526E+08   0.00000000E+00   6.24743348E+08   0.29742029      
  6                2.51188643E-05   5.35087089E-05   547.47661200     2.77099211E-09   7.07920910E+14   3.71582526E+08   0.00000000E+00   6.20120879E+08   0.29723511      
  7                3.01995172E-05   6.70633102E-05   561.67631479     3.38512721E-09   8.64817990E+14   3.71582527E+08   0.00000000E+00   6.15695182E+08   0.29702822      
  8                3.63078055E-05   8.30575362E-05   574.42732153     4.09939458E-09   1.04729685E+15   3.71582527E+08   0.00000000E+00   6.11401639E+08   0.296825        
  9                4.36515832E-05   1.01945706E-04   587.43464436     4.92022193E-09   1.25699983E+15   3.71582527E+08   0.00000000E+00   6.07195944E+08   0.29697338      
  10               5.24807460E-05   1.24263799E-04   599.20579496     5.87953603E-09   1.50208484E+15   3.71582527E+08   0.00000000E+00   6.03046469E+08   0.29682195      
  11               6.30957344E-05   1.50644027E-04   611.48091808     6.98462082E-09   1.78441082E+15   3.71582527E+08   0.00000000E+00   5.98929896E+08   0.29665457      
  12               7.58577575E-05   1.81830973E-04   622.71461315     8.27848348E-09   2.11497211E+15   3.71582527E+08   0.00000000E+00   5.94828554E+08   0.29649622      
  13               9.12010839E-05   2.18718447E-04   634.59192695     9.77152470E-09   2.49641458E+15   3.71582528E+08   0.00000000E+00   5.90727243E+08   0.29632058      
  14               1.09647820E-04   2.62373451E-04   645.57641751     1.15223377E-08   2.94373065E+15   3.71582528E+08   0.00000000E+00   5.86613070E+08   0.29615374      
  15               1.31825674E-04   3.14054634E-04   657.35228884     1.35448224E-08   3.46045229E+15   3.71582528E+08   0.00000000E+00   5.82476161E+08   0.29596661      
  16               1.58489319E-04   3.75246479E-04   668.29957752     1.59186990E-08   4.06697290E+15   3.71582529E+08   0.00000000E+00   5.78308877E+08   0.29578797      
  17               1.90546072E-04   4.47700352E-04   680.09263135     1.86627485E-08   4.76809837E+15   3.71582529E+08   0.00000000E+00   5.74105290E+08   0.29558701      
  18               2.29086765E-04   5.33481585E-04   691.05233049     2.18856757E-08   5.59157735E+15   3.71582530E+08   0.00000000E+00   5.69860810E+08   0.29539495      
  19               2.75422870E-04   6.35021996E-04   702.92896103     2.56107573E-08   6.54339551E+15   3.71582530E+08   0.00000000E+00   5.65571892E+08   0.29517738      
  20               3.31131121E-04   7.55177629E-04   714.04391955     2.99822689E-08   7.66037501E+15   3.71582531E+08   0.00000000E+00   5.61235778E+08   0.29496815      
  21               3.98107171E-04   8.97297300E-04   726.20105998     3.50278569E-08   8.94963497E+15   3.71582532E+08   0.00000000E+00   5.56850318E+08   0.29473075      
  22               4.78630092E-04   1.06530389E-03   737.63168556     4.09414861E-08   1.04606769E+16   3.71582533E+08   0.00000000E+00   5.52413846E+08   0.29450348      
  23               5.75439937E-04   1.26378726E-03   750.16727208     4.77573218E-08   1.22023001E+16   3.71582534E+08   0.00000000E+00   5.47925127E+08   0.29424596      
  24               6.91830971E-04   1.49812451E-03   762.01843344     5.57317559E-08   1.42399437E+16   3.71582535E+08   0.00000000E+00   5.43382888E+08   0.29399698      
  25               8.31763771E-04   1.77478994E-03   775.05302391     6.49130698E-08   1.65859894E+16   3.71582537E+08   0.00000000E+00   5.38783102E+08   0.29371422      
  26               1.00000000E-03   2.10141925E-03   787.47369373     7.56466266E-08   1.93286932E+16   3.71582538E+08   0.00000000E+00   5.34121938E+08   0.29343977      
  27               1.20226443E-03   2.48691179E-03   801.23471283     8.79859164E-08   2.24815611E+16   3.71582540E+08   0.00000000E+00   5.29396795E+08   0.2931278       
  28               1.44543977E-03   2.94162844E-03   814.51199839     1.02376326E-07   2.61587007E+16   3.71582542E+08   0.00000000E+00   5.24605703E+08   0.29282035      
  29               1.73780083E-03   3.47757692E-03   829.30403467     1.18870143E-07   3.03730781E+16   3.71582544E+08   0.00000000E+00   5.19747371E+08   0.29247149      
  30               2.08929613E-03   4.10856132E-03   843.72343577     1.38039604E-07   3.52708154E+16   3.71582547E+08   0.00000000E+00   5.14821527E+08   0.29212737      
  31               2.51188643E-03   4.85056008E-03   859.74521868     1.59931042E-07   4.08646664E+16   3.71582549E+08   0.00000000E+00   5.09827682E+08   0.29173746      
  32               3.01995172E-03   5.72180901E-03   875.57841914     1.85244989E-07   4.73330128E+16   3.71582552E+08   0.00000000E+00   5.04765909E+08   0.29134665      
  33               3.63078055E-03   6.74280731E-03   893.36862063     2.13951503E-07   5.46683410E+16   3.71582555E+08   0.00000000E+00   4.99637364E+08   0.29090092      
  34               4.36515832E-03   7.93655995E-03   911.10712876     2.46925545E-07   6.30940922E+16   3.71582557E+08   0.00000000E+00   4.94443702E+08   0.29043636      
  35               5.24807460E-03   9.32892901E-03   930.85507415     2.84086511E-07   7.25897929E+16   3.71582559E+08   0.00000000E+00   4.89186603E+08   0.29026367      
  36               6.30957344E-03   1.09512433E-02   950.54971667     3.26578652E-07   8.34477118E+16   3.71582561E+08   0.00000000E+00   4.83860423E+08   0.28963184      
  37               7.58577575E-03   1.28396929E-02   972.47301747     3.74260955E-07   9.56319292E+16   3.71582562E+08   0.00000000E+00   4.78458800E+08   0.28884719      
  38               9.12010839E-03   1.50345945E-02   994.56286766     4.28504691E-07   1.09492739E+17   3.71582563E+08   0.00000000E+00   4.72977923E+08   0.28802611      
  39               1.09647820E-02   1.75804767E-02   1019.03249510    4.89032155E-07   1.24959262E+17   3.71582563E+08   0.00000000E+00   4.67416424E+08   0.28713311      
  40               1.31825674E-02   2.05252725E-02   1043.98758677    5.57297922E-07   1.42403097E+17   3.71582562E+08   0.00000000E+00   4.61775597E+08   0.2862996       
  41               1.58489319E-02   2.39193473E-02   1071.79986061    6.32599065E-07   1.61644699E+17   3.71582561E+08   0.00000000E+00   4.56059317E+08   0.28539227      
  42               1.90546072E-02   2.78139385E-02   1100.60270786    7.16348140E-07   1.83044950E+17   3.71582557E+08   0.00000000E+00   4.50273888E+08   0.28454005      
  43               2.29086765E-02   3.22604943E-02   1132.51730197    8.07453947E-07   2.06325075E+17   3.71582552E+08   0.00000000E+00   4.44427295E+08   0.28367768      
  44               2.75422870E-02   3.73217840E-02   1165.49298260    9.07703101E-07   2.31941559E+17   3.71582545E+08   0.00000000E+00   4.38515349E+08   0.28277489      
  45               3.31131121E-02   4.30727896E-02   1201.87989616    1.01585692E-06   2.59577932E+17   3.71582536E+08   0.00000000E+00   4.32526330E+08   0.28163076      
  46               3.98107171E-02   4.95857510E-02   1240.01014352    1.13350097E-06   2.89639305E+17   3.71582525E+08   0.00000000E+00   4.26456852E+08   0.28025666      
  47               4.78630092E-02   5.69245286E-02   1282.64210880    1.25801005E-06   3.21454706E+17   3.71582514E+08   0.00000000E+00   4.20311158E+08   0.27861075      
  48               5.75439937E-02   6.51156037E-02   1331.32149008    1.38641936E-06   3.54264772E+17   3.71060355E+08   5.27868404E+05   4.14108861E+08   0.27682894      
  49               6.91830971E-02   7.41907640E-02   1380.25089808    1.52369461E-06   3.89329798E+17   3.69577989E+08   2.00430117E+06   4.07864878E+08   0.27476735      
  50               8.31763771E-02   8.42213386E-02   1428.86626492    1.67103253E-06   4.26929728E+17   3.67250163E+08   4.33140029E+06   4.01578574E+08   0.27254619      
  51               1.00000000E-01   9.52747145E-02   1477.65939644    1.82838114E-06   4.67013200E+17   3.64092040E+08   7.48839330E+06   3.95254666E+08   0.27036647      
  52               1.20226443E-01   1.07298336E-01   1525.59466565    1.99484007E-06   5.09424309E+17   3.60114549E+08   1.14647105E+07   3.88958684E+08   0.26837409      
  53               1.44543977E-01   1.19908024E-01   1571.78035258    2.16454702E-06   5.52563548E+17   3.55412496E+08   1.61641336E+07   3.82890117E+08   0.26676026      
  54               1.73780083E-01   1.32438623E-01   1613.77314752    2.33082489E-06   5.94426294E+17   3.50256801E+08   2.13163305E+07   3.77310830E+08   0.26527956      
  55               2.08929613E-01   1.44117022E-01   1650.41897214    2.47987512E-06   6.32480166E+17   3.45074003E+08   2.64986525E+07   3.72453315E+08   0.26390041      
  56               2.51188643E-01   1.54998154E-01   1682.22521672    2.61892506E-06   6.67372376E+17   3.39880715E+08   3.16936768E+07   3.68183101E+08   0.26262337      
  57               3.01995172E-01   1.64391404E-01   1708.51715885    2.73479987E-06   6.96924285E+17   3.35106337E+08   3.64685757E+07   3.64673224E+08   0.26119103      
  58               3.63078055E-01   1.74962434E-01   1736.35966829    2.86385972E-06   7.29845544E+17   3.29508583E+08   4.20677116E+07   3.60895944E+08   0.2595233       
  59               4.36515832E-01   1.86796104E-01   1766.17334643    3.00577179E-06   7.66055661E+17   3.22853418E+08   4.87245528E+07   3.56862590E+08   0.25761319      
  60               5.24807460E-01   1.99947358E-01   1797.16657861    3.16167348E-06   8.05848080E+17   3.14955258E+08   5.66253872E+07   3.52596485E+08   0.25540353      
  61               6.30957344E-01   2.14396304E-01   1829.51006467    3.32990319E-06   8.48805783E+17   3.05805693E+08   6.57786599E+07   3.48143379E+08   0.25304346      
  62               7.58577575E-01   2.30100552E-01   1862.26351390    3.51055477E-06   8.94957404E+17   2.95852275E+08   7.57346923E+07   3.43550185E+08   0.25037827      
  63               9.12010839E-01   2.47373428E-01   1896.31171039    3.70577878E-06   9.44863690E+17   2.85557482E+08   8.60307903E+07   3.38761254E+08   0.24741801      
  64               1.09647820E+00   2.66644532E-01   1931.51438274    3.92096075E-06   9.99909224E+17   2.74638433E+08   9.69504129E+07   3.33705655E+08   0.24404494      
  65               1.31825674E+00   2.88110437E-01   1968.27651216    4.15654232E-06   1.06022666E+18   2.62765775E+08   1.08821843E+08   3.28388378E+08   0.2404295       
  66               1.58489319E+00   3.11989623E-01   2005.93492480    4.41532003E-06   1.12654657E+18   2.49817735E+08   1.21767378E+08   3.22814272E+08   0.23625318      
  67               1.90546072E+00   3.38527776E-01   2044.80766852    4.69821210E-06   1.19913391E+18   2.35825896E+08   1.35755915E+08   3.16987516E+08   0.23175893      
  68               2.29086765E+00   3.68002941E-01   2084.28520548    5.00849441E-06   1.27885111E+18   2.20907013E+08   1.50670437E+08   3.10911198E+08   0.22679458      
  69               2.75422870E+00   4.00729377E-01   2124.65049247    5.34764976E-06   1.36612212E+18   2.05292050E+08   1.66280367E+08   3.04587539E+08   0.22175503      
  70               3.31131121E+00   4.37057470E-01   2165.41020178    5.71934052E-06   1.46192202E+18   1.89162989E+08   1.82404071E+08   2.98018624E+08   0.21639403      
  71               3.98107171E+00   4.77379951E-01   2206.76886110    6.12574408E-06   1.56687073E+18   1.72758502E+08   1.98802413E+08   2.91206210E+08   0.21100924      
  72               4.78630092E+00   5.22132075E-01   2248.32547796    6.57099439E-06   1.68208149E+18   1.56212648E+08   2.15341600E+08   2.84152371E+08   0.20537845      
  73               5.75439937E+00   5.71796076E-01   2290.20087097    7.05804132E-06   1.80839557E+18   1.39635770E+08   2.31912161E+08   2.76859615E+08   0.19966725      
  74               6.91830971E+00   6.26803278E-01   2331.96540754    7.59147654E-06   1.94686122E+18   1.23223663E+08   2.48318358E+08   2.69344518E+08   0.19365638      
  75               8.31763771E+00   6.87745237E-01   2373.67139360    8.17390615E-06   2.09861530E+18   1.07687992E+08   2.63848840E+08   2.61607972E+08   0.18804492      
  76               1.00000000E+01   7.55378018E-01   2415.33602745    8.81171232E-06   2.26523166E+18   9.33257116E+07   2.78206754E+08   2.53638649E+08   0.1826017       
  77               1.20226443E+01   8.30410098E-01   2456.89166827    9.50990763E-06   2.44811860E+18   8.02011002E+07   2.91327972E+08   2.45441964E+08   0.17738789      
  78               1.44543977E+01   9.13601123E-01   2498.29784832    1.02736260E-05   2.64873342E+18   6.84290198E+07   3.03097436E+08   2.37025369E+08   0.17237159      
  79               1.73780083E+01   1.00579262E+00   2539.48042213    1.11087147E-05   2.86872829E+18   5.82297453E+07   3.13294465E+08   2.28395439E+08   0.16777529      
  80               2.08929613E+01   1.10792458E+00   2580.53545245    1.20208523E-05   3.10975523E+18   4.95952480E+07   3.21927631E+08   2.19557061E+08   0.1634232       
  81               2.51188643E+01   1.22100908E+00   2621.31773493    1.30172598E-05   3.37384454E+18   4.23165793E+07   3.29205817E+08   2.10516690E+08   0.15925873      
  82               3.01995172E+01   1.34613267E+00   2661.89831935    1.41043508E-05   3.66287621E+18   3.62053710E+07   3.35317267E+08   2.01282186E+08   0.1554452       
  83               3.63078055E+01   1.48445210E+00   2702.21406393    1.52895458E-05   3.97898479E+18   3.10422554E+07   3.40480891E+08   1.91862855E+08   0.15197888      
  84               4.36515832E+01   1.63719638E+00   2742.34271609    1.65795918E-05   4.32419118E+18   2.66386993E+07   3.44886298E+08   1.82269038E+08   0.14867815      
  85               5.24807460E+01   1.80568272E+00   2782.13275426    1.79832667E-05   4.70099113E+18   2.28869676E+07   3.48641238E+08   1.72511191E+08   0.14561022      
  86               6.30957344E+01   1.99132971E+00   2821.71577610    1.95077521E-05   5.11158688E+18   1.97080085E+07   3.51825046E+08   1.62599209E+08   0.14283358      
  87               7.58577575E+01   2.19565584E+00   2860.98421977    2.11625628E-05   5.55871803E+18   1.70074017E+07   3.54532135E+08   1.52542719E+08   0.14039966      
  88               9.12010839E+01   2.42028448E+00   2900.11691560    2.29550476E-05   6.04472781E+18   1.47019119E+07   3.56847111E+08   1.42350892E+08   0.13817058      
  89               1.09647820E+02   2.66696541E+00   2938.94134643    2.48965006E-05   6.57282854E+18   1.27234319E+07   3.58839045E+08   1.32031902E+08   0.13613951      
  90               1.31825674E+02   2.93759145E+00   2977.65383397    2.69950848E-05   7.14567118E+18   1.10302139E+07   3.60551049E+08   1.21592687E+08   0.13429017      
  91               1.58489319E+02   3.23421643E+00   3016.08384905    2.92638609E-05   7.76696786E+18   9.57302215E+06   3.62033818E+08   1.11038883E+08   0.13264289      
  92               1.90546072E+02   3.55900220E+00   3054.45162569    3.17113142E-05   8.43958020E+18   8.31737792E+06   3.63323847E+08   1.00377014E+08   0.13112981      
  93               2.29086765E+02   3.91423286E+00   3092.54274488    3.43520407E-05   9.16762386E+18   7.23033156E+06   3.64455651E+08   8.96139474E+07   0.12975482      
  94               2.75422870E+02   4.30242413E+00   3130.59792270    3.71953704E-05   9.95432388E+18   6.29315352E+06   3.65449692E+08   7.87538459E+07   0.12851123      
  95               3.31131121E+02   4.72634297E+00   3168.41363874    4.02588297E-05   1.08046126E+19   5.48042409E+06   3.66332860E+08   6.77987491E+07   0.12742675      
  96               3.98107171E+02   5.18902962E+00   3206.26868458    4.35530915E-05   1.17222796E+19   4.77784551E+06   3.67121657E+08   5.67489267E+07   0.12649664      
  97               4.78630092E+02   5.69382043E+00   3243.96368856    4.70988502E-05   1.27131632E+19   4.16518361E+06   3.67837022E+08   4.56032891E+07   0.12569643      
  98               5.75439937E+02   6.24438331E+00   3281.77894040    5.09087847E-05   1.37818040E+19   3.63230839E+06   3.68489949E+08   3.43594801E+07   0.12498932      
  99               6.91830971E+02   6.84475461E+00   3319.49599987    5.50078624E-05   1.49352182E+19   3.16587264E+06   3.69093894E+08   2.30141020E+07   0.12436772      
  100              8.31763771E+02   7.49938562E+00   3357.40391984    5.94111700E-05   1.61788606E+19   2.76103453E+06   3.69653774E+08   1.15627201E+07   0.12381327      
  101              1.00000000E+03   8.21319236E+00   3395.27400449    6.41487539E-05   1.75211661E+19   2.56777514E+06   3.69967868E+08   0.00000000E+00   0.1233376       
