# ATMO pressure-temperature profile
# Effective temperature = 350.0K
# log(g) = 5.5cm/s^2
# M/H = 0.0
# Optical depth grid in band 17 (1.20-1.33microns)
# All parameters in cgs units
#
# Model Level      Optical Depth    Pressure         Temperature      Density          Number Density   Rad Flux         Conv Flux        Radial Extension Adiabatic Gradient
#                                   [Ba]             [K]              [g/cm^3]         [/cm^3]          [ergs/s/cm^2/sr] [ergs/s/cm^2/sr] [cm]             [K/Ba]          
  1                8.00000000E-07   1.00000000E-05   28.11734461      1.00834987E-08   2.57603367E+15   8.50757827E+05   0.00000000E+00   9.66183924E+05   0.34574507      
  2                9.86413681E-07   5.40091372E-05   36.90250565      4.14951115E-08   1.06007654E+16   8.50757827E+05   0.00000000E+00   9.59380324E+05   0.34574507      
  3                1.21626494E-06   1.08206972E-04   39.35414799      7.79561321E-08   1.99154705E+16   8.50757827E+05   0.00000000E+00   9.56366913E+05   0.3147937       
  4                1.49967547E-06   1.74947635E-04   41.55950811      1.19350221E-07   3.04904277E+16   8.50757827E+05   0.00000000E+00   9.54178881E+05   0.31481019      
  5                1.84912550E-06   2.57118928E-04   43.24811288      1.68559190E-07   4.30618541E+16   8.50757827E+05   0.00000000E+00   9.52346852E+05   0.31482399      
  6                2.28000336E-06   3.58267231E-04   45.41143731      2.23680121E-07   5.71436108E+16   8.50757827E+05   0.00000000E+00   9.50699567E+05   0.31483632      
  7                2.81128314E-06   4.82748491E-04   47.09934967      2.90597293E-07   7.42389557E+16   8.50757827E+05   0.00000000E+00   9.49155577E+05   0.31484779      
  8                3.46636019E-06   6.35905078E-04   49.15319977      3.66797231E-07   9.37057709E+16   8.50757827E+05   0.00000000E+00   9.47672114E+05   0.31485873      
  9                4.27408139E-06   8.24268702E-04   50.67286121      4.61188991E-07   1.17820055E+17   8.50757827E+05   0.00000000E+00   9.46223860E+05   0.31486935      
  10               5.27001545E-06   1.05587305E-03   52.64243941      5.68671218E-07   1.45278564E+17   8.50757827E+05   0.00000000E+00   9.44793727E+05   0.31487981      
  11               6.49801917E-06   1.34050320E-03   54.13752897      7.02028875E-07   1.79347475E+17   8.50757827E+05   0.00000000E+00   9.43369193E+05   0.31489019      
  12               8.01216876E-06   1.69010786E-03   56.20345634      8.52583543E-07   2.17809710E+17   8.50757827E+05   0.00000000E+00   9.41940196E+05   0.3149006       
  13               9.87914110E-06   2.11934803E-03   57.76862364      1.04014960E-06   2.65727253E+17   8.50757827E+05   0.00000000E+00   9.40498798E+05   0.31491109      
  14               1.21811499E-05   2.64596523E-03   59.97788630      1.25077308E-06   3.19535281E+17   8.50757827E+05   0.00000000E+00   9.39038781E+05   0.31492172      
  15               1.50195662E-05   3.29146178E-03   61.67210551      1.51316256E-06   3.86567982E+17   8.50757827E+05   0.00000000E+00   9.37555027E+05   0.31493255      
  16               1.85193820E-05   4.08221197E-03   64.04640310      1.80711734E-06   4.61664678E+17   8.50757827E+05   0.00000000E+00   9.36042848E+05   0.31494362      
  17               2.28347147E-05   5.04987730E-03   65.90783687      2.17234757E-06   5.54970129E+17   8.50757827E+05   0.00000000E+00   9.34498421E+05   0.314955        
  18               2.81555937E-05   6.23224289E-03   68.50906037      2.57918149E-06   6.58904084E+17   8.50757827E+05   0.00000000E+00   9.32918824E+05   0.31496673      
  19               3.47163285E-05   7.67535084E-03   70.53985452      3.08495775E-06   7.88114860E+17   8.50757827E+05   0.00000000E+00   9.31300993E+05   0.31497886      
  20               4.28058268E-05   9.43262288E-03   73.36916575      3.64505791E-06   9.31203780E+17   8.50757827E+05   0.00000000E+00   9.29643841E+05   0.31499147      
  21               5.27803164E-05   1.15631896E-02   75.63278134      4.33464081E-06   1.10737168E+18   8.50757827E+05   0.00000000E+00   9.27948855E+05   0.3150046       
  22               6.50790328E-05   1.41375085E-02   78.78535809      5.08759938E-06   1.29973018E+18   8.50757827E+05   0.00000000E+00   9.26215333E+05   0.31501829      
  23               8.02435604E-05   1.72421637E-02   81.32955902      6.01075307E-06   1.53556847E+18   8.50757827E+05   0.00000000E+00   9.24439948E+05   0.31503265      
  24               9.89416822E-05   2.09834467E-02   84.90252103      7.00715591E-06   1.79011973E+18   8.50757827E+05   0.00000000E+00   9.22616954E+05   0.31504779      
  25               1.21996786E-04   2.54913657E-02   87.95982444      8.21664056E-06   2.09910706E+18   8.50757827E+05   0.00000000E+00   9.20738251E+05   0.31506386      
  26               1.50424124E-04   3.09228465E-02   92.19042331      9.50997105E-06   2.42951450E+18   8.50757827E+05   0.00000000E+00   9.18795212E+05   0.31508104      
  27               1.85475517E-04   3.74690972E-02   95.87314515      1.10805621E-05   2.83075377E+18   8.50757827E+05   0.00000000E+00   9.16778601E+05   0.31509955      
  28               2.28694484E-04   4.53636652E-02   100.84134519     1.27542535E-05   3.25833209E+18   8.50757827E+05   0.00000000E+00   9.14678598E+05   0.31511965      
  29               2.81984210E-04   5.48895276E-02   105.26853852     1.47834640E-05   3.77673696E+18   8.50757826E+05   0.00000000E+00   9.12484840E+05   0.31514164      
  30               3.47691354E-04   6.63851631E-02   111.09002443     1.69426564E-05   4.32834434E+18   8.50757825E+05   0.00000000E+00   9.10187877E+05   0.31853857      
  31               4.28709385E-04   8.02617483E-02   116.41094050     1.95478378E-05   4.99390938E+18   8.50757824E+05   0.00000000E+00   9.07776625E+05   0.31969855      
  32               5.28606003E-04   9.70195341E-02   123.35441992     2.22990635E-05   5.69679130E+18   8.50757822E+05   0.00000000E+00   9.05238436E+05   0.32377736      
  33               6.51780242E-04   1.17261712E-01   129.80076959     2.56104380E-05   6.54342008E+18   8.50757820E+05   0.00000000E+00   9.02559851E+05   0.32462407      
  34               8.03656185E-04   1.41711069E-01   137.77620648     2.91618832E-05   7.44998487E+18   8.50757818E+05   0.00000000E+00   8.99730733E+05   0.32585605      
  35               9.90921819E-04   1.71254086E-01   145.12335357     3.34572044E-05   8.54731039E+18   8.50757810E+05   0.00000000E+00   8.96739830E+05   0.32540844      
  36               1.22182355E-03   2.06978483E-01   154.05058185     3.80932361E-05   9.73167722E+18   8.50757809E+05   0.00000000E+00   8.93575396E+05   0.3248837       
  37               1.50652933E-03   2.50189763E-01   162.27576225     4.37121213E-05   1.11671338E+19   8.50757805E+05   0.00000000E+00   8.90226726E+05   0.32466097      
  38               1.85757643E-03   3.02469265E-01   171.80486927     4.99150801E-05   1.27518038E+19   8.50757804E+05   0.00000000E+00   8.86687449E+05   0.32298912      
  39               2.29042351E-03   3.65771961E-01   180.42847883     5.74766133E-05   1.46835533E+19   8.50757795E+05   0.00000000E+00   8.82950125E+05   0.32198961      
  40               2.82413135E-03   4.42517950E-01   190.35763384     6.59092285E-05   1.68378422E+19   8.50757802E+05   0.00000000E+00   8.79007032E+05   0.31887782      
  41               3.48220225E-03   5.35476990E-01   199.83637106     7.59706188E-05   1.94085066E+19   8.50757759E+05   0.00000000E+00   8.74852753E+05   0.31760939      
  42               4.29361493E-03   6.47841042E-01   210.31787215     8.73329873E-05   2.23109528E+19   8.50757734E+05   0.00000000E+00   8.70490454E+05   0.31472337      
  43               5.29410063E-03   7.83528719E-01   219.60839299     1.01145121E-04   2.58423393E+19   8.50757668E+05   0.00000000E+00   8.65925055E+05   0.31357633      
  44               6.52771662E-03   9.47361353E-01   229.68816671     1.16940118E-04   2.98746539E+19   8.50757661E+05   0.00000000E+00   8.61161335E+05   0.31114244      
  45               8.04878622E-03   1.14539346E+00   239.01797689     1.35777397E-04   3.47096289E+19   8.50757675E+05   0.00000000E+00   8.56191522E+05   0.31019869      
  46               9.92429106E-03   1.38505223E+00   249.83719307     1.57179579E-04   4.01545624E+19   8.50757645E+05   0.00000000E+00   8.51003742E+05   0.30823345      
  47               1.22368206E-02   1.67507770E+00   260.50096082     1.82311765E-04   4.65748503E+19   8.50757639E+05   0.00000000E+00   8.45585845E+05   0.30734279      
  48               1.50882091E-02   2.02574730E+00   273.21781611     2.10215781E-04   5.37034385E+19   8.50757655E+05   0.00000000E+00   8.39921390E+05   0.30565121      
  49               1.86040198E-02   2.44907278E+00   286.83363164     2.42080984E-04   6.18439841E+19   8.50551011E+05   0.00000000E+00   8.33987201E+05   0.30471629      
  50               2.29390746E-02   2.95801669E+00   303.79140495     2.76066805E-04   7.05262802E+19   8.48295734E+05   2.46675099E+03   8.27761582E+05   0.30334939      
  51               2.82842712E-02   3.56713020E+00   321.49356427     3.14583341E-04   8.03660304E+19   8.40831905E+05   9.92757848E+03   8.21225413E+05   0.30253561      
  52               3.48749902E-02   4.29426150E+00   340.05750556     3.58034732E-04   9.14664792E+19   8.30310261E+05   2.04498256E+04   8.14373965E+05   0.30167437      
  53               4.30014593E-02   5.16111348E+00   359.39189553     4.07159111E-04   1.04016196E+20   8.18658878E+05   3.20993762E+04   8.07194364E+05   0.30117687      
  54               5.30215347E-02   6.19159050E+00   379.67636873     4.62357259E-04   1.18117568E+20   8.08120959E+05   4.26382037E+04   7.99683889E+05   0.30071762      
  55               6.53764590E-02   7.41004334E+00   400.68608989     5.24330817E-04   1.33949878E+20   8.01709282E+05   4.90487724E+04   7.91858298E+05   0.30047574      
  56               8.06102920E-02   8.84546309E+00   422.63244342     5.93402815E-04   1.51594548E+20   8.01977100E+05   4.87816544E+04   7.83720578E+05   0.3001676       
  57               9.93938685E-02   1.05292634E+01   445.24911074     6.70481534E-04   1.71285566E+20   8.09703576E+05   4.10549359E+04   7.75279025E+05   0.29996696      
  58               1.22554340E-01   1.24909837E+01   468.72782946     7.55557943E-04   1.93019747E+20   8.23214834E+05   2.75455693E+04   7.66563174E+05   0.29977164      
  59               1.51111597E-01   1.47590822E+01   492.68348310     8.49343086E-04   2.16978742E+20   8.38578295E+05   1.21822524E+04   7.57609805E+05   0.29964303      
  60               1.86323183E-01   1.73754890E+01   517.45394449     9.52050872E-04   2.43215457E+20   8.50678066E+05   8.55748142E+01   7.48408815E+05   0.29944394      
  61               2.29739671E-01   2.03994615E+01   542.82226105     1.06550231E-03   2.72199230E+20   8.50734505E+05   0.00000000E+00   7.38914349E+05   0.29927551      
  62               2.83272943E-01   2.38876339E+01   566.89834567     1.19480437E-03   3.05206504E+20   8.50756692E+05   0.00000000E+00   7.29137872E+05   0.29907036      
  63               3.49280383E-01   2.78887400E+01   593.67201717     1.33202217E-03   3.40257850E+20   8.50284977E+05   0.00000000E+00   7.19108449E+05   0.29888943      
  64               4.30668686E-01   3.24502646E+01   621.00625096     1.48166965E-03   3.78484510E+20   8.33330262E+05   1.74403993E+04   7.08840620E+05   0.29862104      
  65               5.31021855E-01   3.76622440E+01   649.39636516     1.64446800E-03   4.20070495E+20   8.06117541E+05   4.46494867E+04   6.98281827E+05   0.29830462      
  66               6.54759028E-01   4.36137034E+01   678.26546940     1.82327558E-03   4.65745961E+20   7.73291746E+05   7.74751759E+04   6.87412952E+05   0.29786643      
  67               8.07329079E-01   5.03831671E+01   708.19688523     2.01725353E-03   5.15296616E+20   7.34847513E+05   1.15918609E+05   6.76250802E+05   0.29742615      
  68               9.95450561E-01   5.80438808E+01   738.44859489     2.22876954E-03   5.69327304E+20   6.90128897E+05   1.60638197E+05   6.64825796E+05   0.29687262      
  69               1.22740757E+00   6.66955373E+01   769.69112213     2.45702315E-03   6.27633532E+20   6.40721969E+05   2.10046570E+05   6.53134516E+05   0.29632084      
  70               1.51341452E+00   7.65513300E+01   801.56170238     2.70797533E-03   6.91737980E+20   5.91498554E+05   2.59266421E+05   6.41051799E+05   0.29560831      
  71               1.86606598E+00   8.78167121E+01   834.90276352     2.98242983E-03   7.61845864E+20   5.49543042E+05   3.01220293E+05   6.28516391E+05   0.29488892      
  72               2.30089127E+00   1.00657785E+02   868.95580666     3.28457216E-03   8.39026193E+20   5.18333469E+05   3.32432217E+05   6.15542303E+05   0.29394845      
  73               2.83703828E+00   1.15192030E+02   904.22466759     3.61225648E-03   9.22724219E+20   5.00111364E+05   3.50655825E+05   6.02198963E+05   0.29300937      
  74               3.49811672E+00   1.31501189E+02   939.74692811     3.96781200E-03   1.01354866E+21   4.94630160E+05   3.56137543E+05   5.88576151E+05   0.29183287      
  75               4.31323774E+00   1.49839501E+02   976.34839436     4.35167028E-03   1.11159694E+21   5.00234440E+05   3.50532630E+05   5.74620306E+05   0.29071589      
  76               5.31829590E+00   1.70463783E+02   1013.38698243    4.76970335E-03   1.21837966E+21   5.11075100E+05   3.39691371E+05   5.60304850E+05   0.28935663      
  77               6.55754979E+00   1.93578639E+02   1051.45403072    5.22038083E-03   1.33349988E+21   5.21448381E+05   3.29318095E+05   5.45656305E+05   0.28811265      
  78               8.08557104E+00   2.19355742E+02   1089.75415177    5.70764496E-03   1.45796237E+21   5.25470915E+05   3.25298231E+05   5.30723043E+05   0.28661066      
  79               9.96964736E+00   2.47954182E+02   1128.76870740    6.22882722E-03   1.59108110E+21   5.21742299E+05   3.29025052E+05   5.15555647E+05   0.28524986      
  80               1.22927457E+01   2.79679110E+02   1167.95348298    6.79025246E-03   1.73444416E+21   5.18621098E+05   3.32564100E+05   5.00129569E+05   0.28364775      
  81               1.51571657E+01   3.15129632E+02   1208.19699326    7.39609642E-03   1.88919736E+21   5.26338394E+05   3.24702326E+05   4.84310591E+05   0.2821681       
  82               1.86890445E+01   3.54866911E+02   1249.11746629    8.05587897E-03   2.05772846E+21   5.39272079E+05   3.11492835E+05   4.68031115E+05   0.28044105      
  83               2.30439114E+01   3.99300647E+02   1291.13043287    8.76960993E-03   2.24003980E+21   5.50143607E+05   3.00658610E+05   4.51313811E+05   0.27887268      
  84               2.84135369E+01   4.48761346E+02   1333.62687616    9.54181998E-03   2.43728852E+21   5.56297862E+05   2.94500907E+05   4.34215447E+05   0.27700411      
  85               3.50343769E+01   5.03528210E+02   1376.80054027    1.03705720E-02   2.64897963E+21   5.54656707E+05   2.96111949E+05   4.16805359E+05   0.27541979      
  86               4.31979859E+01   5.62884731E+02   1419.50445485    1.12443023E-02   2.87215946E+21   5.50873117E+05   3.00167204E+05   3.99423313E+05   0.27358695      
  87               5.32638553E+01   6.28284660E+02   1462.75526593    1.21796432E-02   3.11107604E+21   5.51639049E+05   2.99346567E+05   3.81750984E+05   0.27196184      
  88               6.56752445E+01   7.01854135E+02   1507.29465188    1.32037907E-02   3.37267539E+21   5.53989895E+05   2.96967270E+05   3.63405417E+05   0.27004668      
  89               8.09786996E+01   7.86026482E+02   1553.96778013    1.43431781E-02   3.66370931E+21   5.60303016E+05   2.90612313E+05   3.44063588E+05   0.26833767      
  90               9.98481215E+01   8.83779337E+02   1603.45934159    1.56291840E-02   3.99219486E+21   5.68747560E+05   2.82135701E+05   3.23417453E+05   0.26629186      
  91               1.23114441E+02   9.98962727E+02   1656.40380545    1.71011323E-02   4.36826427E+21   5.69552624E+05   2.81247324E+05   3.01137744E+05   0.26440618      
  92               1.51802212E+02   1.13622848E+03   1713.60389392    1.88116200E-02   4.80265146E+21   5.62666650E+05   2.88152464E+05   2.76932462E+05   0.26212034      
  93               1.87174723E+02   1.29833845E+03   1774.21253844    2.07612001E-02   5.30039351E+21   5.57379676E+05   2.93455768E+05   2.50992422E+05   0.25998183      
  94               2.30789634E+02   1.48821888E+03   1838.14856703    2.29698488E-02   5.86424409E+21   5.48119136E+05   3.02729417E+05   2.23496038E+05   0.25749173      
  95               2.84567566E+02   1.70975322E+03   1904.52916178    2.54695207E-02   6.50236947E+21   5.34503696E+05   3.16349322E+05   1.94532451E+05   0.25520169      
  96               3.50876675E+02   1.96792669E+03   1974.00079031    2.82849763E-02   7.22083518E+21   5.15141163E+05   3.35671648E+05   1.64114813E+05   0.25257434      
  97               4.32636941E+02   2.26877865E+03   2045.58995751    3.14728551E-02   8.03339983E+21   4.95941057E+05   3.54849914E+05   1.32227892E+05   0.25015671      
  98               5.33448747E+02   2.61741753E+03   2119.98485268    3.50517335E-02   8.94264700E+21   4.65273369E+05   3.86159130E+05   9.90332312E+04   0.24736152      
  99               6.57751428E+02   3.00858893E+03   2193.50115038    3.89884137E-02   9.93461007E+21   4.09875243E+05   4.42178757E+05   6.55687515E+04   0.24473733      
  100              8.11018759E+02   3.42043098E+03   2263.46171007    4.29545931E-02   1.09454474E+22   3.66756952E+05   4.85762137E+05   3.37444649E+04   0.24208417      
  101              1.00000000E+03   3.90234372E+03   2336.06187469    4.74847959E-02   1.20994887E+22   3.54753612E+05   4.96017889E+05   0.00000000E+00   0.23951897      
