# ATMO pressure-temperature profile
# Effective temperature = 550.0K
# log(g) = 4.5cm/s^2
# M/H = 0.0
# Optical depth grid in band 17 (1.20-1.33microns)
# All parameters in cgs units
#
# Model Level      Optical Depth    Pressure         Temperature      Density          Number Density   Rad Flux         Conv Flux        Radial Extension Adiabatic Gradient
#                                   [Ba]             [K]              [g/cm^3]         [/cm^3]          [ergs/s/cm^2/sr] [ergs/s/cm^2/sr] [cm]             [K/Ba]          
  1                5.00000000E-05   1.00000000E-05   81.55573886      3.47534252E-09   8.88119310E+14   5.18817833E+06   0.00000000E+00   1.11512028E+07   0.34574791      
  2                5.91534807E-05   5.45878666E-04   109.74634903     1.40967848E-07   3.60273136E+16   5.18817833E+06   0.00000000E+00   1.03855928E+07   0.3148303       
  3                6.99826855E-05   1.11261892E-03   132.89048214     2.37303985E-07   6.06426826E+16   5.18817833E+06   0.00000000E+00   1.02876051E+07   0.32258737      
  4                8.27943887E-05   1.74421081E-03   147.44579065     3.35288736E-07   8.56825602E+16   5.18817833E+06   0.00000000E+00   1.02167984E+07   0.32551878      
  5                9.79515255E-05   2.46513585E-03   159.34687644     4.38479179E-07   1.12052911E+17   5.18817833E+06   0.00000000E+00   1.01573409E+07   0.32593022      
  6                1.15883473E-04   3.29553107E-03   169.12282203     5.52296753E-07   1.41139649E+17   5.18817833E+06   0.00000000E+00   1.01039799E+07   0.32533188      
  7                1.37098216E-04   4.25671013E-03   178.44842423     6.76085061E-07   1.72777505E+17   5.18817833E+06   0.00000000E+00   1.00542386E+07   0.32432317      
  8                1.62196734E-04   5.37171876E-03   186.68470573     8.15498553E-07   2.08415669E+17   5.18817833E+06   0.00000000E+00   1.00067526E+07   0.32300128      
  9                1.91890027E-04   6.66589538E-03   195.22617871     9.67134030E-07   2.47312621E+17   5.18817833E+06   0.00000000E+00   9.96066978E+06   0.32166507      
  10               2.27019260E-04   8.16972528E-03   203.00914850     1.14063091E-06   2.91485988E+17   5.18817833E+06   0.00000000E+00   9.91539224E+06   0.32015123      
  11               2.68579588E-04   9.91847708E-03   211.10112852     1.33171071E-06   3.40314363E+17   5.18817833E+06   0.00000000E+00   9.87052280E+06   0.31873048      
  12               3.17748350E-04   1.19521146E-02   218.53731145     1.55015316E-06   3.96136621E+17   5.18817833E+06   0.00000000E+00   9.82576370E+06   0.31719272      
  13               3.75918418E-04   1.43180380E-02   226.30753971     1.79324622E-06   4.58258286E+17   5.18817833E+06   0.00000000E+00   9.78088985E+06   0.31580461      
  14               4.44737657E-04   1.70707364E-02   233.42158702     2.07284437E-06   5.29708667E+17   5.18817833E+06   0.00000000E+00   9.73574010E+06   0.31432604      
  15               5.26155608E-04   2.02739719E-02   240.87350178     2.38564200E-06   6.09643088E+17   5.18817833E+06   0.00000000E+00   9.69018858E+06   0.31309452      
  16               6.22478712E-04   2.40016661E-02   247.84019977     2.74489097E-06   7.01447997E+17   5.18817833E+06   0.00000000E+00   9.64412315E+06   0.3118274       
  17               7.36435649E-04   2.83396133E-02   255.31177136     3.14614359E-06   8.03986805E+17   5.18817833E+06   0.00000000E+00   9.59744298E+06   0.3107078       
  18               8.71254639E-04   3.33875534E-02   262.36639518     3.60688126E-06   9.21726824E+17   5.18817833E+06   0.00000000E+00   9.55005600E+06   0.30961954      
  19               1.03075489E-03   3.92611075E-02   269.95852243     4.12212315E-06   1.05339522E+18   5.18817833E+06   0.00000000E+00   9.50188623E+06   0.3086836       
  20               1.21945479E-03   4.60934241E-02   277.22040926     4.71269387E-06   1.20431366E+18   5.18817833E+06   0.00000000E+00   9.45286628E+06   0.30772232      
  21               1.44269991E-03   5.40377768E-02   285.13615025     5.37156271E-06   1.37268545E+18   5.18817833E+06   0.00000000E+00   9.40293490E+06   0.30687558      
  22               1.70681442E-03   6.32726619E-02   292.76933001     6.12556265E-06   1.56536769E+18   5.18817833E+06   0.00000000E+00   9.35202430E+06   0.30605345      
  23               2.01928028E-03   7.40053740E-02   301.07108947     6.96706179E-06   1.78041007E+18   5.18817833E+06   0.00000000E+00   9.30007118E+06   0.30534878      
  24               2.38894914E-03   8.64746259E-02   309.17866646     7.92747044E-06   2.02583939E+18   5.18817833E+06   0.00000000E+00   9.24701350E+06   0.30464631      
  25               2.82629313E-03   1.00955304E-01   318.06323823     8.99644906E-06   2.29901341E+18   5.18817833E+06   0.00000000E+00   9.19279019E+06   0.30403931      
  26               3.34370152E-03   1.17764034E-01   326.82391462     1.02130229E-05   2.60990492E+18   5.18817833E+06   0.00000000E+00   9.13733756E+06   0.30346494      
  27               3.95583167E-03   1.37266764E-01   336.38470401     1.15660381E-05   2.95566354E+18   5.18817833E+06   0.00000000E+00   9.08059277E+06   0.30297193      
  28               4.68002425E-03   1.59881842E-01   345.91414126     1.31004524E-05   3.34777812E+18   5.18817833E+06   0.00000000E+00   9.02249458E+06   0.30247948      
  29               5.53679448E-03   1.86090901E-01   356.40293359     1.47992378E-05   3.78189709E+18   5.18817833E+06   0.00000000E+00   8.96297106E+06   0.30204976      
  30               6.55041330E-03   2.16442506E-01   367.09811701     1.67115169E-05   4.27057385E+18   5.18817833E+06   0.00000000E+00   8.90193956E+06   0.30167466      
  31               7.74959494E-03   2.51560794E-01   378.92198772     1.88169291E-05   4.80860374E+18   5.18817833E+06   0.00000000E+00   8.83931408E+06   0.30138115      
  32               9.16831029E-03   2.92144123E-01   391.03752364     2.11755314E-05   5.41133673E+18   5.18817833E+06   0.00000000E+00   8.77502220E+06   0.30110377      
  33               1.08467493E-02   3.38968318E-01   404.41096470     2.37570031E-05   6.07102507E+18   5.18817833E+06   0.00000000E+00   8.70900496E+06   0.30083554      
  34               1.28324595E-02   3.92884607E-01   418.33751311     2.66193112E-05   6.80242941E+18   5.18817833E+06   0.00000000E+00   8.64120542E+06   0.30055292      
  35               1.51816929E-02   4.54841207E-01   433.83784687     2.97160451E-05   7.59378342E+18   5.18817833E+06   0.00000000E+00   8.57154378E+06   0.30033678      
  36               1.79609996E-02   5.25932083E-01   450.15361878     3.31152131E-05   8.46242356E+18   5.18817833E+06   0.00000000E+00   8.49987920E+06   0.30017793      
  37               2.12491128E-02   6.07346372E-01   468.28127200     3.67610828E-05   9.39410677E+18   5.18817833E+06   0.00000000E+00   8.42609000E+06   0.30005609      
  38               2.51391797E-02   7.00332811E-01   487.76605797     4.06961194E-05   1.03996503E+19   5.18817834E+06   0.00000000E+00   8.35006616E+06   0.29991726      
  39               2.97413996E-02   8.06202032E-01   509.46867194     4.48561218E-05   1.14617847E+19   5.18096675E+06   7.21157355E+03   8.27170659E+06   0.29976719      
  40               3.51861462E-02   9.26620196E-01   530.47204855     4.95147705E-05   1.26521722E+19   5.16292047E+06   2.52578710E+04   8.19090615E+06   0.29962603      
  41               4.16276604E-02   1.06365381E+00   553.57886923     5.44648254E-05   1.39170323E+19   5.13458483E+06   5.35934881E+04   8.10746089E+06   0.29951494      
  42               4.92484201E-02   1.21953862E+00   575.96081471     6.00202304E-05   1.53365778E+19   5.09751114E+06   9.06672066E+04   8.02124309E+06   0.29940117      
  43               5.82643093E-02   1.39663083E+00   600.61098613     6.59147973E-05   1.68427961E+19   5.05013422E+06   1.38044096E+05   7.93220842E+06   0.29923528      
  44               6.89307339E-02   1.59739849E+00   624.40855970     7.25167645E-05   1.85297799E+19   4.99492292E+06   1.93255422E+05   7.84037874E+06   0.29903387      
  45               8.15498567E-02   1.82465707E+00   650.59580340     7.94992873E-05   2.03140181E+19   4.93218060E+06   2.55997718E+05   7.74572899E+06   0.29882186      
  46               9.64791575E-02   2.08205457E+00   675.86071902     8.73227432E-05   2.23131426E+19   4.86602273E+06   3.22155618E+05   7.64803698E+06   0.29860868      
  47               1.14141560E-01   2.37340305E+00   703.73597477     9.55989978E-05   2.44279815E+19   4.79380084E+06   3.94377481E+05   7.54719941E+06   0.29835181      
  48               1.35037411E-01   2.70259977E+00   730.56300622     1.04861226E-04   2.67947616E+19   4.71814105E+06   4.70037293E+05   7.44322622E+06   0.29798519      
  49               1.59758657E-01   3.07366221E+00   760.09735410     1.14624421E-04   2.92895538E+19   4.63871006E+06   5.49468265E+05   7.33619734E+06   0.29752942      
  50               1.89005613E-01   3.49121878E+00   788.39137743     1.25523550E-04   3.20745845E+19   4.56435429E+06   6.23824059E+05   7.22611587E+06   0.29701815      
  51               2.23606798E-01   3.96158750E+00   819.60540785     1.37011333E-04   3.50098522E+19   4.49843414E+06   6.89744183E+05   7.11269366E+06   0.29647032      
  52               2.64542408E-01   4.49177702E+00   849.54854192     1.49873325E-04   3.82962130E+19   4.45001996E+06   7.38158385E+05   6.99569219E+06   0.29581558      
  53               3.12972084E-01   5.08864015E+00   882.61204600     1.63427753E-04   4.17597345E+19   4.42035536E+06   7.67822956E+05   6.87509153E+06   0.29506123      
  54               3.70267763E-01   5.75877045E+00   914.17422764     1.78564240E-04   4.56274958E+19   4.41751382E+06   7.70664526E+05   6.75104085E+06   0.29415799      
  55               4.38052539E-01   6.50864801E+00   948.88229662     1.94434040E-04   4.96825961E+19   4.44087576E+06   7.47302549E+05   6.62377642E+06   0.29318353      
  56               5.18246648E-01   7.34631913E+00   981.81667893     2.12096931E-04   5.41957492E+19   4.49833799E+06   6.89840365E+05   6.49333355E+06   0.29208298      
  57               6.13121862E-01   8.28235560E+00   1018.08214542    2.30605656E-04   5.89246337E+19   4.58934107E+06   5.98837235E+05   6.35949198E+06   0.29095848      
  58               7.25365844E-01   9.32809021E+00   1052.46973652    2.51242255E-04   6.41961467E+19   4.71890187E+06   4.69276498E+05   6.22210644E+06   0.28971077      
  59               8.58158289E-01   1.04950017E+01   1090.36899402    2.72846314E-04   6.97163851E+19   4.87610556E+06   3.12072730E+05   6.08116699E+06   0.28838274      
  60               1.01526100E+00   1.17951307E+01   1126.15658675    2.96901955E-04   7.58629657E+19   5.05125607E+06   1.36922338E+05   5.93671587E+06   0.28704295      
  61               1.20112443E+00   1.32413298E+01   1165.60192459    3.22026568E-04   8.22824445E+19   5.18817821E+06   0.00000000E+00   5.78881328E+06   0.28565555      
  62               1.42101382E+00   1.48491790E+01   1201.70477086    3.50283683E-04   8.95015375E+19   5.18817833E+06   0.00000000E+00   5.63742591E+06   0.28436562      
  63               1.68115827E+00   1.66430467E+01   1237.39665664    3.81285167E-04   9.74203607E+19   5.18817834E+06   0.00000000E+00   5.48220295E+06   0.28305881      
  64               1.98892727E+00   1.86494545E+01   1271.23848580    4.15892750E-04   1.06258808E+20   5.18817833E+06   0.00000000E+00   5.32287042E+06   0.28183161      
  65               2.35303941E+00   2.08953202E+01   1305.73069946    4.53686238E-04   1.15910093E+20   5.18817834E+06   0.00000000E+00   5.15937087E+06   0.28056566      
  66               2.78380943E+00   2.34087457E+01   1339.27403220    4.95541158E-04   1.26600242E+20   5.18817832E+06   0.00000000E+00   4.99174164E+06   0.27936448      
  67               3.29344035E+00   2.62192960E+01   1374.32991782    5.40882375E-04   1.38183397E+20   5.18817834E+06   0.00000000E+00   4.82006872E+06   0.27811433      
  68               3.89636920E+00   2.93592052E+01   1409.21750285    5.90652744E-04   1.50900996E+20   5.18817832E+06   0.00000000E+00   4.64439720E+06   0.2768854       
  69               4.60967600E+00   3.28733726E+01   1446.30890475    6.44375107E-04   1.64630024E+20   5.18817834E+06   0.00000000E+00   4.46426590E+06   0.27553886      
  70               5.45356761E+00   3.68138791E+01   1483.78467539    7.03370164E-04   1.79707640E+20   5.18817832E+06   0.00000000E+00   4.27917164E+06   0.27419161      
  71               6.45195012E+00   4.12255115E+01   1523.82843929    7.66936304E-04   1.95954760E+20   5.18817832E+06   0.00000000E+00   4.08922550E+06   0.27276833      
  72               7.63310614E+00   4.61400158E+01   1564.54122062    8.35997326E-04   2.13607535E+20   5.18817832E+06   0.00000000E+00   3.89513673E+06   0.27136272      
  73               9.03049593E+00   5.15697114E+01   1607.97379179    9.09142073E-04   2.32295916E+20   5.18817820E+06   0.00000000E+00   3.69818319E+06   0.26987157      
  74               1.06837053E+01   5.75039241E+01   1652.21077134    9.86553787E-04   2.52091308E+20   5.18820277E+06   0.00000000E+00   3.50003514E+06   0.26839222      
  75               1.26395671E+01   6.38888730E+01   1699.30777617    1.06618760E-03   2.72319676E+20   5.11537394E+06   7.28034384E+04   3.30314393E+06   0.26680807      
  76               1.49534878E+01   7.07210601E+01   1745.97693219    1.14861097E-03   2.93383780E+20   4.83437629E+06   3.53801367E+05   3.10790806E+06   0.26524932      
  77               1.76910170E+01   7.80065426E+01   1791.72236791    1.23458568E-03   3.15345148E+20   4.50644746E+06   6.81730281E+05   2.91443743E+06   0.2636332       
  78               2.09297047E+01   8.56565424E+01   1836.43647313    1.32272500E-03   3.37839534E+20   4.10737937E+06   1.08079842E+06   2.72512875E+06   0.26217968      
  79               2.47612977E+01   9.34411424E+01   1878.57047083    1.41090470E-03   3.60276958E+20   3.63291358E+06   1.55526430E+06   2.54492572E+06   0.26071988      
  80               2.92943389E+01   1.01030113E+02   1917.19824738    1.49535847E-03   3.81689009E+20   3.25533368E+06   1.93305035E+06   2.37970221E+06   0.25935912      
  81               3.46572422E+01   1.09136051E+02   1955.76256806    1.58504416E-03   4.04182909E+20   2.89959169E+06   2.28858631E+06   2.21319381E+06   0.25802281      
  82               4.10019301E+01   1.16795175E+02   1990.28740876    1.66697332E-03   4.25045033E+20   2.46206873E+06   2.72610925E+06   2.06418879E+06   0.25696356      
  83               4.85081376E+01   1.23692507E+02   2019.70801403    1.73965229E-03   4.43588871E+20   2.19325965E+06   2.99512685E+06   1.93610742E+06   0.25570062      
  84               5.73885036E+01   1.31340694E+02   2050.92607651    1.81904765E-03   4.63847414E+20   2.07991771E+06   3.10826026E+06   1.80014913E+06   0.25453432      
  85               6.78945948E+01   1.39810206E+02   2083.66880604    1.90583857E-03   4.85999727E+20   1.85429460E+06   3.33388341E+06   1.65630446E+06   0.25359852      
  86               8.03240320E+01   1.47114772E+02   2110.77297930    1.98013656E-03   5.04824701E+20   1.53584201E+06   3.65258227E+06   1.53739418E+06   0.25288084      
  87               9.50289215E+01   1.53056212E+02   2131.91547160    2.03961606E-03   5.20004160E+20   1.35778758E+06   3.83039032E+06   1.44390309E+06   0.25210216      
  88               1.12425830E+02   1.59754388E+02   2155.09252806    2.10593077E-03   5.36923874E+20   1.30080620E+06   3.88792824E+06   1.34170082E+06   0.25124711      
  89               1.33007583E+02   1.67322327E+02   2180.18827733    2.18024332E-03   5.55885998E+20   1.24272276E+06   3.94617643E+06   1.23001364E+06   0.25032243      
  90               1.57357229E+02   1.75851665E+02   2207.51063876    2.26286815E-03   5.76991637E+20   1.09187070E+06   4.09630729E+06   1.10858155E+06   0.24930996      
  91               1.86164557E+02   1.82225506E+02   2227.06177822    2.32629075E-03   5.92656075E+20   8.77916113E+05   4.31026219E+06   1.02072118E+06   0.24856848      
  92               2.20245630E+02   1.86745769E+02   2240.74027166    2.36934302E-03   6.03649840E+20   7.71738496E+05   4.41644004E+06   9.59835102E+05   0.2480342       
  93               2.60565913E+02   1.91870280E+02   2255.73396756    2.41809725E-03   6.16092142E+20   7.46757805E+05   4.44142029E+06   8.92133051E+05   0.24743935      
  94               3.08267614E+02   1.97736043E+02   2272.67169791    2.47337764E-03   6.30195032E+20   7.22718278E+05   4.47656446E+06   8.16285333E+05   0.24676754      
  95               3.64702046E+02   2.04469142E+02   2291.41433994    2.53685381E-03   6.46323560E+20   6.96018855E+05   4.49355982E+06   7.31281890E+05   0.24602386      
  96               4.31467909E+02   2.12176501E+02   2312.42609690    2.60846515E-03   6.64592231E+20   6.68473969E+05   4.52210796E+06   6.36534879E+05   0.24519097      
  97               5.10456573E+02   2.20974410E+02   2335.44723465    2.68973544E-03   6.85326874E+20   6.38609820E+05   4.56018854E+06   5.31500276E+05   0.24427076      
  98               6.03905660E+02   2.30989657E+02   2360.91476181    2.78117791E-03   7.08660239E+20   6.07622012E+05   4.59047228E+06   4.15704474E+05   0.24324565      
  99               7.14462436E+02   2.42360838E+02   2388.52176527    2.88420126E-03   7.34952178E+20   5.74829525E+05   4.62601242E+06   2.88741021E+05   0.24213659      
  100              8.45258798E+02   2.55240269E+02   2418.68080085    2.99940141E-03   7.64357403E+20   5.42072976E+05   4.65819339E+06   1.50267404E+05   0.24092476      
  101              1.00000000E+03   2.69796208E+02   2451.03720869    3.12836415E-03   7.97281666E+20   5.23956735E+05   4.66507004E+06   0.00000000E+00   0.23960739      
