# ATMO pressure-temperature profile
# Effective temperature = 900.0K
# log(g) = 3.5cm/s^2
# M/H = 0.0
# Optical depth grid in band 17 (1.20-1.33microns)
# All parameters in cgs units
#
# Model Level      Optical Depth    Pressure         Temperature      Density          Number Density   Rad Flux         Conv Flux        Radial Extension Adiabatic Gradient
#                                   [Ba]             [K]              [g/cm^3]         [/cm^3]          [ergs/s/cm^2/sr] [ergs/s/cm^2/sr] [cm]             [K/Ba]          
  1                5.00000000E-05   1.00000000E-05   271.69287343     1.04282991E-09   2.66592295E+14   3.72000091E+07   0.00000000E+00   1.42151541E+08   0.30321719      
  2                5.91534807E-05   1.30314973E-04   313.21793637     1.17879646E-08   3.01351623E+15   3.72000091E+07   0.00000000E+00   1.31299947E+08   0.30171767      
  3                6.99826855E-05   2.62678889E-04   337.69444962     2.20389277E-08   5.63413292E+15   3.72000091E+07   0.00000000E+00   1.28703049E+08   0.30094578      
  4                8.27943887E-05   4.13915051E-04   347.06378756     3.37902686E-08   8.63828953E+15   3.72000091E+07   0.00000000E+00   1.26950522E+08   0.30068312      
  5                9.79515255E-05   5.88743016E-04   361.54476386     4.61373247E-08   1.17947715E+16   3.72000091E+07   0.00000000E+00   1.25550325E+08   0.30041367      
  6                1.15883473E-04   7.91709707E-04   366.92758707     6.11328256E-08   1.56282894E+16   3.72000091E+07   0.00000000E+00   1.24341785E+08   0.30029794      
  7                1.37098216E-04   1.02795928E-03   379.24262587     7.67974478E-08   1.96329069E+16   3.72000091E+07   0.00000000E+00   1.23251448E+08   0.30013387      
  8                1.62196734E-04   1.30325167E-03   383.52573920     9.62772529E-08   2.46127202E+16   3.72000091E+07   0.00000000E+00   1.22239032E+08   0.30006079      
  9                1.91890027E-04   1.62437806E-03   395.02040088     1.16508298E-07   2.97847137E+16   3.72000091E+07   0.00000000E+00   1.21280215E+08   0.29994226      
  10               2.27019260E-04   1.99909064E-03   398.95845983     1.41969224E-07   3.62936500E+16   3.72000091E+07   0.00000000E+00   1.20358869E+08   0.29988902      
  11               2.68579588E-04   2.43659049E-03   410.01527172     1.68372498E-07   4.30435767E+16   3.72000091E+07   0.00000000E+00   1.19464029E+08   0.29979514      
  12               3.17748350E-04   2.94746793E-03   413.70665232     2.01860141E-07   5.16038879E+16   3.72000091E+07   0.00000000E+00   1.18587722E+08   0.29975083      
  13               3.75918418E-04   3.54418710E-03   424.69710313     2.36445414E-07   6.04453897E+16   3.72000091E+07   0.00000000E+00   1.17723989E+08   0.29967015      
  14               4.44737657E-04   4.24126240E-03   428.40066208     2.80503713E-07   7.17085347E+16   3.72000091E+07   0.00000000E+00   1.16868046E+08   0.29963623      
  15               5.26155608E-04   5.05560583E-03   439.68210789     3.25782856E-07   8.32837463E+16   3.72000091E+07   0.00000000E+00   1.16016174E+08   0.29957398      
  16               6.22478712E-04   6.00655496E-03   443.79534517     3.83473529E-07   9.80321556E+16   3.72000091E+07   0.00000000E+00   1.15165378E+08   0.2995459       
  17               7.36435649E-04   7.11688786E-03   455.48229781     4.42735569E-07   1.13173425E+17   3.72000091E+07   0.00000000E+00   1.14313221E+08   0.29956422      
  18               8.71254639E-04   8.41249671E-03   460.21548011     5.17952029E-07   1.32400469E+17   3.72000091E+07   0.00000000E+00   1.13457648E+08   0.29954521      
  19               1.03075489E-03   9.92551063E-03   471.34902905     5.96672209E-07   1.52523261E+17   3.72000091E+07   0.00000000E+00   1.12596991E+08   0.29944234      
  20               1.21945479E-03   1.16917637E-02   476.33082303     6.95499712E-07   1.77785846E+17   3.72000091E+07   0.00000000E+00   1.11729956E+08   0.29934453      
  21               1.44269991E-03   1.37528172E-02   487.98913376     7.98558727E-07   2.04130246E+17   3.72000091E+07   0.00000000E+00   1.10855400E+08   0.29926547      
  22               1.70681442E-03   1.61563742E-02   493.56364576     9.27526005E-07   2.37097284E+17   3.72000091E+07   0.00000000E+00   1.09972243E+08   0.29925452      
  23               2.01928028E-03   1.89575828E-02   505.93391802     1.06173043E-06   2.71403227E+17   3.72000091E+07   0.00000000E+00   1.09079606E+08   0.29922937      
  24               2.38894914E-03   2.22192293E-02   512.28971398     1.22896197E-06   3.14151541E+17   3.72000091E+07   0.00000000E+00   1.08176662E+08   0.2992094       
  25               2.82629313E-03   2.60148876E-02   525.59790303     1.40246869E-06   3.58504136E+17   3.72000091E+07   0.00000000E+00   1.07262399E+08   0.29914047      
  26               3.34370152E-03   3.04290515E-02   533.02725368     1.61757270E-06   4.13489837E+17   3.72000091E+07   0.00000000E+00   1.06335633E+08   0.29908674      
  27               3.95583167E-03   3.55590502E-02   547.50457645     1.84029301E-06   4.70422665E+17   3.72000091E+07   0.00000000E+00   1.05395386E+08   0.29898603      
  28               4.68002425E-03   4.15144704E-02   556.18998851     2.11495366E-06   5.40632530E+17   3.72000091E+07   0.00000000E+00   1.04440793E+08   0.29890771      
  29               5.53679448E-03   4.84199059E-02   572.11998223     2.39806602E-06   6.13003091E+17   3.72000091E+07   0.00000000E+00   1.03471154E+08   0.2987786       
  30               6.55041330E-03   5.64147480E-02   582.46990982     2.74437461E-06   7.01527980E+17   3.72000091E+07   0.00000000E+00   1.02485651E+08   0.29867837      
  31               7.74959494E-03   6.56576971E-02   600.22267280     3.09954039E-06   7.92317210E+17   3.72000091E+07   0.00000000E+00   1.01483484E+08   0.29852485      
  32               9.16831029E-03   7.63216128E-02   612.60752871     3.53011760E-06   9.02383299E+17   3.72000091E+07   0.00000000E+00   1.00464017E+08   0.29840219      
  33               1.08467493E-02   8.85991078E-02   632.60201952     3.96846524E-06   1.01443591E+18   3.72000091E+07   0.00000000E+00   9.94267177E+07   0.29820295      
  34               1.28324595E-02   1.02709895E-01   647.59352462     4.49400443E-06   1.14877672E+18   3.72000091E+07   0.00000000E+00   9.83700871E+07   0.29799846      
  35               1.51816929E-02   1.18907246E-01   670.38010205     5.02586607E-06   1.28473349E+18   3.72000091E+07   0.00000000E+00   9.72923276E+07   0.29768334      
  36               1.79609996E-02   1.37460190E-01   688.49344951     5.65718942E-06   1.44611545E+18   3.72000091E+07   0.00000000E+00   9.61920380E+07   0.2973993       
  37               2.12491128E-02   1.58657079E-01   714.51827951     6.29173018E-06   1.60831810E+18   3.72000091E+07   0.00000000E+00   9.50685024E+07   0.29702486      
  38               2.51391797E-02   1.82784779E-01   736.30087487     7.03414145E-06   1.79808637E+18   3.72000091E+07   0.00000000E+00   9.39216015E+07   0.29666015      
  39               2.97413996E-02   2.10139160E-01   766.04881118     7.77279929E-06   1.98690173E+18   3.72000091E+07   0.00000000E+00   9.27517446E+07   0.29611143      
  40               3.51861462E-02   2.41075461E-01   791.84521623     8.62664248E-06   2.20515209E+18   3.72000091E+07   0.00000000E+00   9.15570440E+07   0.29549423      
  41               4.16276604E-02   2.76028127E-01   825.52533613     9.47440300E-06   2.42185854E+18   3.72000092E+07   0.00000000E+00   9.03344464E+07   0.29475986      
  42               4.92484201E-02   3.15380692E-01   856.25748350     1.04366119E-05   2.66782022E+18   3.71206201E+07   7.93841007E+04   8.90829852E+07   0.29399578      
  43               5.82643093E-02   3.59559646E-01   892.25026317     1.14186151E-05   2.91883872E+18   3.69761192E+07   2.23883336E+05   8.78032234E+07   0.29312163      
  44               6.89307339E-02   4.08992349E-01   924.04400772     1.25416204E-05   3.20588817E+18   3.68391087E+07   3.60891842E+05   8.64969587E+07   0.29224867      
  45               8.15498567E-02   4.64191427E-01   961.40315548     1.36814336E-05   3.49717538E+18   3.67337372E+07   4.66262569E+05   8.51643875E+07   0.2912593       
  46               9.64791575E-02   5.25879287E-01   994.23848281     1.49875393E-05   3.83108102E+18   3.67085702E+07   4.91428589E+05   8.38020998E+07   0.29029667      
  47               1.14141560E-01   5.94783565E-01   1033.14251547    1.63126395E-05   4.16988968E+18   3.67430782E+07   4.56920967E+05   8.24085611E+07   0.28921186      
  48               1.35037411E-01   6.71626987E-01   1067.13099029    1.78330601E-05   4.55864996E+18   3.68499365E+07   3.50062007E+05   8.09838337E+07   0.28815807      
  49               1.59758657E-01   7.57142306E-01   1107.55440897    1.93693054E-05   4.95151710E+18   3.69835109E+07   2.16488593E+05   7.95287962E+07   0.28695334      
  50               1.89005613E-01   8.52099817E-01   1142.55796281    2.11301468E-05   5.40179465E+18   3.71464453E+07   5.35574420E+04   7.80444978E+07   0.28578879      
  51               2.23606798E-01   9.57631830E-01   1184.46346266    2.29062746E-05   5.85602260E+18   3.72000094E+07   0.00000000E+00   7.65276013E+07   0.28447041      
  52               2.64542408E-01   1.07518065E+00   1219.09923417    2.49868674E-05   6.38804873E+18   3.72000090E+07   0.00000000E+00   7.49738365E+07   0.28323467      
  53               3.12972084E-01   1.20639624E+00   1260.48632965    2.71151586E-05   6.93230518E+18   3.72000090E+07   0.00000000E+00   7.33797070E+07   0.28186855      
  54               3.70267763E-01   1.35325592E+00   1294.81284422    2.96091071E-05   7.57005048E+18   3.72000090E+07   0.00000000E+00   7.17406881E+07   0.28059383      
  55               4.38052539E-01   1.51849110E+00   1336.11729742    3.21963743E-05   8.23177522E+18   3.72000090E+07   0.00000000E+00   7.00483520E+07   0.27918432      
  56               5.18246648E-01   1.70569523E+00   1370.20940505    3.52644693E-05   9.01654865E+18   3.72000090E+07   0.00000000E+00   6.82914653E+07   0.27790187      
  57               6.13121862E-01   1.91977826E+00   1411.39626398    3.85306851E-05   9.85208036E+18   3.72000091E+07   0.00000000E+00   6.64548760E+07   0.27656541      
  58               7.25365844E-01   2.16537586E+00   1445.39700686    4.24364478E-05   1.08510553E+19   3.72000090E+07   0.00000000E+00   6.45342092E+07   0.27521679      
  59               8.58158289E-01   2.44603487E+00   1487.09060809    4.65944014E-05   1.19138205E+19   3.72000091E+07   0.00000000E+00   6.25382602E+07   0.27381323      
  60               1.01526100E+00   2.76277154E+00   1522.01063304    5.14208941E-05   1.31478011E+19   3.72000091E+07   0.00000000E+00   6.04919888E+07   0.27244426      
  61               1.20112443E+00   3.10971078E+00   1565.43168095    5.62955478E-05   1.43883740E+19   3.72000090E+07   0.00000000E+00   5.84526998E+07   0.27100271      
  62               1.42101382E+00   3.48234614E+00   1602.71441114    6.15769228E-05   1.57377135E+19   3.71999424E+07   0.00000000E+00   5.64512731E+07   0.26955887      
  63               1.68115827E+00   3.87639286E+00   1649.71176394    6.65972565E-05   1.70194513E+19   3.71143588E+07   8.56801856E+04   5.45054022E+07   0.26801077      
  64               1.98892727E+00   4.27189016E+00   1692.94030206    7.15385768E-05   1.82769731E+19   3.46884170E+07   2.51178699E+06   5.26934161E+07   0.2662881       
  65               2.35303941E+00   4.64601530E+00   1731.22187743    7.61186080E-05   1.94380970E+19   3.11880563E+07   6.01309071E+06   5.10901245E+07   0.26488832      
  66               2.78380943E+00   4.98021703E+00   1763.15770023    8.02042990E-05   2.04589316E+19   2.74728921E+07   9.72728962E+06   4.97374434E+07   0.26353995      
  67               3.29344035E+00   5.27177630E+00   1789.84473375    8.36331149E-05   2.13337625E+19   2.46097524E+07   1.25916283E+07   4.86117009E+07   0.26256705      
  68               3.89636920E+00   5.59781044E+00   1818.11860459    8.74222188E-05   2.23008705E+19   2.22137965E+07   1.50024020E+07   4.74059346E+07   0.26135312      
  69               4.60967600E+00   5.88044813E+00   1841.69627992    9.06860093E-05   2.31269442E+19   1.98382947E+07   1.73709474E+07   4.64020916E+07   0.26050119      
  70               5.45356761E+00   6.10924850E+00   1860.00366651    9.32859439E-05   2.37902951E+19   1.81472127E+07   1.90504308E+07   4.56154470E+07   0.25968654      
  71               6.45195012E+00   6.36733978E+00   1880.13914622    9.61841051E-05   2.45297924E+19   1.69782700E+07   2.02193382E+07   4.47538311E+07   0.25888006      
  72               7.63310614E+00   6.65724715E+00   1901.83257523    9.94143879E-05   2.53541023E+19   1.58579465E+07   2.13617600E+07   4.38163055E+07   0.25792429      
  73               9.03049593E+00   6.98343886E+00   1925.46744527    1.03000117E-04   2.62699348E+19   1.42253359E+07   2.30845493E+07   4.27969410E+07   0.25692769      
  74               1.06837053E+01   7.23020195E+00   1942.60756430    1.05790300E-04   2.69582187E+19   1.23738514E+07   2.48879169E+07   4.20493067E+07   0.25615172      
  75               1.26395671E+01   7.40941568E+00   1954.89466722    1.07729712E-04   2.74527868E+19   1.12152535E+07   2.59820956E+07   4.15184459E+07   0.25559871      
  76               1.49534878E+01   7.61456826E+00   1968.49823000    1.09945718E-04   2.80179332E+19   1.06002275E+07   2.65970311E+07   4.09223445E+07   0.25502368      
  77               1.76910170E+01   7.84844455E+00   1983.80594998    1.12446159E-04   2.86556488E+19   1.00800490E+07   2.71171342E+07   4.02571865E+07   0.25410733      
  78               2.09297047E+01   8.11396812E+00   2000.53291973    1.15275771E-04   2.93774053E+19   9.59798166E+06   2.75991534E+07   3.95196868E+07   0.25345728      
  79               2.47612977E+01   8.41465188E+00   2019.14406048    1.18442567E-04   3.01852438E+19   9.09902697E+06   2.80979767E+07   3.87059439E+07   0.25232163      
  80               2.92943389E+01   8.75270991E+00   2039.15306811    1.21988348E-04   3.10898443E+19   8.59110878E+06   2.86056244E+07   3.78165822E+07   0.25146064      
  81               3.46572422E+01   9.13219871E+00   2061.12557222    1.25915582E-04   3.20919969E+19   8.13660536E+06   2.90599779E+07   3.68483037E+07   0.25009059      
  82               4.10019301E+01   9.55862742E+00   2084.57248143    1.30306759E-04   3.32127146E+19   7.71663850E+06   2.94799143E+07   3.57955579E+07   0.24896427      
  83               4.85081376E+01   1.00362918E+01   2110.14329398    1.35152836E-04   3.44498371E+19   7.29056670E+06   2.99059698E+07   3.46573352E+07   0.24729864      
  84               5.73885036E+01   1.05697978E+01   2137.06291335    1.40534938E-04   3.58240936E+19   6.86072365E+06   3.03358070E+07   3.34331842E+07   0.24587335      
  85               6.78945948E+01   1.11640624E+01   2166.12663455    1.46432747E-04   3.73305382E+19   6.43051984E+06   3.07660226E+07   3.21231906E+07   0.24394865      
  86               8.03240320E+01   1.18244192E+01   2196.34886768    1.52945701E-04   3.89945879E+19   6.00041398E+06   3.11961556E+07   3.07278133E+07   0.24219969      
  87               9.50289215E+01   1.25566352E+01   2228.68607829    1.60041830E-04   4.08084610E+19   5.57641711E+06   3.16202027E+07   2.92478374E+07   0.23989592      
  88               1.12425830E+02   1.33670510E+01   2261.92232208    1.67845491E-04   4.28039411E+19   5.15644162E+06   3.20402482E+07   2.76841955E+07   0.23768001      
  89               1.33007583E+02   1.42626110E+01   2297.20228849    1.76312298E-04   4.49702846E+19   4.75372315E+06   3.24430645E+07   2.60379305E+07   0.23499552      
  90               1.57357229E+02   1.52510545E+01   2333.10905406    1.85595680E-04   4.73468044E+19   4.35704471E+06   3.28398641E+07   2.43099933E+07   0.23234637      
  91               1.86164557E+02   1.63404583E+01   2370.95505575    1.95656317E-04   4.99191005E+19   3.98033142E+06   3.32167248E+07   2.25021009E+07   0.22935023      
  92               2.20245630E+02   1.75404131E+01   2409.16332867    2.06643031E-04   5.27350560E+19   3.62387778E+06   3.35733467E+07   2.06149382E+07   0.22625409      
  93               2.60565913E+02   1.88620430E+01   2449.20402756    2.18517564E-04   5.57814250E+19   3.30059502E+06   3.38968180E+07   1.86481461E+07   0.22302512      
  94               3.08267614E+02   2.03172528E+01   2489.43800335    2.31498027E-04   5.91138859E+19   2.98552311E+06   3.42120943E+07   1.66021204E+07   0.21947653      
  95               3.64702046E+02   2.19197057E+01   2531.31018767    2.45533955E-04   6.27213203E+19   2.69983576E+06   3.44979950E+07   1.44766332E+07   0.21606634      
  96               4.31467909E+02   2.36847674E+01   2573.31320625    2.60867701E-04   6.66656801E+19   2.42599224E+06   3.47720602E+07   1.22711857E+07   0.21202974      
  97               5.10456573E+02   2.56300539E+01   2616.65055504    2.77487954E-04   7.09462806E+19   2.18519982E+06   3.50130708E+07   9.98477345E+06   0.20859178      
  98               6.03905660E+02   2.77753464E+01   2660.26912130    2.95631199E-04   7.56240183E+19   1.95190369E+06   3.52465860E+07   7.61616847E+06   0.20401882      
  99               7.14462436E+02   3.01434536E+01   2704.69246809    3.15385902E-04   8.07236810E+19   1.75206077E+06   3.54466332E+07   5.16367012E+06   0.20060928      
  100              8.45258798E+02   3.27597034E+01   2749.82901155    3.36919503E-04   8.62899288E+19   1.56069071E+06   3.56382021E+07   2.62562772E+06   0.19570286      
  101              1.00000000E+03   3.56533588E+01   2795.02962291    3.60503257E-04   9.23931714E+19   1.46459182E+06   3.57343556E+07   0.00000000E+00   0.19261363      
