# ATMO pressure-temperature profile
# Effective temperature = 250.0K
# log(g) = 4.5cm/s^2
# M/H = 0.0
# Optical depth grid in band 17 (1.20-1.33microns)
# All parameters in cgs units
#
# Model Level      Optical Depth    Pressure         Temperature      Density          Number Density   Rad Flux         Conv Flux        Radial Extension Adiabatic Gradient
#                                   [Ba]             [K]              [g/cm^3]         [/cm^3]          [ergs/s/cm^2/sr] [ergs/s/cm^2/sr] [cm]             [K/Ba]          
  1                5.00000000E-05   1.00000000E-05   27.83764558      1.01847584E-08   2.60191640E+15   2.21419160E+05   0.00000000E+00   6.65700155E+06   0.34585198      
  2                5.91534807E-05   2.36372182E-04   34.52489879      1.94109670E-07   4.95895069E+16   2.21419160E+05   0.00000000E+00   6.49600221E+06   0.3147936       
  3                6.99826855E-05   5.02645446E-04   38.97716258      3.65624045E-07   9.34065586E+16   2.21419160E+05   0.00000000E+00   6.46439497E+06   0.31482225      
  4                8.27943887E-05   8.16207166E-04   41.29677342      5.60360479E-07   1.43156187E+17   2.21419160E+05   0.00000000E+00   6.44248852E+06   0.31484175      
  5                9.79515255E-05   1.18544540E-03   43.80681407      7.67225627E-07   1.96004357E+17   2.21419160E+05   0.00000000E+00   6.42468068E+06   0.31485738      
  6                1.15883473E-04   1.62006166E-03   45.37076852      1.01236849E-06   2.58631398E+17   2.21419160E+05   0.00000000E+00   6.40908605E+06   0.31487092      
  7                1.37098216E-04   2.13153831E-03   47.47498927      1.27295039E-06   3.25202673E+17   2.21419160E+05   0.00000000E+00   6.39483815E+06   0.3148832       
  8                1.62196734E-04   2.73312204E-03   48.81677411      1.58735169E-06   4.05523276E+17   2.21419160E+05   0.00000000E+00   6.38145514E+06   0.31489467      
  9                1.91890027E-04   3.44020171E-03   50.83813695      1.91856930E-06   4.90139970E+17   2.21419160E+05   0.00000000E+00   6.36864237E+06   0.31490562      
  10               2.27019260E-04   4.27098597E-03   52.11705439      2.32344017E-06   5.93572979E+17   2.21419160E+05   0.00000000E+00   6.35619912E+06   0.31491624      
  11               2.68579588E-04   5.24626741E-03   54.16854466      2.74591106E-06   7.01502293E+17   2.21419160E+05   0.00000000E+00   6.34398897E+06   0.31492665      
  12               3.17748350E-04   6.38985700E-03   55.50869718      3.26372317E-06   8.33788584E+17   2.21419160E+05   0.00000000E+00   6.33190888E+06   0.31493697      
  13               3.75918418E-04   7.72992325E-03   57.67414158      3.79994449E-06   9.70777903E+17   2.21419160E+05   0.00000000E+00   6.31987568E+06   0.31494728      
  14               4.44737657E-04   9.29886290E-03   59.11865867      4.45952375E-06   1.13928168E+18   2.21419160E+05   0.00000000E+00   6.30782329E+06   0.31495765      
  15               5.26155608E-04   1.11336027E-02   61.47472526      5.13478580E-06   1.31179195E+18   2.21419160E+05   0.00000000E+00   6.29569864E+06   0.31496813      
  16               6.22478712E-04   1.32763243E-02   63.12428732      5.96299675E-06   1.52337634E+18   2.21419160E+05   0.00000000E+00   6.28345326E+06   0.3149788       
  17               7.36435649E-04   1.57761277E-02   65.74269775      6.80355810E-06   1.73811589E+18   2.21419160E+05   0.00000000E+00   6.27104230E+06   0.3149897       
  18               8.71254639E-04   1.86900125E-02   67.64498313      7.83352451E-06   2.00124306E+18   2.21419160E+05   0.00000000E+00   6.25842037E+06   0.31500089      
  19               1.03075489E-03   2.20841139E-02   70.63458165      8.86432779E-06   2.26458403E+18   2.21419160E+05   0.00000000E+00   6.24554015E+06   0.31501244      
  20               1.21945479E-03   2.60327550E-02   72.99593472      1.01112457E-05   2.58313615E+18   2.21419160E+05   0.00000000E+00   6.23235083E+06   0.3150244       
  21               1.44269991E-03   3.06137119E-02   76.62996528      1.13266262E-05   2.89363135E+18   2.21419160E+05   0.00000000E+00   6.21881441E+06   0.31503684      
  22               1.70681442E-03   3.59182618E-02   79.98196620      1.27322876E-05   3.25273794E+18   2.21415368E+05   0.00000000E+00   6.20484607E+06   0.31504984      
  23               2.01928028E-03   4.20608002E-02   83.89211285      1.42147623E-05   3.63146814E+18   2.21410248E+05   8.92905014E+00   6.19040747E+06   0.31506346      
  24               2.38894914E-03   4.91774798E-02   88.30449185      1.57894381E-05   4.03375310E+18   2.21396370E+05   2.28024988E+01   6.17538559E+06   0.31507777      
  25               2.82629313E-03   5.74295650E-02   92.54179834      1.75946566E-05   4.49493516E+18   2.21374416E+05   4.47587572E+01   6.15972926E+06   0.31509286      
  26               3.34370152E-03   6.70056407E-02   97.34507778      1.95155399E-05   4.98566631E+18   2.21343687E+05   7.54842766E+01   6.14338720E+06   0.31510886      
  27               3.95583167E-03   7.81266298E-02   101.96627018     2.17232970E-05   5.54968580E+18   2.21304588E+05   1.14592958E+02   6.12630711E+06   0.31512593      
  28               4.68002425E-03   9.10509738E-02   107.22112625     2.40761669E-05   6.15077825E+18   2.21260420E+05   1.58746859E+02   6.10843598E+06   0.31514426      
  29               5.53679448E-03   1.06080619E-01   112.28438672     2.67854849E-05   6.84293659E+18   2.21217393E+05   2.01776259E+02   6.08972031E+06   0.31516405      
  30               6.55041330E-03   1.23561337E-01   118.05123232     2.96752114E-05   7.58119932E+18   2.21183306E+05   2.35860270E+02   6.07011324E+06   0.31518556      
  31               7.74959494E-03   1.43898487E-01   123.61077652     3.30048483E-05   8.43190557E+18   2.21166280E+05   2.52888485E+02   6.04956360E+06   0.31811127      
  32               9.16831029E-03   1.67566957E-01   130.06442300     3.65231366E-05   9.33159120E+18   2.21169551E+05   2.49613943E+02   6.02800616E+06   0.32097         
  33               1.08467493E-02   1.95126495E-01   136.30376739     4.05874666E-05   1.03689367E+19   2.21197276E+05   2.21891041E+02   6.00537056E+06   0.32337004      
  34               1.28324595E-02   2.27232423E-01   143.52731161     4.48868479E-05   1.14673110E+19   2.21252235E+05   1.66929042E+02   5.98158411E+06   0.32505671      
  35               1.51816929E-02   2.64632222E-01   150.49479748     4.98545632E-05   1.27364113E+19   2.21332296E+05   8.68896037E+01   5.95658311E+06   0.3261399       
  36               1.79609996E-02   3.08202527E-01   158.52740870     5.51208000E-05   1.40817839E+19   2.21409982E+05   9.16448281E+00   5.93029978E+06   0.32541688      
  37               2.12491128E-02   3.58980889E-01   166.19424966     6.12405389E-05   1.56452020E+19   2.21429394E+05   0.00000000E+00   5.90266211E+06   0.32506802      
  38               2.51391797E-02   4.18206455E-01   174.51231421     6.79435567E-05   1.73576327E+19   2.21411374E+05   0.00000000E+00   5.87362753E+06   0.32481372      
  39               2.97413996E-02   4.87314524E-01   183.40849213     7.53309351E-05   1.92449042E+19   2.21192397E+05   2.26964448E+02   5.84308058E+06   0.32407136      
  40               3.51861462E-02   5.67981198E-01   192.71218818     8.35617508E-05   2.13476767E+19   2.20638868E+05   7.80392783E+02   5.81092889E+06   0.32282791      
  41               4.16276604E-02   6.61860274E-01   202.46114193     9.26840524E-05   2.36782975E+19   2.19789624E+05   1.62959593E+03   5.77719531E+06   0.32100369      
  42               4.92484201E-02   7.70851928E-01   212.56227234     1.02815257E-04   2.62670087E+19   2.18226085E+05   3.19309457E+03   5.74188821E+06   0.31875529      
  43               5.82643093E-02   8.97183536E-01   223.07663143     1.14019135E-04   2.91308433E+19   2.15252813E+05   6.16637195E+03   5.70499093E+06   0.31671388      
  44               6.89307339E-02   1.04361116E+00   233.96752544     1.26380277E-04   3.23079180E+19   2.10557166E+05   1.08620218E+04   5.66641695E+06   0.31461211      
  45               8.15498567E-02   1.21367136E+00   245.32256764     1.40265133E-04   3.58335176E+19   2.04555968E+05   1.68634407E+04   5.62602562E+06   0.31265573      
  46               9.64791575E-02   1.41151127E+00   257.13376867     1.55635912E-04   3.97604303E+19   1.97901126E+05   2.35184883E+04   5.58368237E+06   0.31069901      
  47               1.14141560E-01   1.64162560E+00   269.45915048     1.72730062E-04   4.41272660E+19   1.91032545E+05   3.03871524E+04   5.53930058E+06   0.30903292      
  48               1.35037411E-01   1.90891925E+00   282.27631340     1.91734325E-04   4.89822759E+19   1.84093412E+05   3.73268315E+04   5.49285390E+06   0.3074243       
  49               1.59758657E-01   2.21896549E+00   295.61580367     2.12818631E-04   5.43686738E+19   1.77376638E+05   4.40435280E+04   5.44431703E+06   0.30607904      
  50               1.89005613E-01   2.57812907E+00   309.47323885     2.36193693E-04   6.03402902E+19   1.71448674E+05   4.99714972E+04   5.39365842E+06   0.30478237      
  51               2.23606798E-01   2.99341724E+00   323.85794801     2.62059214E-04   6.69481431E+19   1.66772806E+05   5.46475787E+04   5.34087279E+06   0.3037597       
  52               2.64542408E-01   3.47245493E+00   338.77319779     2.90612513E-04   7.42426413E+19   1.63707862E+05   5.77126025E+04   5.28598031E+06   0.30284529      
  53               3.12972084E-01   4.02420794E+00   354.22096392     3.22101605E-04   8.22871447E+19   1.62679712E+05   5.87407146E+04   5.22895192E+06   0.30217225      
  54               3.70267763E-01   4.65972435E+00   370.25732579     3.56815154E-04   9.11554009E+19   1.63745807E+05   5.76739481E+04   5.16967186E+06   0.3015502       
  55               4.38052539E-01   5.39061311E+00   386.86413560     3.95063171E-04   1.00926574E+20   1.66465780E+05   5.49590591E+04   5.10811217E+06   0.30108598      
  56               5.18246648E-01   6.22857504E+00   404.06304481     4.37045262E-04   1.11651718E+20   1.70095358E+05   5.13264816E+04   5.04434050E+06   0.30071855      
  57               6.13121862E-01   7.18491197E+00   421.77727377     4.82975519E-04   1.23385497E+20   1.73722561E+05   4.76975077E+04   4.97851636E+06   0.30048044      
  58               7.25365844E-01   8.27279122E+00   440.03518955     5.33029529E-04   1.36172840E+20   1.76275992E+05   4.51434306E+04   4.91071436E+06   0.30026059      
  59               8.58158289E-01   9.50815348E+00   458.79358948     5.87585223E-04   1.50108291E+20   1.76504662E+05   4.49146291E+04   4.84090957E+06   0.30007309      
  60               1.01526100E+00   1.09066997E+01   478.08883785     6.46810058E-04   1.65238252E+20   1.72978237E+05   4.84412441E+04   4.76917095E+06   0.29989623      
  61               1.20112443E+00   1.24840653E+01   497.83228348     7.10993248E-04   1.81634697E+20   1.63909711E+05   5.75108082E+04   4.69561608E+06   0.29976119      
  62               1.42101382E+00   1.42564722E+01   518.05572017     7.80244206E-04   1.99324847E+20   1.50076192E+05   7.13471356E+04   4.62036446E+06   0.2996199       
  63               1.68115827E+00   1.62455871E+01   538.70800462     8.55021327E-04   2.18427755E+20   1.38373019E+05   8.30533221E+04   4.54335287E+06   0.29948346      
  64               1.98892727E+00   1.84820857E+01   559.93800351     9.35846500E-04   2.39076492E+20   1.30941033E+05   9.04874755E+04   4.46428904E+06   0.29931984      
  65               2.35303941E+00   2.09947128E+01   581.68794633     1.02340322E-03   2.61424155E+20   1.24503478E+05   9.69277896E+04   4.38309768E+06   0.29914632      
  66               2.78380943E+00   2.38095036E+01   604.01243159     1.11771571E-03   2.85515903E+20   1.18330151E+05   1.03104867E+05   4.29987206E+06   0.29894128      
  67               3.29344035E+00   2.69490911E+01   626.76616834     1.21917333E-03   3.11432848E+20   1.12466735E+05   1.08973121E+05   4.21482208E+06   0.29873494      
  68               3.89636920E+00   3.04348749E+01   649.97607965     1.32770322E-03   3.39156377E+20   1.07309627E+05   1.14135599E+05   4.12818233E+06   0.29848509      
  69               4.60967600E+00   3.43097228E+01   673.61014894     1.44422690E-03   3.68921892E+20   1.02831108E+05   1.18619623E+05   4.03969391E+06   0.29820613      
  70               5.45356761E+00   3.86242225E+01   697.84379307     1.56938088E-03   4.00891982E+20   9.85358231E+04   1.22921011E+05   3.94906880E+06   0.29780411      
  71               6.45195012E+00   4.34247890E+01   722.57030351     1.70405813E-03   4.35294768E+20   9.40796751E+04   1.27384673E+05   3.85623928E+06   0.29738157      
  72               7.63310614E+00   4.87550553E+01   747.89620456     1.84843886E-03   4.72176277E+20   8.92867447E+04   1.32187278E+05   3.76126540E+06   0.29685262      
  73               9.03049593E+00   5.46586931E+01   773.64565803     2.00329028E-03   5.11732489E+20   8.42489584E+04   1.37237170E+05   3.66424898E+06   0.29633207      
  74               1.06837053E+01   6.11878858E+01   799.96918347     2.16879742E-03   5.54010543E+20   7.94775689E+04   1.42019798E+05   3.56519360E+06   0.29570896      
  75               1.26395671E+01   6.84342271E+01   826.81334619     2.34688976E-03   5.99503507E+20   7.56012561E+04   1.45899366E+05   3.46362418E+06   0.29501443      
  76               1.49534878E+01   7.65062227E+01   854.47411006     2.53878077E-03   6.48520474E+20   7.29284282E+04   1.48560925E+05   3.35905057E+06   0.2942321       
  77               1.76910170E+01   8.54925442E+01   882.76774740     2.74605650E-03   7.01467612E+20   7.14785453E+04   1.49985618E+05   3.25142519E+06   0.29338352      
  78               2.09297047E+01   9.54580549E+01   911.79607293     2.96855117E-03   7.58299383E+20   7.11609998E+04   1.50276029E+05   3.14104963E+06   0.29244744      
  79               2.47612977E+01   1.06441308E+02   941.20058614     3.20671433E-03   8.19131929E+20   7.17296549E+04   1.49690459E+05   3.02847795E+06   0.29145145      
  80               2.92943389E+01   1.18474356E+02   971.04488447     3.45953120E-03   8.83712281E+20   7.27135415E+04   1.48708410E+05   2.91423304E+06   0.29037979      
  81               3.46572422E+01   1.31616032E+02   1001.04777480    3.72808855E-03   9.52313255E+20   7.37951231E+04   1.48161244E+05   2.79851553E+06   0.28927789      
  82               4.10019301E+01   1.46021802E+02   1031.58215525    4.01371335E-03   1.02527348E+21   7.47167666E+04   1.47089978E+05   2.68074945E+06   0.28811521      
  83               4.85081376E+01   1.61832965E+02   1062.46715509    4.31901422E-03   1.10325859E+21   7.51337702E+04   1.46556324E+05   2.56066179E+06   0.28692157      
  84               5.73885036E+01   1.79168991E+02   1093.94481697    4.64410649E-03   1.18629656E+21   7.49718003E+04   1.46709931E+05   2.43825478E+06   0.28565955      
  85               6.78945948E+01   1.98131198E+02   1125.69557283    4.99079554E-03   1.27484606E+21   7.42167413E+04   1.47204991E+05   2.31370209E+06   0.28437669      
  86               8.03240320E+01   2.18797704E+02   1157.90680006    5.35819109E-03   1.36865818E+21   7.34361930E+04   1.47990491E+05   2.18732336E+06   0.28304316      
  87               9.50289215E+01   2.41253648E+02   1190.21961672    5.74771885E-03   1.46815742E+21   7.36839085E+04   1.47743085E+05   2.05936329E+06   0.28171854      
  88               1.12425830E+02   2.65669569E+02   1222.98805219    6.15982002E-03   1.57342279E+21   7.47214336E+04   1.46699564E+05   1.92960313E+06   0.28035027      
  89               1.33007583E+02   2.92351056E+02   1256.07898281    6.59987723E-03   1.68582914E+21   7.59474596E+04   1.45474296E+05   1.79727319E+06   0.27896474      
  90               1.57357229E+02   3.21576917E+02   1289.91295891    7.06923369E-03   1.80571956E+21   7.71650235E+04   1.44726564E+05   1.66196838E+06   0.27755798      
  91               1.86164557E+02   3.53581172E+02   1324.15531934    7.57177770E-03   1.93408716E+21   7.82169265E+04   1.43542533E+05   1.52363638E+06   0.27615487      
  92               2.20245630E+02   3.88557791E+02   1359.10266149    8.10682545E-03   2.07075728E+21   7.89272494E+04   1.42783255E+05   1.38246277E+06   0.2747181       
  93               2.60565913E+02   4.26679691E+02   1394.31036877    8.67740393E-03   2.21650316E+21   7.93372258E+04   1.42083427E+05   1.23873051E+06   0.27324945      
  94               3.08267614E+02   4.68198681E+02   1430.13989356    9.28322376E-03   2.37125088E+21   7.95065579E+04   1.41914202E+05   1.09244459E+06   0.27175989      
  95               3.64702046E+02   5.13316145E+02   1466.14575031    9.92784146E-03   2.53590872E+21   7.86465985E+04   1.42801536E+05   9.43827790E+05   0.27028231      
  96               4.31467909E+02   5.61323700E+02   1502.00793370    1.05971300E-02   2.70686747E+21   7.70415884E+04   1.44497698E+05   7.95818793E+05   0.2688375       
  97               5.10456573E+02   6.13122829E+02   1537.87606778    1.13050708E-02   2.88769944E+21   7.57671221E+04   1.45889825E+05   6.46163614E+05   0.26742899      
  98               6.03905660E+02   6.69631624E+02   1574.57490807    1.20592484E-02   3.08033867E+21   7.47535225E+04   1.46778190E+05   4.93118516E+05   0.26603159      
  99               7.14462436E+02   7.31834548E+02   1612.01830994    1.28733083E-02   3.28827989E+21   7.38947422E+04   1.47525773E+05   3.35246312E+05   0.26463345      
  100              8.45258798E+02   8.00832245E+02   1650.92303730    1.37551114E-02   3.51350490E+21   7.22290468E+04   1.49209539E+05   1.71278751E+05   0.26321012      
  101              1.00000000E+03   8.77899849E+02   1691.11059958    1.47188145E-02   3.76009487E+21   7.07490095E+04   1.50686046E+05   0.00000000E+00   0.26176158      
