# ATMO pressure-temperature profile
# Effective temperature = 300.0K
# log(g) = 5.0cm/s^2
# M/H = 0.0
# Optical depth grid in band 17 (1.20-1.33microns)
# All parameters in cgs units
#
# Model Level      Optical Depth    Pressure         Temperature      Density          Number Density   Rad Flux         Conv Flux        Radial Extension Adiabatic Gradient
#                                   [Ba]             [K]              [g/cm^3]         [/cm^3]          [ergs/s/cm^2/sr] [ergs/s/cm^2/sr] [cm]             [K/Ba]          
  1                5.00000000E-07   1.00000000E-05   23.50791631      1.20605986E-08   3.08114193E+15   4.59189081E+05   0.00000000E+00   2.55116855E+06   0.34574499      
  2                6.19412983E-07   1.92663389E-05   28.47711996      1.91816574E-08   4.90037111E+15   4.59189081E+05   0.00000000E+00   2.54507626E+06   0.34574499      
  3                7.67344888E-07   3.07429868E-05   29.71215033      2.93356000E-08   7.49441633E+15   4.59189081E+05   0.00000000E+00   2.54023816E+06   0.34574499      
  4                9.50606773E-07   4.49562949E-05   31.09233135      4.09939931E-08   1.04728061E+16   4.59189081E+05   0.00000000E+00   2.53613954E+06   0.34574499      
  5                1.17763635E-06   6.25578370E-05   32.10401234      5.52465814E-08   1.41139395E+16   4.59189081E+05   0.00000000E+00   2.53244094E+06   0.34574499      
  6                1.45888650E-06   8.43533614E-05   33.43019105      7.15396043E-08   1.82763461E+16   4.59189081E+05   0.00000000E+00   2.52897404E+06   0.34574499      
  7                1.80730647E-06   1.11339969E-04   34.42556780      9.16965471E-08   2.34258751E+16   4.59189081E+05   0.00000000E+00   2.52564209E+06   0.31479391      
  8                2.23893819E-06   1.44750925E-04   35.81519571      1.14587440E-07   2.92738509E+16   4.59189081E+05   0.00000000E+00   2.52238264E+06   0.3148028       
  9                2.77365477E-06   1.86109241E-04   36.98475281      1.42668540E-07   3.64477780E+16   4.59189081E+05   0.00000000E+00   2.51914797E+06   0.31481155      
  10               3.43607555E-06   2.37300114E-04   38.52541157      1.74635953E-07   4.46145483E+16   4.59189081E+05   0.00000000E+00   2.51590486E+06   0.31482022      
  11               4.25669961E-06   3.00650598E-04   39.77726407      2.14294074E-07   5.47460768E+16   4.59189081E+05   0.00000000E+00   2.51263011E+06   0.31482887      
  12               5.27331001E-06   3.79031131E-04   41.28425469      2.60299558E-07   6.64991772E+16   4.59189081E+05   0.00000000E+00   2.50931142E+06   0.31483755      
  13               6.53271338E-06   4.75992719E-04   42.36823565      3.18524564E-07   8.13740199E+16   4.59189081E+05   0.00000000E+00   2.50594405E+06   0.31484631      
  14               8.09289496E-06   5.95909839E-04   43.75829263      3.86103010E-07   9.86384019E+16   4.59189081E+05   0.00000000E+00   2.50252458E+06   0.31485516      
  15               1.00256884E-05   7.44163381E-04   44.81082478      4.70834586E-07   1.20284924E+17   4.59189081E+05   0.00000000E+00   2.49904747E+06   0.31486414      
  16               1.24200832E-05   9.27403522E-04   46.31430833      5.67723089E-07   1.45037197E+17   4.59189081E+05   0.00000000E+00   2.49550327E+06   0.31487328      
  17               1.53863215E-05   1.15380435E-03   47.48931143      6.88841491E-07   1.75979524E+17   4.59189081E+05   0.00000000E+00   2.49188292E+06   0.31488259      
  18               1.90609746E-05   1.43337557E-03   49.12853773      8.27197396E-07   2.11325546E+17   4.59189081E+05   0.00000000E+00   2.48817929E+06   0.3148921       
  19               2.36132303E-05   1.77845321E-03   50.38201168      1.00080609E-06   2.55677657E+17   4.59189081E+05   0.00000000E+00   2.48438668E+06   0.31490184      
  20               2.92526829E-05   2.20417723E-03   52.15107801      1.19830183E-06   3.06132235E+17   4.59189081E+05   0.00000000E+00   2.48049919E+06   0.31491182      
  21               3.62389832E-05   2.72896446E-03   53.56127696      1.44454128E-06   3.69039452E+17   4.59189081E+05   0.00000000E+00   2.47651045E+06   0.31492208      
  22               4.48937934E-05   3.37530371E-03   55.52660152      1.72343442E-06   4.40288764E+17   4.59189081E+05   0.00000000E+00   2.47241409E+06   0.31493264      
  23               5.56155970E-05   4.17084150E-03   57.07298808      2.07193475E-06   5.29320744E+17   4.59189081E+05   0.00000000E+00   2.46820416E+06   0.31494354      
  24               6.88980457E-05   5.14890037E-03   59.19482426      2.46611742E-06   6.30023273E+17   4.59189081E+05   0.00000000E+00   2.46387732E+06   0.31495481      
  25               8.53526881E-05   6.34948216E-03   60.87427347      2.95724642E-06   7.55492845E+17   4.59189081E+05   0.00000000E+00   2.45943161E+06   0.3149665       
  26               1.05737126E-04   7.82156785E-03   63.17878042      3.50998756E-06   8.96702578E+17   4.59189081E+05   0.00000000E+00   2.45486245E+06   0.31497866      
  27               1.30989898E-04   9.62407451E-03   65.05992117      4.19400016E-06   1.07144846E+18   4.59189081E+05   0.00000000E+00   2.45016449E+06   0.31499134      
  28               1.62273687E-04   1.18270913E-02   67.69540388      4.95338135E-06   1.26544888E+18   4.59189081E+05   0.00000000E+00   2.44533109E+06   0.31500463      
  29               2.01028857E-04   1.45143090E-02   69.90273547      5.88688011E-06   1.50393142E+18   4.59189081E+05   0.00000000E+00   2.44035475E+06   0.3150186       
  30               2.49039768E-04   1.77855761E-02   72.93223141      6.91403281E-06   1.76633989E+18   4.59189081E+05   0.00000000E+00   2.43522723E+06   0.31503334      
  31               3.08516931E-04   2.17536097E-02   75.56316485      8.16214287E-06   2.08519672E+18   4.59189081E+05   0.00000000E+00   2.42994512E+06   0.31504898      
  32               3.82198786E-04   2.65542092E-02   79.19156394      9.50686773E-06   2.42873590E+18   4.59189081E+05   0.00000000E+00   2.42449539E+06   0.31506562      
  33               4.73477780E-04   3.23523917E-02   82.45998288      1.11236202E-05   2.84177044E+18   4.59189082E+05   0.00000000E+00   2.41885707E+06   0.31508343      
  34               5.86556569E-04   3.93548449E-02   86.90740925      1.28387990E-05   3.27995014E+18   4.59189081E+05   0.00000000E+00   2.41299751E+06   0.31510261      
  35               7.26641509E-04   4.78176997E-02   91.23130862      1.48603068E-05   3.79638821E+18   4.59189081E+05   0.00000000E+00   2.40687061E+06   0.31512346      
  36               9.00182369E-04   5.80522292E-02   97.26141009      1.69223759E-05   4.32318857E+18   4.59185053E+05   0.00000000E+00   2.40041669E+06   0.3151463       
  37               1.11516929E-03   7.04354593E-02   102.78297641     1.94291181E-05   4.96359114E+18   4.59174376E+05   1.47342431E+01   2.39358739E+06   0.31517154      
  38               1.38150068E-03   8.54301550E-02   109.85603683     2.20480370E-05   5.63265441E+18   4.59155300E+05   3.38071373E+01   2.38634259E+06   0.31536262      
  39               1.71143891E-03   1.03604453E-01   116.08387655     2.53038619E-05   6.46446157E+18   4.59133137E+05   5.59545326E+01   2.37864811E+06   0.31968442      
  40               2.12017497E-03   1.25639097E-01   124.27261537     2.86630108E-05   7.32276684E+18   4.59113385E+05   7.57097464E+01   2.37046626E+06   0.32282526      
  41               2.62652780E-03   1.52360782E-01   131.47508687     3.28529034E-05   8.39374102E+18   4.59110261E+05   7.88173298E+01   2.36175830E+06   0.32515161      
  42               3.25381085E-03   1.84784172E-01   140.88064949     3.71874927E-05   9.50034250E+18   4.59128189E+05   6.08882094E+01   2.35248204E+06   0.32601998      
  43               4.03090537E-03   2.24155038E-01   149.11075911     4.26209378E-05   1.08884325E+19   4.59169007E+05   2.00347118E+01   2.34259275E+06   0.32520559      
  44               4.99359024E-03   2.71967063E-01   159.74880247     4.82683189E-05   1.23311772E+19   4.59194071E+05   0.00000000E+00   2.33205144E+06   0.32488479      
  45               6.18618926E-03   3.30054658E-01   168.34326211     5.55870420E-05   1.42009032E+19   4.59189099E+05   0.00000000E+00   2.32083731E+06   0.32404998      
  46               7.66361189E-03   4.00710913E-01   179.01558994     6.34634434E-05   1.62131035E+19   4.59189100E+05   0.00000000E+00   2.30894128E+06   0.32259336      
  47               9.49388141E-03   4.86760206E-01   188.08672607     7.33735272E-05   1.87448841E+19   4.59189100E+05   0.00000000E+00   2.29633126E+06   0.32024396      
  48               1.17612668E-02   5.91465925E-01   199.84259722     8.39115597E-05   2.14371725E+19   4.59189098E+05   0.00000000E+00   2.28298715E+06   0.31808533      
  49               1.45701627E-02   7.18421450E-01   210.22062027     9.68886185E-05   2.47531126E+19   4.59189093E+05   0.00000000E+00   2.26890709E+06   0.31555585      
  50               1.80498959E-02   8.72042010E-01   222.61527229     1.11051670E-04   2.83731982E+19   4.59189088E+05   0.00000000E+00   2.25409725E+06   0.3134466       
  51               2.23606798E-02   1.05782157E+00   233.95529692     1.28111094E-04   3.27495529E+19   4.59177541E+05   0.00000000E+00   2.23852175E+06   0.31113975      
  52               2.77009907E-02   1.28295123E+00   248.43376726     1.46414390E-04   3.74046300E+19   4.58594830E+05   5.94445267E+02   2.22208381E+06   0.309212        
  53               3.43167066E-02   1.55590126E+00   263.60122888     1.67348246E-04   4.27523942E+19   4.54647764E+05   4.54140085E+03   2.20464645E+06   0.30726618      
  54               4.25124273E-02   1.88653746E+00   279.68167670     1.91244072E-04   4.88570521E+19   4.47294074E+05   1.18950285E+04   2.18616458E+06   0.30562353      
  55               5.26654988E-02   2.28619848E+00   296.50153207     2.18611775E-04   5.58486692E+19   4.37109475E+05   2.20795906E+04   2.16661844E+06   0.30417358      
  56               6.52433875E-02   2.76812798E+00   314.27896404     2.49722350E-04   6.37964763E+19   4.25112720E+05   3.40763261E+04   2.14599230E+06   0.30306043      
  57               8.08252026E-02   3.34732382E+00   332.81963723     2.85151294E-04   7.28474954E+19   4.12602977E+05   4.65860595E+04   2.12428734E+06   0.3021542       
  58               1.00128360E-01   4.04107995E+00   352.34066161     3.25178063E-04   8.30731190E+19   4.02148343E+05   5.70406903E+04   2.10150446E+06   0.3014556       
  59               1.24041612E-01   4.87173830E+00   372.68521218     3.70619590E-04   9.46820451E+19   3.96554832E+05   6.26342025E+04   2.07757694E+06   0.30091756      
  60               1.53665970E-01   5.86356997E+00   394.10378170     4.21830470E-04   1.07764905E+20   3.96542523E+05   6.26465125E+04   2.05249248E+06   0.30057844      
  61               1.90365394E-01   7.04081839E+00   416.30968866     4.79508761E-04   1.22498977E+20   4.01435877E+05   5.77535150E+04   2.02631654E+06   0.30030295      
  62               2.35829593E-01   8.42935674E+00   439.48911396     5.43796281E-04   1.38922360E+20   4.10151733E+05   4.90373058E+04   1.99912452E+06   0.30006128      
  63               2.92151824E-01   1.00618772E+01   463.38592033     6.15638955E-04   1.57275842E+20   4.19630113E+05   3.95590263E+04   1.97090968E+06   0.29985395      
  64               3.61925265E-01   1.19707285E+01   488.22920956     6.95163226E-04   1.77591699E+20   4.24117346E+05   3.50717688E+04   1.94173100E+06   0.29969193      
  65               4.48362417E-01   1.41884917E+01   513.65798859     7.83168260E-04   2.00072787E+20   4.18549103E+05   4.06400406E+04   1.91167404E+06   0.29952489      
  66               5.55443005E-01   1.67572906E+01   539.98208052     8.79864703E-04   2.24776183E+20   4.05298894E+05   5.38903160E+04   1.88072874E+06   0.29934117      
  67               6.88097217E-01   1.97396538E+01   567.02288772     9.87110482E-04   2.52153372E+20   3.90248740E+05   6.89403251E+04   1.84872659E+06   0.29912791      
  68               8.52432700E-01   2.31935546E+01   595.12106900     1.10506750E-03   2.82285017E+20   3.71701830E+05   8.74875542E+04   1.81565672E+06   0.29891379      
  69               1.05601576E+00   2.71688411E+01   623.83452239     1.23489072E-03   3.15447834E+20   3.51212815E+05   1.07976518E+05   1.78162689E+06   0.29865345      
  70               1.30821975E+00   3.17118546E+01   653.39938470     1.37616253E-03   3.51535153E+20   3.31525540E+05   1.27664274E+05   1.74677752E+06   0.29834194      
  71               1.62065660E+00   3.69159872E+01   683.58368136     1.53126233E-03   3.91154778E+20   3.13700792E+05   1.45489084E+05   1.71092756E+06   0.29790664      
  72               2.00771148E+00   4.28812864E+01   714.85551687     1.70089038E-03   4.34485585E+20   2.95949704E+05   1.63240805E+05   1.67396438E+06   0.29741732      
  73               2.48720511E+00   4.96985500E+01   746.78740397     1.88700697E-03   4.82028341E+20   2.76681255E+05   1.82509637E+05   1.63591171E+06   0.29683155      
  74               3.08121427E+00   5.74571447E+01   779.71975145     2.08945132E-03   5.33741958E+20   2.56485145E+05   2.02706958E+05   1.59683840E+06   0.29622012      
  75               3.81708825E+00   6.62832046E+01   813.28400613     2.31093659E-03   5.90319467E+20   2.38239424E+05   2.20952892E+05   1.55667257E+06   0.29546711      
  76               4.72870805E+00   7.63999586E+01   848.20795939     2.55398109E-03   6.52404007E+20   2.25114951E+05   2.34079474E+05   1.51502992E+06   0.29466068      
  77               5.85804632E+00   8.80016448E+01   884.12004904     2.82232438E-03   7.20950405E+20   2.17565775E+05   2.41625786E+05   1.47181747E+06   0.2936734       
  78               7.25709989E+00   1.01222057E+02   921.26373910     3.11545203E-03   7.95823981E+20   2.15615157E+05   2.43578046E+05   1.42723322E+06   0.29263383      
  79               8.99028379E+00   1.16132938E+02   958.87783726     3.43419159E-03   8.77239081E+20   2.17934532E+05   2.41254917E+05   1.38164728E+06   0.29141385      
  80               1.11373970E+01   1.32827063E+02   997.18135913     3.77698113E-03   9.64802138E+20   2.23013196E+05   2.36176186E+05   1.33529415E+06   0.2901999       
  81               1.37972966E+01   1.51600077E+02   1035.98196189    4.14934842E-03   1.05991995E+21   2.28447396E+05   2.30741675E+05   1.28787304E+06   0.28881427      
  82               1.70924493E+01   1.72733864E+02   1075.78441556    4.55287703E-03   1.16299562E+21   2.31052445E+05   2.28177069E+05   1.23924973E+06   0.28730173      
  83               2.11745701E+01   1.96457743E+02   1116.07577628    4.99127641E-03   1.27497394E+21   2.29195588E+05   2.29993476E+05   1.18948322E+06   0.28579925      
  84               2.62316072E+01   2.22948543E+02   1157.17641708    5.46329297E-03   1.39550341E+21   2.26005015E+05   2.33184512E+05   1.13875339E+06   0.28426143      
  85               3.24963962E+01   2.52372605E+02   1198.43277048    5.97141965E-03   1.52529685E+21   2.27186285E+05   2.32002742E+05   1.08723804E+06   0.28266195      
  86               4.02573794E+01   2.85199319E+02   1240.59074863    6.51881479E-03   1.66512095E+21   2.32098224E+05   2.27090853E+05   1.03462368E+06   0.28104932      
  87               4.98718870E+01   3.22049144E+02   1283.42698797    7.11540038E-03   1.81751005E+21   2.37363773E+05   2.21825547E+05   9.80516925E+05   0.27933317      
  88               6.17825886E+01   3.63420369E+02   1327.49034647    7.76293522E-03   1.98291334E+21   2.41710695E+05   2.17528055E+05   9.24851468E+05   0.2775501       
  89               7.65378750E+01   4.09706225E+02   1372.11069618    8.46703292E-03   2.16276460E+21   2.44586402E+05   2.14637159E+05   8.67760192E+05   0.2758149       
  90               9.48171070E+01   4.61298291E+02   1417.74536926    9.22637810E-03   2.35672793E+21   2.46087214E+05   2.13130685E+05   8.09388572E+05   0.27398932      
  91               1.17461894E+02   5.18708273E+02   1463.72512527    1.00487294E-02   2.56678496E+21   2.43681021E+05   2.15508053E+05   7.49765233E+05   0.27219315      
  92               1.45514845E+02   5.80992202E+02   1509.62421322    1.09131209E-02   2.78757968E+21   2.38411035E+05   2.20780745E+05   6.90288646E+05   0.27034833      
  93               1.80267568E+02   6.50035995E+02   1555.81342450    1.18475235E-02   3.02625647E+21   2.34605772E+05   2.24583711E+05   6.29567986E+05   0.26859631      
  94               2.23320145E+02   7.27830263E+02   1603.81266452    1.28683945E-02   3.28701973E+21   2.31681763E+05   2.27520988E+05   5.66563454E+05   0.26673776      
  95               2.76654794E+02   8.16629584E+02   1653.43813370    1.40047776E-02   3.57736290E+21   2.25641387E+05   2.33549159E+05   5.00416544E+05   0.26491881      
  96               3.42727143E+02   9.19066008E+02   1706.06004766    1.52834029E-02   3.90191883E+21   2.18492060E+05   2.40755219E+05   4.30387114E+05   0.26292968      
  97               4.24579284E+02   1.03882941E+03   1761.44518627    1.67317600E-02   4.27170194E+21   2.15015653E+05   2.44176490E+05   3.55493729E+05   0.26093872      
  98               5.25979842E+02   1.18035807E+03   1821.16695310    1.83878647E-02   4.69450549E+21   2.12137585E+05   2.47056643E+05   2.74805810E+05   0.25872405      
  99               6.51597486E+02   1.34682439E+03   1883.84255064    2.02831430E-02   5.17835965E+21   2.07661401E+05   2.51702208E+05   1.88608512E+05   0.25651242      
  100              8.07215886E+02   1.54222849E+03   1950.47244826    2.24332428E-02   5.72709968E+21   2.01326504E+05   2.58966040E+05   9.70028877E+04   0.25410971      
  101              1.00000000E+03   1.77141347E+03   2019.69569275    2.48838220E-02   6.35272189E+21   1.96675787E+05   2.62541978E+05   0.00000000E+00   0.25171699      
