# ATMO pressure-temperature profile
# Effective temperature = 250.0K
# log(g) = 4.0cm/s^2
# M/H = 0.0
# Optical depth grid in band 17 (1.20-1.33microns)
# All parameters in cgs units
#
# Model Level      Optical Depth    Pressure         Temperature      Density          Number Density   Rad Flux         Conv Flux        Radial Extension Adiabatic Gradient
#                                   [Ba]             [K]              [g/cm^3]         [/cm^3]          [ergs/s/cm^2/sr] [ergs/s/cm^2/sr] [cm]             [K/Ba]          
  1                5.00000000E-05   1.00000000E-05   28.11745859      1.00831816E-08   2.57602323E+15   2.21420501E+05   0.00000000E+00   2.09916447E+07   0.34574286      
  2                5.91534807E-05   1.00190203E-04   33.83421698      8.39542669E-08   2.14484032E+16   2.21420501E+05   0.00000000E+00   2.06816607E+07   0.34574259      
  3                6.99826855E-05   2.06641939E-04   38.05220931      1.53961537E-07   3.93336665E+16   2.21420501E+05   0.00000000E+00   2.05880285E+07   0.31479363      
  4                8.27943887E-05   3.32310304E-04   39.88880422      2.36192681E-07   6.03418512E+16   2.21420501E+05   0.00000000E+00   2.05221283E+07   0.31480948      
  5                9.79515255E-05   4.80641662E-04   42.53725085      3.20350673E-07   8.18423015E+16   2.21420501E+05   0.00000000E+00   2.04682037E+07   0.31482247      
  6                1.15883473E-04   6.55698285E-04   43.70707411      4.25329944E-07   1.08662115E+17   2.21420501E+05   0.00000000E+00   2.04207792E+07   0.31483386      
  7                1.37098216E-04   8.62231951E-04   46.02277548      5.31159497E-07   1.35699156E+17   2.21420501E+05   0.00000000E+00   2.03773267E+07   0.31484425      
  8                1.62196734E-04   1.10586284E-03   46.96651978      6.67554197E-07   1.70544896E+17   2.21420501E+05   0.00000000E+00   2.03364122E+07   0.314854        
  9                1.91890027E-04   1.39313152E-03   49.20630177      8.02684795E-07   2.05067686E+17   2.21420501E+05   0.00000000E+00   2.02971683E+07   0.31486332      
  10               2.27019260E-04   1.73173380E-03   50.08031621      9.80364811E-07   2.50460884E+17   2.21420501E+05   0.00000000E+00   2.02589982E+07   0.31487235      
  11               2.68579588E-04   2.13073331E-03   52.34101131      1.15414568E-06   2.94857939E+17   2.21420501E+05   0.00000000E+00   2.02214881E+07   0.3148812       
  12               3.17748350E-04   2.60063443E-03   53.21947521      1.38542290E-06   3.53944004E+17   2.21420501E+05   0.00000000E+00   2.01843273E+07   0.31488993      
  13               3.75918418E-04   3.15365395E-03   55.61807366      1.60757683E-06   4.10699272E+17   2.21420501E+05   0.00000000E+00   2.01472709E+07   0.31489862      
  14               4.44737657E-04   3.80426991E-03   56.57284901      1.90650046E-06   4.87067455E+17   2.21420501E+05   0.00000000E+00   2.01101071E+07   0.31490731      
  15               5.26155608E-04   4.56922545E-03   59.13574862      2.19061537E-06   5.59652345E+17   2.21420501E+05   0.00000000E+00   2.00726758E+07   0.31491604      
  16               6.22478712E-04   5.46775267E-03   60.21811097      2.57427759E-06   6.57669306E+17   2.21420501E+05   0.00000000E+00   2.00348385E+07   0.31492486      
  17               7.36435649E-04   6.52209216E-03   63.03606305      2.93340138E-06   7.49417258E+17   2.21420501E+05   0.00000000E+00   1.99964706E+07   0.31493378      
  18               8.71254639E-04   7.75846788E-03   64.30621334      3.42055573E-06   8.73874103E+17   2.21420501E+05   0.00000000E+00   1.99574390E+07   0.31494285      
  19               1.03075489E-03   9.20700795E-03   67.44228675      3.87043583E-06   9.88808226E+17   2.21420501E+05   0.00000000E+00   1.99176281E+07   0.3149521       
  20               1.21945479E-03   1.09021476E-02   69.01539216      4.47857382E-06   1.14417364E+18   2.21420502E+05   0.00000000E+00   1.98769130E+07   0.31496155      
  21               1.44269991E-03   1.28828554E-02   72.65039028      5.02745072E-06   1.28439919E+18   2.21420502E+05   0.00000000E+00   1.98351707E+07   0.31497124      
  22               1.70681442E-03   1.51881559E-02   74.73879841      5.76146033E-06   1.47192193E+18   2.21420502E+05   0.00000000E+00   1.97923368E+07   0.3149812       
  23               2.01928028E-03   1.78612709E-02   79.11638788      6.40058319E-06   1.63520327E+18   2.21420501E+05   0.00000000E+00   1.97483177E+07   0.31499147      
  24               2.38894914E-03   2.09512991E-02   82.53536299      7.19688445E-06   1.83864011E+18   2.21412922E+05   0.00000000E+00   1.97027895E+07   0.3150021       
  25               2.82629313E-03   2.45251167E-02   86.78008517      8.01243738E-06   2.04699532E+18   2.21403387E+05   1.71989021E+01   1.96557267E+07   0.31501308      
  26               3.34370152E-03   2.86588776E-02   91.09552753      8.91940247E-06   2.27870425E+18   2.21385391E+05   3.51385495E+01   1.96068282E+07   0.31502446      
  27               3.95583167E-03   3.34456324E-02   95.68917713      9.90946552E-06   2.53164282E+18   2.21358044E+05   6.24705425E+01   1.95559129E+07   0.31503627      
  28               4.68002425E-03   3.89946573E-02   100.37646819     1.10140443E-05   2.81383765E+18   2.21319773E+05   1.00733414E+02   1.95027978E+07   0.31504857      
  29               5.53679448E-03   4.54336798E-02   105.38443069     1.22229211E-05   3.12267868E+18   2.21271147E+05   1.49353283E+02   1.94473021E+07   0.31506145      
  30               6.55041330E-03   5.29111647E-02   110.50728356     1.35746817E-05   3.46802530E+18   2.21216517E+05   2.03978495E+02   1.93892520E+07   0.315075        
  31               7.74959494E-03   6.15977481E-02   115.99127032     1.50560691E-05   3.84649675E+18   2.21162653E+05   2.57840793E+02   1.93284905E+07   0.31508935      
  32               9.16831029E-03   7.16921120E-02   121.60707035     1.67139925E-05   4.27010337E+18   2.21115987E+05   3.04506838E+02   1.92648574E+07   0.31510462      
  33               1.08467493E-02   8.34259448E-02   127.62509517     1.85308144E-05   4.73468286E+18   2.21083393E+05   3.37102995E+02   1.91981840E+07   0.31701698      
  34               1.28324595E-02   9.70705360E-02   133.87004367     2.05578692E-05   5.25206222E+18   2.21071662E+05   3.48839119E+02   1.91282765E+07   0.32045063      
  35               1.51816929E-02   1.12941421E-01   140.63456945     2.27685226E-05   5.81683843E+18   2.21084185E+05   3.36320292E+02   1.90549189E+07   0.32270651      
  36               1.79609996E-02   1.31399398E-01   147.61186741     2.52374930E-05   6.44759782E+18   2.21123333E+05   2.97171479E+02   1.89779184E+07   0.32467252      
  37               2.12491128E-02   1.52865252E-01   155.15726682     2.79325618E-05   7.13612576E+18   2.21178827E+05   2.41677733E+02   1.88970704E+07   0.32595868      
  38               2.51391797E-02   1.77831716E-01   162.91363640     3.09475223E-05   7.90637887E+18   2.21223455E+05   1.97046252E+02   1.88121545E+07   0.3254702       
  39               2.97413996E-02   2.06874469E-01   171.21362170     3.42564727E-05   8.75174029E+18   2.21211138E+05   2.09344956E+02   1.87229569E+07   0.32515013      
  40               3.51861462E-02   2.40659570E-01   179.75468008     3.79574303E-05   9.69725397E+18   2.21061228E+05   3.59209301E+02   1.86292642E+07   0.3248609       
  41               4.16276604E-02   2.79963458E-01   188.89621670     4.20195365E-05   1.07350465E+19   2.20649288E+05   7.71050601E+02   1.85308492E+07   0.32432019      
  42               4.92484201E-02   3.25650245E-01   198.28010537     4.65631975E-05   1.18959220E+19   2.19955167E+05   1.46503118E+03   1.84275627E+07   0.32305629      
  43               5.82643093E-02   3.78650708E-01   208.25147222     5.15481247E-05   1.31697197E+19   2.18883757E+05   2.53619183E+03   1.83193815E+07   0.32153365      
  44               6.89307339E-02   4.40063757E-01   218.43603988     5.71119563E-05   1.45920782E+19   2.16913097E+05   4.50641256E+03   1.82061960E+07   0.31923752      
  45               8.15498567E-02   5.11194042E-01   229.19219306     6.31945195E-05   1.61551801E+19   2.13475758E+05   7.94317579E+03   1.80877961E+07   0.31731963      
  46               9.64791575E-02   5.93675891E-01   240.20756674     7.00712121E-05   1.79014648E+19   2.08436588E+05   1.29819809E+04   1.79638454E+07   0.31507424      
  47               1.14141560E-01   6.89477008E-01   251.84817676     7.76167538E-05   1.98292741E+19   2.02165370E+05   1.92529193E+04   1.78339413E+07   0.31325157      
  48               1.35037411E-01   8.00737161E-01   263.80980046     8.60550216E-05   2.19849204E+19   1.95114486E+05   2.63030595E+04   1.76978050E+07   0.31119478      
  49               1.59758657E-01   9.29873019E-01   276.41676594     9.53754159E-05   2.43660485E+19   1.87608540E+05   3.38081116E+04   1.75552638E+07   0.30962632      
  50               1.89005613E-01   1.07967950E+00   289.38905821     1.05776679E-04   2.70233128E+19   1.79816486E+05   4.15990786E+04   1.74061158E+07   0.30785151      
  51               2.23606798E-01   1.25329755E+00   303.02015796     1.17262689E-04   2.99577031E+19   1.72166568E+05   4.92473027E+04   1.72502252E+07   0.30654735      
  52               2.64542408E-01   1.45427684E+00   317.05519242     1.30043722E-04   3.32229398E+19   1.65181438E+05   5.62302141E+04   1.70874730E+07   0.30513896      
  53               3.12972084E-01   1.68655427E+00   331.75553735     1.44131634E-04   3.68220513E+19   1.59438121E+05   6.19711828E+04   1.69178118E+07   0.30416841      
  54               3.70267763E-01   1.95466816E+00   346.89508823     1.59754117E-04   4.08132076E+19   1.55428985E+05   6.59782042E+04   1.67411211E+07   0.30314103      
  55               4.38052539E-01   2.26410578E+00   362.73459519     1.76963990E-04   4.52099030E+19   1.53485678E+05   6.79191573E+04   1.65570843E+07   0.30244483      
  56               5.18246648E-01   2.62097675E+00   379.07642325     1.96025971E-04   5.00797595E+19   1.53304483E+05   6.80974374E+04   1.63654770E+07   0.30171136      
  57               6.13121862E-01   3.03178655E+00   396.13815681     2.16984725E-04   5.54342001E+19   1.54347220E+05   6.70513879E+04   1.61662862E+07   0.30128658      
  58               7.25365844E-01   3.50327537E+00   413.70649383     2.40081666E-04   6.13349163E+19   1.55697216E+05   6.56986683E+04   1.59597114E+07   0.30084308      
  59               8.58158289E-01   4.04305433E+00   431.97185570     2.65359654E-04   6.77922370E+19   1.56345185E+05   6.50485942E+04   1.57458559E+07   0.30056904      
  60               1.01526100E+00   4.66010870E+00   450.75387558     2.93114522E-04   7.48828589E+19   1.55022549E+05   6.63685841E+04   1.55246038E+07   0.30028857      
  61               1.20112443E+00   5.36369491E+00   470.23754018     3.23390724E-04   8.26176066E+19   1.50251456E+05   7.11359572E+04   1.52960782E+07   0.30009581      
  62               1.42101382E+00   6.16331832E+00   490.20387289     3.56466640E-04   9.10675599E+19   1.40008508E+05   8.13733712E+04   1.50605666E+07   0.29990973      
  63               1.68115827E+00   7.06888045E+00   510.82543455     3.92339336E-04   1.00231439E+20   1.24546078E+05   9.68289264E+04   1.48184199E+07   0.29978238      
  64               1.98892727E+00   8.09313559E+00   531.91437388     4.31377398E-04   1.10204906E+20   1.11740121E+05   1.09629879E+05   1.45694490E+07   0.29961705      
  65               2.35303941E+00   9.25283211E+00   553.73887718     4.73790926E-04   1.21030689E+20   1.04468238E+05   1.16898843E+05   1.43129230E+07   0.29950003      
  66               2.78380943E+00   1.05643877E+01   576.10571193     5.19947142E-04   1.32821380E+20   9.84095762E+04   1.22954876E+05   1.40486738E+07   0.29936462      
  67               3.29344035E+00   1.20433364E+01   599.20300066     5.69888869E-04   1.45578982E+20   9.28247175E+04   1.28537807E+05   1.37769808E+07   0.29924695      
  68               3.89636920E+00   1.37043475E+01   622.76089952     6.23956539E-04   1.59390659E+20   8.76308141E+04   1.33730490E+05   1.34984327E+07   0.29902426      
  69               4.60967600E+00   1.55632804E+01   646.95142025     6.82097965E-04   1.74242988E+20   8.31877670E+04   1.38172518E+05   1.32134863E+07   0.29879956      
  70               5.45356761E+00   1.76467924E+01   671.63263006     7.44991356E-04   1.90309220E+20   7.94444501E+04   1.41914947E+05   1.29212077E+07   0.2984821       
  71               6.45195012E+00   1.99819958E+01   697.05697499     8.12807649E-04   2.07633022E+20   7.60857525E+04   1.45272939E+05   1.26211151E+07   0.29821365      
  72               7.63310614E+00   2.25946775E+01   723.00647476     8.86096627E-04   2.26354847E+20   7.28037073E+04   1.48554274E+05   1.23132560E+07   0.2977974       
  73               9.03049593E+00   2.55098642E+01   749.64468559     9.64872022E-04   2.46478203E+20   6.95568772E+04   1.51799493E+05   1.19979799E+07   0.29741413      
  74               1.06837053E+01   2.87534643E+01   776.74188833     1.04961587E-03   2.68126223E+20   6.63892182E+04   1.54963326E+05   1.16756673E+07   0.2968306       
  75               1.26395671E+01   3.23647520E+01   804.52053295     1.14064896E-03   2.91380839E+20   6.37586753E+04   1.57589832E+05   1.13456241E+07   0.29629028      
  76               1.49534878E+01   3.64031827E+01   832.97400313     1.23915419E-03   3.16543753E+20   6.19161374E+04   1.59431322E+05   1.10059408E+07   0.29554123      
  77               1.76910170E+01   4.09223056E+01   862.28177026     1.34563921E-03   3.43745269E+20   6.10323945E+04   1.60317700E+05   1.06559736E+07   0.29487098      
  78               2.09297047E+01   4.59663744E+01   892.28206342     1.46068845E-03   3.73133230E+20   6.10550204E+04   1.60300497E+05   1.02961927E+07   0.29393763      
  79               2.47612977E+01   5.15680794E+01   922.92560223     1.58429521E-03   4.04706428E+20   6.19605528E+04   1.59401251E+05   9.92795867E+06   0.2930397       
  80               2.92943389E+01   5.77503023E+01   953.99592628     1.71644293E-03   4.38463636E+20   6.33627428E+04   1.58002542E+05   9.55306170E+06   0.29189459      
  81               3.46572422E+01   6.45482778E+01   985.43393226     1.85728554E-03   4.74441845E+20   6.50212375E+04   1.56344678E+05   9.17232424E+06   0.29088675      
  82               4.10019301E+01   7.20424212E+01   1017.37617626    2.00783720E-03   5.12899855E+20   6.65888950E+04   1.54777051E+05   8.78424674E+06   0.2896355       
  83               4.85081376E+01   8.03070908E+01   1049.79626305    2.16906011E-03   5.54082853E+20   6.77286548E+04   1.53636670E+05   8.38821904E+06   0.28849619      
  84               5.73885036E+01   8.94043973E+01   1082.76455315    2.34126098E-03   5.98068171E+20   6.79638323E+04   1.53399493E+05   7.98452501E+06   0.28713398      
  85               6.78945948E+01   9.93813497E+01   1116.03950734    2.52500998E-03   6.44987298E+20   6.79323431E+04   1.53428290E+05   7.57418606E+06   0.28584203      
  86               8.03240320E+01   1.10286384E+02   1149.72046116    2.71998818E-03   6.94793068E+20   6.87534889E+04   1.52603391E+05   7.15807237E+06   0.28440174      
  87               9.50289215E+01   1.22192923E+02   1183.59226955    2.92739265E-03   7.47772992E+20   7.01460320E+04   1.51206938E+05   6.73612178E+06   0.28301086      
  88               1.12425830E+02   1.35202006E+02   1217.94523095    3.14769143E-03   8.04046594E+20   7.13692558E+04   1.49981780E+05   6.30756325E+06   0.28155011      
  89               1.33007583E+02   1.49465391E+02   1252.66873202    3.38330384E-03   8.64231803E+20   7.24167531E+04   1.48933771E+05   5.87048816E+06   0.28008167      
  90               1.57357229E+02   1.65107162E+02   1288.05388200    3.63469843E-03   9.28448293E+20   7.31322877E+04   1.48218242E+05   5.42444045E+06   0.27859065      
  91               1.86164557E+02   1.82228327E+02   1323.78056913    3.90333934E-03   9.97070177E+20   7.34718986E+04   1.47878870E+05   4.96989110E+06   0.27711483      
  92               2.20245630E+02   2.00912255E+02   1360.05179168    4.18877686E-03   1.06998286E+21   7.34110349E+04   1.47937083E+05   4.50782247E+06   0.27561787      
  93               2.60565913E+02   2.21238735E+02   1396.48254175    4.49222569E-03   1.14749683E+21   7.30629605E+04   1.48275364E+05   4.03923801E+06   0.27411427      
  94               3.08267614E+02   2.43340792E+02   1433.38905906    4.81378062E-03   1.22963629E+21   7.25606736E+04   1.48771371E+05   3.56394778E+06   0.27261279      
  95               3.64702046E+02   2.67394041E+02   1470.51335585    5.15605663E-03   1.31706919E+21   7.20475043E+04   1.49294694E+05   3.08114263E+06   0.27114723      
  96               4.31467909E+02   2.93688141E+02   1508.37417622    5.52092526E-03   1.41027290E+21   7.14457201E+04   1.49923757E+05   2.58831648E+06   0.2696773       
  97               5.10456573E+02   3.22448348E+02   1546.66413374    5.91150168E-03   1.51004532E+21   7.05376499E+04   1.50879965E+05   2.08488854E+06   0.2682281       
  98               6.03905660E+02   3.53821978E+02   1585.65358954    6.32718761E-03   1.61622690E+21   6.91618105E+04   1.52333035E+05   1.57189612E+06   0.26678027      
  99               7.14462436E+02   3.87877092E+02   1624.80355011    6.76902402E-03   1.72909602E+21   6.71795793E+04   1.54433443E+05   1.05152382E+06   0.26535392      
  100              8.45258798E+02   4.24610404E+02   1664.27808170    7.23439546E-03   1.84795154E+21   6.45335687E+04   1.57245100E+05   5.26599178E+05   0.26394817      
  101              1.00000000E+03   4.63970151E+02   1703.47180732    7.72222566E-03   1.97279033E+21   6.28820537E+04   1.59016453E+05   0.00000000E+00   0.26257689      
