# ATMO pressure-temperature profile
# Effective temperature = 1000.0K
# log(g) = 2.5cm/s^2
# M/H = 0.0
# Optical depth grid in band 17 (1.20-1.33microns)
# All parameters in cgs units
#
# Model Level      Optical Depth    Pressure         Temperature      Density          Number Density   Rad Flux         Conv Flux        Radial Extension Adiabatic Gradient
#                                   [Ba]             [K]              [g/cm^3]         [/cm^3]          [ergs/s/cm^2/sr] [ergs/s/cm^2/sr] [cm]             [K/Ba]          
  1                5.00000000E-04   1.00000000E-05   305.99784021     9.26186437E-10   2.36705025E+14   5.66753645E+07   0.00000000E+00   1.40403973E+09   0.30003964      
  2                5.78069831E-04   1.17555505E-04   376.34066959     8.85275288E-09   2.26249515E+15   5.66753647E+07   0.00000000E+00   1.28525948E+09   0.29997497      
  3                6.68329458E-04   2.30833282E-04   397.50291199     1.64578978E-08   4.20614220E+15   5.66753661E+07   0.00000000E+00   1.25558259E+09   0.29965263      
  4                7.72682194E-04   3.56186379E-04   425.62123650     2.37177425E-08   6.06149649E+15   5.66753687E+07   0.00000000E+00   1.23551882E+09   0.29956681      
  5                8.93328530E-04   4.96197039E-04   437.30754906     3.21578220E-08   8.21850898E+15   5.66753726E+07   0.00000000E+00   1.21948706E+09   0.2994542       
  6                1.03281254E-03   6.54600617E-04   452.77651173     4.09743426E-08   1.04717282E+16   5.66753786E+07   0.00000000E+00   1.20568749E+09   0.29942026      
  7                1.19407555E-03   8.34487855E-04   460.18294427     5.13936048E-08   1.31345543E+16   5.66753870E+07   0.00000000E+00   1.19329125E+09   0.29933942      
  8                1.38051810E-03   1.03922698E-03   473.27122489     6.22328858E-08   1.59047245E+16   5.66753980E+07   0.00000000E+00   1.18184308E+09   0.29931747      
  9                1.59607173E-03   1.27250921E-03   479.25601251     7.52511417E-08   1.92317677E+16   5.66754120E+07   0.00000000E+00   1.17106316E+09   0.29924577      
  10               1.84528182E-03   1.53856633E-03   491.28662563     8.87566831E-08   2.26833463E+16   5.66754293E+07   0.00000000E+00   1.16076837E+09   0.29922742      
  11               2.13340350E-03   1.84210600E-03   496.74152091     1.05100318E-07   2.68602464E+16   5.66754500E+07   0.00000000E+00   1.15083005E+09   0.29915873      
  12               2.46651240E-03   2.18853134E-03   508.39327908     1.22003672E-07   3.11801937E+16   5.66754741E+07   0.00000000E+00   1.14115571E+09   0.29914131      
  13               2.85163282E-03   2.58396231E-03   513.56580207     1.42596907E-07   3.64431508E+16   5.66755023E+07   0.00000000E+00   1.13167526E+09   0.29906864      
  14               3.29688580E-03   3.03550492E-03   525.13254650     1.63825722E-07   4.18685427E+16   5.66755351E+07   0.00000000E+00   1.12233298E+09   0.2990498       
  15               3.81166043E-03   3.55118345E-03   530.35222914     1.89770582E-07   4.84991971E+16   5.66755731E+07   0.00000000E+00   1.11308443E+09   0.29897221      
  16               4.40681180E-03   4.14016049E-03   542.12012366     2.16442179E-07   5.53155822E+16   5.66756166E+07   0.00000000E+00   1.10389449E+09   0.29894989      
  17               5.09488990E-03   4.81273803E-03   547.62111713     2.49076284E-07   6.36557845E+16   5.66756662E+07   0.00000000E+00   1.09473428E+09   0.2988607       
  18               5.89040429E-03   5.58059007E-03   559.91125482     2.82475853E-07   7.21916161E+16   5.66757229E+07   0.00000000E+00   1.08558008E+09   0.29883191      
  19               6.81013002E-03   6.45680879E-03   565.99357106     3.23315796E-07   8.26289562E+16   5.66757874E+07   0.00000000E+00   1.07641136E+09   0.29872942      
  20               7.87346142E-03   7.45623314E-03   579.04649150     3.64944323E-07   9.32678325E+16   5.66758598E+07   0.00000000E+00   1.06721061E+09   0.29869178      
  21               9.10282102E-03   8.59544971E-03   585.85440296     4.15814437E-07   1.06268548E+17   5.66759396E+07   0.00000000E+00   1.05796271E+09   0.29857568      
  22               1.05241324E-02   9.89316886E-03   599.77092515     4.67488320E-07   1.19474674E+17   5.66760243E+07   0.00000000E+00   1.04865494E+09   0.2985466       
  23               1.21673669E-02   1.13700424E-02   607.54710298     5.30399337E-07   1.35552637E+17   5.66761096E+07   0.00000000E+00   1.03927595E+09   0.2983959       
  24               1.40671754E-02   1.30491361E-02   622.69787591     5.93916501E-07   1.51785476E+17   5.66761840E+07   0.00000000E+00   1.02981552E+09   0.29830804      
  25               1.62636194E-02   1.49563981E-02   631.76765950     6.70950873E-07   1.71472890E+17   5.66762301E+07   0.00000000E+00   1.02026114E+09   0.29812569      
  26               1.88030155E-02   1.71219618E-02   648.26753191     7.48550079E-07   1.91304458E+17   5.66762258E+07   0.00000000E+00   1.01059807E+09   0.29802804      
  27               2.17389119E-02   1.95787666E-02   658.80066385     8.42273060E-07   2.15256929E+17   5.66761460E+07   0.00000000E+00   1.00081368E+09   0.29779758      
  28               2.51332183E-02   2.23631653E-02   677.03808571     9.36148614E-07   2.39246731E+17   5.66759650E+07   0.00000000E+00   9.90897757E+08   0.29765892      
  29               2.90575105E-02   2.55139737E-02   689.56226252     1.04864675E-06   2.67997323E+17   5.66756586E+07   0.00000000E+00   9.80841532E+08   0.2973543       
  30               3.35945403E-02   2.90738010E-02   709.95681169     1.16063955E-06   2.96616785E+17   5.66752058E+07   0.00000000E+00   9.70637630E+08   0.29716767      
  31               3.88399805E-02   3.30872742E-02   724.70463858     1.29397965E-06   3.30693599E+17   5.66745985E+07   0.00000000E+00   9.60281250E+08   0.2967982       
  32               4.49044419E-02   3.76017798E-02   747.49036044     1.42570640E-06   3.64358281E+17   5.66738410E+07   0.00000000E+00   9.49770555E+08   0.29653323      
  33               5.19158062E-02   4.26643990E-02   764.98942358     1.58065544E-06   4.03957840E+17   5.66729769E+07   0.00000000E+00   9.39106027E+08   0.29600825      
  34               6.00219227E-02   4.83334564E-02   790.77483321     1.73229148E-06   4.42711551E+17   5.66720954E+07   0.00000000E+00   9.28272202E+08   0.29559324      
  35               6.93937253E-02   5.46716795E-02   811.48708793     1.90943727E-06   4.87985190E+17   5.66713429E+07   0.00000000E+00   9.17251623E+08   0.29492088      
  36               8.02288381E-02   6.17442213E-02   840.39413828     2.08226001E-06   5.32156220E+17   5.66708494E+07   0.00000000E+00   9.06035166E+08   0.29441693      
  37               9.27557418E-02   6.96109201E-02   864.32086605     2.28256402E-06   5.83348676E+17   5.66709225E+07   0.00000000E+00   8.94624416E+08   0.29359215      
  38               1.07238592E-01   7.83269087E-02   896.71003236     2.47556302E-06   6.32681007E+17   5.66611431E+07   1.09132576E+04   8.83029474E+08   0.29295501      
  39               1.23982789E-01   8.79264603E-02   925.53583635     2.69233452E-06   6.88101002E+17   5.65048226E+07   1.67707491E+05   8.71271037E+08   0.2919525       
  40               1.43341420E-01   9.84859666E-02   958.72019280     2.91118948E-06   7.44060615E+17   5.62571162E+07   4.17046892E+05   8.59343683E+08   0.29119378      
  41               1.65722701E-01   1.10112938E-01   988.21266552     3.15765766E-06   8.07074774E+17   5.59562280E+07   7.21017997E+05   8.47216805E+08   0.29006637      
  42               1.91598587E-01   1.22910386E-01   1022.35821439    3.40684061E-06   8.70785787E+17   5.56024608E+07   1.07599536E+06   8.34878225E+08   0.28929023      
  43               2.21514726E-01   1.36974394E-01   1052.63696357    3.68739993E-06   9.42511397E+17   5.52109045E+07   1.46996563E+06   8.22330263E+08   0.28812663      
  44               2.56101960E-01   1.52396670E-01   1087.71193403    3.97022294E-06   1.01481627E+18   5.47745937E+07   1.90869843E+06   8.09584054E+08   0.28735883      
  45               2.96089634E-01   1.69264294E-01   1118.66018122    4.28762658E-06   1.09595573E+18   5.43120629E+07   2.37303783E+06   7.96655853E+08   0.28612774      
  46               3.42320969E-01   1.87681571E-01   1154.50829581    4.60650261E-06   1.17747152E+18   5.38332029E+07   2.85353895E+06   7.83551024E+08   0.2853409       
  47               3.95770849E-01   2.07816201E-01   1186.12423734    4.96471516E-06   1.26903927E+18   5.33613067E+07   3.32641554E+06   7.70236953E+08   0.28391581      
  48               4.57566375E-01   2.29842029E-01   1222.89178623    5.32580341E-06   1.36134205E+18   5.28951634E+07   3.79366933E+06   7.56691529E+08   0.28300711      
  49               5.29010634E-01   2.53925822E-01   1255.34678352    5.73173587E-06   1.46510581E+18   5.24271376E+07   4.26253082E+06   7.42907084E+08   0.28138457      
  50               6.11610175E-01   2.80234171E-01   1293.05495196    6.14110526E-06   1.56974804E+18   5.19474966E+07   4.74358944E+06   7.28884522E+08   0.28038471      
  51               7.07106781E-01   3.08928527E-01   1326.30316922    6.60020781E-06   1.68710086E+18   5.14537631E+07   5.23895498E+06   7.14631907E+08   0.27878496      
  52               8.17514195E-01   3.40170556E-01   1364.85904758    7.06247927E-06   1.80523921E+18   5.09465711E+07   5.75243821E+06   7.00161404E+08   0.27805121      
  53               9.45160584E-01   3.74130113E-01   1398.84841393    7.57876270E-06   1.93721512E+18   5.04200107E+07   6.28662940E+06   6.85482809E+08   0.27665955      
  54               1.09273764E+00   4.11039240E-01   1438.23286864    8.09922602E-06   2.07004560E+18   4.98284921E+07   6.87351600E+06   6.70584967E+08   0.27573554      
  55               1.26335732E+00   4.51068888E-01   1472.88742545    8.67884324E-06   2.21819212E+18   4.90801895E+07   7.62400017E+06   6.55486605E+08   0.27389429      
  56               1.46061751E+00   4.94215699E-01   1512.70202663    9.26142144E-06   2.36640453E+18   4.80384079E+07   8.69148257E+06   6.40267129E+08   0.27291121      
  57               1.68867783E+00   5.40167024E-01   1547.16970647    9.89761410E-06   2.52880857E+18   4.65571111E+07   1.02677971E+07   6.25089766E+08   0.27097339      
  58               1.95234742E+00   5.88206628E-01   1585.79157286    1.05163995E-05   2.68664106E+18   4.45420646E+07   1.21486593E+07   6.10199446E+08   0.27014107      
  59               2.25718628E+00   6.36462320E-01   1617.28848931    1.11607398E-05   2.85043434E+18   4.20039359E+07   1.46874268E+07   5.96113689E+08   0.26832761      
  60               2.60962258E+00   6.82103703E-01   1650.09282104    1.17274605E-05   2.99411083E+18   3.91600915E+07   1.75318724E+07   5.83497732E+08   0.2677605       
  61               3.01708817E+00   7.29883158E-01   1677.71161261    1.23509166E-05   3.15109772E+18   3.60008656E+07   2.06916560E+07   5.70942901E+08   0.26593419      
  62               3.48817529E+00   7.71971412E-01   1705.31909446    1.28560391E-05   3.27884889E+18   3.29620256E+07   2.37309163E+07   5.60380127E+08   0.26551225      
  63               4.03281780E+00   8.07831026E-01   1723.53594965    1.33113227E-05   3.39489246E+18   3.07807927E+07   2.59124157E+07   5.51711676E+08   0.26385715      
  64               4.66250061E+00   8.47229839E-01   1747.70441106    1.37674498E-05   3.51122856E+18   2.88840991E+07   2.78093321E+07   5.42508325E+08   0.2636087       
  65               5.39050188E+00   8.90512247E-01   1768.39276446    1.43008119E-05   3.64743035E+18   2.67751228E+07   2.99184852E+07   5.32753837E+08   0.26166552      
  66               6.23217301E+00   9.25224126E-01   1788.45477008    1.47045488E-05   3.74709606E+18   2.46734510E+07   3.20202273E+07   5.25183332E+08   0.26127913      
  67               7.20526240E+00   9.51306991E-01   1799.17845157    1.50288418E-05   3.82976642E+18   2.32543272E+07   3.34394232E+07   5.19634945E+08   0.25931291      
  68               8.33028963E+00   9.80463082E-01   1815.55823195    1.53494433E-05   3.91153213E+18   2.21355380E+07   3.45583056E+07   5.13564503E+08   0.25948613      
  69               9.63097823E+00   1.01296308E+00   1828.74403526    1.57436615E-05   4.01205181E+18   2.09549748E+07   3.57389528E+07   5.06953243E+08   0.25753134      
  70               1.11347559E+01   1.04907937E+00   1847.47074341    1.61393152E-05   4.11298020E+18   1.99320302E+07   3.67619085E+07   4.99788379E+08   0.25764176      
  71               1.28733329E+01   1.08907753E+00   1863.20928576    1.66127595E-05   4.23372844E+18   1.87912832E+07   3.79026678E+07   4.92063768E+08   0.25536494      
  72               1.48833708E+01   1.13330420E+00   1884.27427194    1.70935501E-05   4.35640471E+18   1.77825184E+07   3.89113755E+07   4.83764354E+08   0.2553805       
  73               1.72072553E+01   1.18193039E+00   1902.55959747    1.76550904E-05   4.49965762E+18   1.65519102E+07   4.01420467E+07   4.74912803E+08   0.25274176      
  74               1.98939903E+01   1.23514834E+00   1925.71489504    1.82273623E-05   4.64571933E+18   1.54554444E+07   4.12385112E+07   4.65531534E+08   0.25268625      
  75               2.30002312E+01   1.29301103E+00   1946.24695181    1.88791441E-05   4.81204992E+18   1.42652118E+07   4.24287180E+07   4.55667698E+08   0.24969974      
  76               2.65914795E+01   1.35613957E+00   1971.18992158    1.95490986E-05   4.98312473E+18   1.34379271E+07   4.32558358E+07   4.45276355E+08   0.2495293       
  77               3.07434641E+01   1.42543082E+00   1994.18927138    2.03096835E-05   5.17732716E+18   1.25631854E+07   4.41303748E+07   4.34279618E+08   0.24597483      
  78               3.55437382E+01   1.50137303E+00   2021.15253766    2.11045442E-05   5.38040984E+18   1.18886539E+07   4.48047504E+07   4.22679984E+08   0.24565292      
  79               4.10935254E+01   1.58445366E+00   2046.69189902    2.19925158E-05   5.60728861E+18   1.10572249E+07   4.56359982E+07   4.10485178E+08   0.24154789      
  80               4.75098546E+01   1.67524420E+00   2075.37539362    2.29287143E-05   5.84665275E+18   1.03737542E+07   4.63192124E+07   3.97699782E+08   0.23957194      
  81               5.49280272E+01   1.77433675E+00   2102.96187248    2.39634872E-05   6.11125617E+18   9.65376683E+06   4.70389259E+07   3.84331459E+08   0.23673704      
  82               6.35044707E+01   1.88239076E+00   2133.46457102    2.50554923E-05   6.39072585E+18   9.02031246E+06   4.76721816E+07   3.70386554E+08   0.23437968      
  83               7.34200373E+01   2.00011371E+00   2162.84727040    2.62564572E-05   6.69814698E+18   8.35612767E+06   4.83361672E+07   3.55872368E+08   0.23129577      
  84               8.48838171E+01   2.12829351E+00   2194.93075537    2.75251276E-05   7.02322427E+18   7.77340687E+06   4.89185702E+07   3.40794555E+08   0.22869214      
  85               9.81375475E+01   2.26777852E+00   2225.88293935    2.89149439E-05   7.37945274E+18   7.16097123E+06   4.95306122E+07   3.25159366E+08   0.22525631      
  86               1.13460711E+02   2.41951832E+00   2259.27548232    3.03856212E-05   7.75685308E+18   6.62303920E+06   5.00681658E+07   3.08970883E+08   0.22230449      
  87               1.31176428E+02   2.58453819E+00   2291.53971493    3.19919600E-05   8.16923529E+18   6.06359102E+06   5.06273141E+07   2.92233653E+08   0.21853553      
  88               1.51658271E+02   2.76398692E+00   2325.97004669    3.36952942E-05   8.60711696E+18   5.57592855E+06   5.11146373E+07   2.74949916E+08   0.21539204      
  89               1.75338142E+02   2.95910839E+00   2359.33512904    3.55509075E-05   9.08441736E+18   5.06784166E+06   5.16223837E+07   2.57122132E+08   0.21156213      
  90               2.02715380E+02   3.17106883E+00   2394.58265926    3.75243778E-05   9.59183446E+18   4.61518278E+06   5.20747342E+07   2.38769942E+08   0.20831805      
  91               2.34367291E+02   3.40136117E+00   2428.80679084    3.96644345E-05   1.01434483E+19   4.17509945E+06   5.25145355E+07   2.19893295E+08   0.20440355      
  92               2.70961321E+02   3.65189500E+00   2464.69992532    4.19437900E-05   1.07319853E+19   3.80016149E+06   5.28891638E+07   2.00469453E+08   0.20109296      
  93               3.13269130E+02   3.92453556E+00   2499.70986288    4.44192690E-05   1.13716767E+19   3.42952414E+06   5.32594620E+07   1.80495035E+08   0.19728614      
  94               3.62182865E+02   4.22139346E+00   2536.19299122    4.70620208E-05   1.20558927E+19   3.11029490E+06   5.35783445E+07   1.59963032E+08   0.19397793      
  95               4.18733975E+02   4.54477868E+00   2571.88889993    4.99307070E-05   1.27993046E+19   2.80674070E+06   5.38816036E+07   1.38866810E+08   0.19020216      
  96               4.84114957E+02   4.89727451E+00   2608.86409705    5.30008643E-05   1.35965534E+19   2.54522099E+06   5.41428139E+07   1.17198113E+08   0.18691224      
  97               5.59704502E+02   5.28170864E+00   2645.15862352    5.63326277E-05   1.44626727E+19   2.29818719E+06   5.43895435E+07   9.49494189E+07   0.18334905      
  98               6.47096573E+02   5.70122169E+00   2682.60171562    5.99055197E-05   1.53935069E+19   2.08313466E+06   5.46042535E+07   7.21125473E+07   0.18018515      
  99               7.48134013E+02   6.15925310E+00   2719.44883285    6.37828447E-05   1.64048778E+19   1.87910841E+06   5.48080316E+07   4.86802763E+07   0.17669157      
  100              8.64947405E+02   6.65962029E+00   2757.27898639    6.79496143E-05   1.74942205E+19   1.70036875E+06   5.49866168E+07   2.46450458E+07   0.17361596      
  101              1.00000000E+03   7.20651199E+00   2794.61520849    7.24712996E-05   1.86779382E+19   1.59771897E+06   5.50891643E+07   0.00000000E+00   0.1704075       
