# ATMO emission spectrum
# Wavelength [microns]  |  Flux [W/m2/micron]
0.20002000       1.13596483E-14  
0.20006002       1.14160088E-14  
0.20010005       1.14728520E-14  
0.20014010       1.15306461E-14  
0.20018016       1.15887318E-14  
0.20022024       1.16470030E-14  
0.20026034       1.17057762E-14  
0.20030045       1.17648928E-14  
0.20034058       1.18244225E-14  
0.20038072       1.18834257E-14  
0.20042088       1.19426955E-14  
0.20046106       1.20035159E-14  
0.20050125       1.20647820E-14  
0.20054146       1.21263109E-14  
0.20058169       1.21885256E-14  
0.20062193       1.22511204E-14  
0.20066219       1.23140512E-14  
0.20070246       1.23772799E-14  
0.20074275       1.24412922E-14  
0.20078305       1.25056820E-14  
0.20082338       1.25705528E-14  
0.20086371       1.26371030E-14  
0.20090407       1.27034196E-14  
0.20094444       1.27698691E-14  
0.20098483       1.28369164E-14  
0.20102523       1.29045117E-14  
0.20106565       1.29723418E-14  
0.20110608       1.30405623E-14  
0.20114654       1.31091428E-14  
0.20118700       1.31793203E-14  
0.20122749       1.32491498E-14  
0.20126799       1.33182995E-14  
0.20130851       1.33882692E-14  
0.20134904       1.34588752E-14  
0.20138959       1.35289484E-14  
0.20143015       1.35999458E-14  
0.20147074       1.36715164E-14  
0.20151134       1.37437568E-14  
0.20155195       1.38161758E-14  
0.20159258       1.38890563E-14  
0.20163323       1.39624560E-14  
0.20167389       1.40363506E-14  
0.20171457       1.41107105E-14  
0.20175527       1.41858510E-14  
0.20179598       1.42615334E-14  
0.20183671       1.43376947E-14  
0.20187746       1.44144400E-14  
0.20191822       1.44917045E-14  
0.20195900       1.45694135E-14  
0.20199980       1.46475414E-14  
0.20204061       1.47262343E-14  
0.20208144       1.48056369E-14  
0.20212228       1.48853853E-14  
0.20216315       1.49658584E-14  
0.20220402       1.50475893E-14  
0.20224492       1.51291106E-14  
0.20228583       1.52110450E-14  
0.20232676       1.52934878E-14  
0.20236770       1.53764447E-14  
0.20240866       1.54599204E-14  
0.20244964       1.55439120E-14  
0.20249063       1.56284829E-14  
0.20253165       1.57136879E-14  
0.20257267       1.57993427E-14  
0.20261372       1.58855451E-14  
0.20265478       1.59722463E-14  
0.20269585       1.60591177E-14  
0.20273695       1.61469762E-14  
0.20277806       1.62353902E-14  
0.20281919       1.63243285E-14  
0.20286033       1.64137841E-14  
0.20290149       1.65037680E-14  
0.20294267       1.65941384E-14  
0.20298386       1.66848951E-14  
0.20302507       1.67761386E-14  
0.20306630       1.68684807E-14  
0.20310755       1.69600807E-14  
0.20314881       1.70519353E-14  
0.20319008       1.71464323E-14  
0.20323138       1.72409288E-14  
0.20327269       1.73353850E-14  
0.20331402       1.74295543E-14  
0.20335536       1.75231586E-14  
0.20339673       1.76158144E-14  
0.20343810       1.77074345E-14  
0.20347950       1.77998382E-14  
0.20352091       1.78976280E-14  
0.20356234       1.80009733E-14  
0.20360379       1.81094606E-14  
0.20364525       1.82184429E-14  
0.20368673       1.83265322E-14  
0.20372823       1.84337790E-14  
0.20376974       1.85406228E-14  
0.20381127       1.86474252E-14  
0.20385282       1.87545136E-14  
0.20389438       1.88619479E-14  
0.20393596       1.89725233E-14  
0.20397756       1.90815952E-14  
0.20401918       1.91900953E-14  
0.20406081       1.92994376E-14  
0.20410246       1.94095107E-14  
0.20414413       1.95203144E-14  
0.20418581       1.96318564E-14  
0.20422751       1.97441663E-14  
0.20426923       1.98572337E-14  
0.20431096       1.99710462E-14  
0.20435271       2.00856373E-14  
0.20439448       2.02007150E-14  
0.20443627       2.03166976E-14  
0.20447807       2.04335607E-14  
0.20451989       2.05511799E-14  
0.20456173       2.06695603E-14  
0.20460358       2.07886767E-14  
0.20464545       2.09085073E-14  
0.20468734       2.10290094E-14  
0.20472925       2.11501743E-14  
0.20477117       2.12722318E-14  
0.20481311       2.13956289E-14  
0.20485507       2.15199657E-14  
0.20489704       2.16459143E-14  
0.20493903       2.17726508E-14  
0.20498104       2.19000042E-14  
0.20502307       2.20280368E-14  
0.20506511       2.21567330E-14  
0.20510717       2.22860821E-14  
0.20514925       2.24160559E-14  
0.20519134       2.25467165E-14  
0.20523345       2.26787863E-14  
0.20527558       2.28123125E-14  
0.20531773       2.29473505E-14  
0.20535989       2.30836739E-14  
0.20540207       2.32208154E-14  
0.20544427       2.33587220E-14  
0.20548649       2.34974174E-14  
0.20552872       2.36369453E-14  
0.20557097       2.37773480E-14  
0.20561324       2.39185180E-14  
0.20565553       2.40607529E-14  
0.20569783       2.42043604E-14  
0.20574015       2.43484538E-14  
0.20578249       2.44935310E-14  
0.20582484       2.46396364E-14  
0.20586722       2.47867178E-14  
0.20590961       2.49347768E-14  
0.20595201       2.50838104E-14  
0.20599444       2.52339611E-14  
0.20603688       2.53853920E-14  
0.20607934       2.55381209E-14  
0.20612182       2.56920398E-14  
0.20616431       2.58469542E-14  
0.20620683       2.60029311E-14  
0.20624936       2.61599554E-14  
0.20629190       2.63180305E-14  
0.20633447       2.64772075E-14  
0.20637705       2.66374575E-14  
0.20641965       2.67988536E-14  
0.20646227       2.69614900E-14  
0.20650490       2.71251238E-14  
0.20654756       2.72898869E-14  
0.20659023       2.74558863E-14  
0.20663292       2.76231094E-14  
0.20667562       2.77915381E-14  
0.20671835       2.79611614E-14  
0.20676109       2.81320364E-14  
0.20680385       2.83041945E-14  
0.20684662       2.84776277E-14  
0.20688942       2.86522722E-14  
0.20693223       2.88279539E-14  
0.20697506       2.90050653E-14  
0.20701791       2.91834722E-14  
0.20706077       2.93631026E-14  
0.20710366       2.95439808E-14  
0.20714656       2.97261106E-14  
0.20718947       2.99094529E-14  
0.20723241       3.00940201E-14  
0.20727537       3.02797795E-14  
0.20731834       3.04670346E-14  
0.20736133       3.06521012E-14  
0.20740433       3.08295332E-14  
0.20744736       3.10180296E-14  
0.20749040       3.12066329E-14  
0.20753346       3.13948866E-14  
0.20757654       3.15821155E-14  
0.20761964       3.17673191E-14  
0.20766276       3.19491444E-14  
0.20770589       3.21266856E-14  
0.20774904       3.23037861E-14  
0.20779221       3.24950671E-14  
0.20783539       3.27043420E-14  
0.20787860       3.29316843E-14  
0.20792182       3.31637804E-14  
0.20796506       3.33921495E-14  
0.20800832       3.36166755E-14  
0.20805160       3.37368939E-14  
0.20809489       3.38154634E-14  
0.20813820       3.39905545E-14  
0.20818153       3.41541005E-14  
0.20822488       3.43022335E-14  
0.20826825       3.44393917E-14  
0.20831163       3.45436559E-14  
0.20835504       3.46254167E-14  
0.20839846       3.45465423E-14  
0.20844190       3.46136146E-14  
0.20848535       3.47727993E-14  
0.20852883       3.49820028E-14  
0.20857232       3.52465618E-14  
0.20861583       3.55117941E-14  
0.20865936       3.57313995E-14  
0.20870291       3.58828591E-14  
0.20874648       3.59727633E-14  
0.20879006       3.61378312E-14  
0.20883366       3.63993446E-14  
0.20887728       3.67561537E-14  
0.20892092       3.73002116E-14  
0.20896458       3.77533885E-14  
0.20900826       3.79727983E-14  
0.20905195       3.81998706E-14  
0.20909566       3.84413748E-14  
0.20913939       3.86821648E-14  
0.20918314       3.89300392E-14  
0.20922691       3.91787747E-14  
0.20927069       3.95371071E-14  
0.20931450       3.97004965E-14  
0.20935832       3.98076703E-14  
0.20940216       3.99595133E-14  
0.20944602       4.02220824E-14  
0.20948989       4.05910282E-14  
0.20953379       4.10205642E-14  
0.20957770       4.14906674E-14  
0.20962163       4.19387557E-14  
0.20966558       4.22201294E-14  
0.20970955       4.25100064E-14  
0.20975354       4.27658723E-14  
0.20979755       4.30066660E-14  
0.20984157       4.32068131E-14  
0.20988561       4.34641296E-14  
0.20992967       4.36121553E-14  
0.20997375       4.37351148E-14  
0.21001785       4.38819860E-14  
0.21006197       4.40979287E-14  
0.21010610       4.43910214E-14  
0.21015026       4.47701852E-14  
0.21019443       4.52059170E-14  
0.21023862       4.56562403E-14  
0.21028283       4.60198525E-14  
0.21032706       4.64205869E-14  
0.21037131       4.68163005E-14  
0.21041557       4.72463093E-14  
0.21045985       4.76104965E-14  
0.21050416       4.79516061E-14  
0.21054848       4.82963791E-14  
0.21059282       4.85876620E-14  
0.21063718       4.88408160E-14  
0.21068155       4.90897229E-14  
0.21072595       4.93800767E-14  
0.21077037       4.97230167E-14  
0.21081480       5.00756635E-14  
0.21085925       5.04093274E-14  
0.21090372       5.07493197E-14  
0.21094821       5.11228956E-14  
0.21099272       5.15462080E-14  
0.21103725       5.19994350E-14  
0.21108179       5.24499098E-14  
0.21112636       5.28780625E-14  
0.21117094       5.33483375E-14  
0.21121555       5.37418385E-14  
0.21126017       5.41176079E-14  
0.21130481       5.44837701E-14  
0.21134947       5.48653513E-14  
0.21139414       5.52381346E-14  
0.21143884       5.56369799E-14  
0.21148356       5.59912057E-14  
0.21152829       5.63636888E-14  
0.21157305       5.67594005E-14  
0.21161782       5.71778822E-14  
0.21166261       5.76111832E-14  
0.21170742       5.80452316E-14  
0.21175225       5.84749636E-14  
0.21179710       5.89021615E-14  
0.21184197       5.93316820E-14  
0.21188685       5.97478912E-14  
0.21193176       6.01633212E-14  
0.21197668       6.05912405E-14  
0.21202163       6.10256610E-14  
0.21206659       6.14590289E-14  
0.21211157       6.18803447E-14  
0.21215657       6.23039293E-14  
0.21220159       6.27307022E-14  
0.21224663       6.31608852E-14  
0.21229169       6.35935063E-14  
0.21233677       6.40295717E-14  
0.21238186       6.44684938E-14  
0.21242698       6.49109769E-14  
0.21247211       6.53564223E-14  
0.21251727       6.58040536E-14  
0.21256244       6.62545488E-14  
0.21260763       6.67081397E-14  
0.21265284       6.71651288E-14  
0.21269808       6.76258346E-14  
0.21274333       6.80917583E-14  
0.21278859       6.85633554E-14  
0.21283388       6.90000540E-14  
0.21287919       6.94645175E-14  
0.21292452       6.99345766E-14  
0.21296986       7.04030062E-14  
0.21301523       7.08676337E-14  
0.21306062       7.13260878E-14  
0.21310602       7.17724208E-14  
0.21315144       7.22005216E-14  
0.21319689       7.26116818E-14  
0.21324235       7.30445050E-14  
0.21328783       7.35492173E-14  
0.21333333       7.41272529E-14  
0.21337885       7.47400626E-14  
0.21342439       7.53385201E-14  
0.21346995       7.59122404E-14  
0.21351553       7.64719347E-14  
0.21356113       7.70216125E-14  
0.21360675       7.74506932E-14  
0.21365239       7.79731144E-14  
0.21369804       7.84857705E-14  
0.21374372       7.90185470E-14  
0.21378942       7.94935617E-14  
0.21383513       7.99370112E-14  
0.21388087       8.03480852E-14  
0.21392662       8.07318770E-14  
0.21397240       8.11156548E-14  
0.21401819       8.15914903E-14  
0.21406401       8.21983986E-14  
0.21410984       8.29369373E-14  
0.21415569       8.37200541E-14  
0.21420156       8.44850688E-14  
0.21424746       8.52074268E-14  
0.21429337       8.58976338E-14  
0.21433930       8.65674939E-14  
0.21438525       8.72264516E-14  
0.21443122       8.78690940E-14  
0.21447721       8.85056803E-14  
0.21452322       8.92195979E-14  
0.21456925       8.98325989E-14  
0.21461530       9.04682255E-14  
0.21466137       9.11278665E-14  
0.21470746       9.17989843E-14  
0.21475357       9.24636371E-14  
0.21479970       9.31391215E-14  
0.21484585       9.38159201E-14  
0.21489202       9.44905763E-14  
0.21493821       9.51587931E-14  
0.21498441       9.58349082E-14  
0.21503064       9.65122370E-14  
0.21507689       9.71984757E-14  
0.21512316       9.78705414E-14  
0.21516945       9.85543141E-14  
0.21521575       9.92540075E-14  
0.21526208       9.99639600E-14  
0.21530843       1.00678134E-13  
0.21535480       1.01401876E-13  
0.21540118       1.02102113E-13  
0.21544759       1.02835231E-13  
0.21549402       1.03555304E-13  
0.21554047       1.04278491E-13  
0.21558694       1.04998153E-13  
0.21563342       1.05705445E-13  
0.21567993       1.06410439E-13  
0.21572646       1.07084762E-13  
0.21577301       1.07726369E-13  
0.21581957       1.08374511E-13  
0.21586616       1.09076960E-13  
0.21591277       1.09848494E-13  
0.21595940       1.10695260E-13  
0.21600605       1.11580799E-13  
0.21605272       1.12491338E-13  
0.21609941       1.13399702E-13  
0.21614611       1.14300438E-13  
0.21619284       1.15186392E-13  
0.21623959       1.16063684E-13  
0.21628636       1.16240464E-13  
0.21633315       1.16384047E-13  
0.21637996       1.16917443E-13  
0.21642679       1.17348239E-13  
0.21647364       1.17609050E-13  
0.21652052       1.17648493E-13  
0.21656741       1.17355838E-13  
0.21661432       1.16541821E-13  
0.21666125       1.15154458E-13  
0.21670820       1.13909404E-13  
0.21675518       1.14258327E-13  
0.21680217       1.16468750E-13  
0.21684918       1.19780408E-13  
0.21689622       1.22798016E-13  
0.21694327       1.25239258E-13  
0.21699034       1.27228641E-13  
0.21703744       1.28906355E-13  
0.21708455       1.30367318E-13  
0.21713169       1.31683669E-13  
0.21717885       1.32905720E-13  
0.21722602       1.34946940E-13  
0.21727322       1.36174611E-13  
0.21732044       1.37164107E-13  
0.21736768       1.38192949E-13  
0.21741494       1.39001027E-13  
0.21746222       1.39906542E-13  
0.21750952       1.40885412E-13  
0.21755684       1.41821044E-13  
0.21760418       1.42696774E-13  
0.21765154       1.43487784E-13  
0.21769892       1.44155883E-13  
0.21774633       1.44631943E-13  
0.21779375       1.44919081E-13  
0.21784119       1.45260956E-13  
0.21788866       1.46207607E-13  
0.21793614       1.47827381E-13  
0.21798365       1.49804749E-13  
0.21803118       1.51636385E-13  
0.21807873       1.53253852E-13  
0.21812630       1.54721370E-13  
0.21817388       1.56101301E-13  
0.21822149       1.57416170E-13  
0.21826913       1.58583954E-13  
0.21831678       1.59766576E-13  
0.21836445       1.61190689E-13  
0.21841214       1.62370793E-13  
0.21845986       1.63459272E-13  
0.21850759       1.64502828E-13  
0.21855535       1.65469387E-13  
0.21860313       1.66312601E-13  
0.21865092       1.67048843E-13  
0.21869874       1.67842359E-13  
0.21874658       1.68931820E-13  
0.21879444       1.70280281E-13  
0.21884232       1.71988605E-13  
0.21889023       1.73714394E-13  
0.21893815       1.75310280E-13  
0.21898609       1.76767548E-13  
0.21903406       1.78105414E-13  
0.21908205       1.79323860E-13  
0.21913005       1.80404828E-13  
0.21917808       1.81360559E-13  
0.21922613       1.82435981E-13  
0.21927420       1.83852325E-13  
0.21932229       1.85597657E-13  
0.21937041       1.87427833E-13  
0.21941854       1.89140969E-13  
0.21946670       1.90721595E-13  
0.21951487       1.92190923E-13  
0.21956307       1.93558995E-13  
0.21961129       1.94849886E-13  
0.21965953       1.96179790E-13  
0.21970779       1.97713679E-13  
0.21975607       1.99575302E-13  
0.21980437       2.01281363E-13  
0.21985270       2.02918856E-13  
0.21990104       2.04493734E-13  
0.21994941       2.06012870E-13  
0.21999780       2.07473525E-13  
0.22004621       2.08883285E-13  
0.22009464       2.10323983E-13  
0.22014309       2.11929025E-13  
0.22019157       2.13733553E-13  
0.22024006       2.15549406E-13  
0.22028858       2.17342112E-13  
0.22033712       2.19096396E-13  
0.22038567       2.20827034E-13  
0.22043426       2.22547121E-13  
0.22048286       2.24265039E-13  
0.22053148       2.25986432E-13  
0.22058013       2.27725597E-13  
0.22062879       2.29507070E-13  
0.22067748       2.31254301E-13  
0.22072619       2.33001928E-13  
0.22077492       2.34764961E-13  
0.22082367       2.36544279E-13  
0.22087245       2.38338997E-13  
0.22092124       2.40147237E-13  
0.22097006       2.41968657E-13  
0.22101890       2.43803121E-13  
0.22106776       2.45650260E-13  
0.22111664       2.47511515E-13  
0.22116554       2.49379163E-13  
0.22121447       2.51274347E-13  
0.22126341       2.53192581E-13  
0.22131238       2.55125943E-13  
0.22136137       2.57072234E-13  
0.22141038       2.59032681E-13  
0.22145942       2.61008034E-13  
0.22150847       2.62998385E-13  
0.22155755       2.65004209E-13  
0.22160665       2.67025830E-13  
0.22165577       2.69064118E-13  
0.22170491       2.71118380E-13  
0.22175407       2.73187630E-13  
0.22180326       2.75273317E-13  
0.22185247       2.36384763E-13  
0.22190170       2.15613179E-13  
0.22195095       2.17145283E-13  
0.22200022       2.18687842E-13  
0.22204952       2.20240864E-13  
0.22209883       1.80779673E-13  
0.22214817       1.75357429E-13  
0.22219753       1.76522962E-13  
0.22224692       1.77695544E-13  
0.22229632       1.78875042E-13  
0.22234575       1.75960704E-13  
0.22239520       1.44511797E-13  
0.22244467       1.45413821E-13  
0.22249416       1.46320579E-13  
0.22254367       1.47231845E-13  
0.22259321       1.48147570E-13  
0.22264277       1.49067599E-13  
0.22269235       1.46896766E-13  
0.22274195       1.21696546E-13  
0.22279158       1.22409006E-13  
0.22284123       1.23123993E-13  
0.22289089       1.23842929E-13  
0.22294059       1.24566566E-13  
0.22299030       1.25293902E-13  
0.22304004       1.26023367E-13  
0.22308979       1.26754265E-13  
0.22313957       1.16538723E-13  
0.22318938       1.04211766E-13  
0.22323920       1.04787327E-13  
0.22328905       1.05366024E-13  
0.22333892       1.05946094E-13  
0.22338881       1.06527493E-13  
0.22343872       1.07110071E-13  
0.22348866       1.07694092E-13  
0.22353862       1.08279694E-13  
0.22358860       1.08866968E-13  
0.22363860       1.09455953E-13  
0.22368863       9.85053136E-14  
0.22373867       9.01591083E-14  
0.22378874       9.06224748E-14  
0.22383884       9.10867935E-14  
0.22388895       9.15522259E-14  
0.22393909       9.20188042E-14  
0.22398925       9.24864077E-14  
0.22403943       9.29550034E-14  
0.22408964       9.34245024E-14  
0.22413986       9.38947961E-14  
0.22419011       9.43658970E-14  
0.22424039       9.48377824E-14  
0.22429068       9.53105016E-14  
0.22434100       9.57844666E-14  
0.22439134       8.58472004E-14  
0.22444170       7.95926276E-14  
0.22449209       7.99710657E-14  
0.22454249       8.03497851E-14  
0.22459293       8.07288315E-14  
0.22464338       8.11083525E-14  
0.22469385       8.14886349E-14  
0.22474435       8.18694670E-14  
0.22479487       8.22505122E-14  
0.22484542       8.26318263E-14  
0.22489599       8.30132231E-14  
0.22494658       8.33947212E-14  
0.22499719       8.37762242E-14  
0.22504782       8.41575697E-14  
0.22509848       8.45387751E-14  
0.22514916       8.49207537E-14  
0.22519986       8.53041615E-14  
0.22525059       8.56881185E-14  
0.22530134       8.12608676E-14  
0.22535211       7.15579059E-14  
0.22540291       7.18672756E-14  
0.22545373       7.21764485E-14  
0.22550457       7.24851292E-14  
0.22555543       7.27930707E-14  
0.22560632       7.31014863E-14  
0.22565723       7.34097052E-14  
0.22570816       7.37175468E-14  
0.22575912       7.40248312E-14  
0.22581009       7.43314216E-14  
0.22586110       7.46368820E-14  
0.22591212       7.49407074E-14  
0.22596317       7.52428687E-14  
0.22601424       7.55464687E-14  
0.22606533       7.58552277E-14  
0.22611645       7.61663905E-14  
0.22616759       7.64760613E-14  
0.22621875       7.67838190E-14  
0.22626994       7.70899682E-14  
0.22632115       7.73950168E-14  
0.22637238       7.76992132E-14  
0.22642364       7.80027278E-14  
0.22647492       7.83054362E-14  
0.22652622       7.86078304E-14  
