# ATMO emission spectrum
# Wavelength [microns]  |  Flux [W/m2/micron]
0.20002000       4.23176225E-09  
0.20006002       2.90637823E-09  
0.20010005       2.23568531E-09  
0.20014010       1.92290695E-09  
0.20018016       1.58799224E-09  
0.20022024       1.22512022E-09  
0.20026034       9.29058287E-10  
0.20030045       7.25337060E-10  
0.20034058       5.89990677E-10  
0.20038072       4.39079576E-10  
0.20042088       3.15626086E-10  
0.20046106       2.88873983E-10  
0.20050125       3.49764800E-10  
0.20054146       4.44871961E-10  
0.20058169       5.09111469E-10  
0.20062193       5.25711092E-10  
0.20066219       4.86186755E-10  
0.20070246       3.84837340E-10  
0.20074275       2.80619936E-10  
0.20078305       2.40663129E-10  
0.20082338       2.89952467E-10  
0.20086371       4.17847697E-10  
0.20090407       5.14395738E-10  
0.20094444       6.46418273E-10  
0.20098483       8.52833818E-10  
0.20102523       9.87337063E-10  
0.20106565       1.04146065E-09  
0.20110608       1.16943392E-09  
0.20114654       1.43131235E-09  
0.20118700       2.04672959E-09  
0.20122749       2.57411168E-09  
0.20126799       2.53328858E-09  
0.20130851       2.52607054E-09  
0.20134904       2.62994570E-09  
0.20138959       2.39357349E-09  
0.20143015       2.34025977E-09  
0.20147074       2.21514928E-09  
0.20151134       2.01908582E-09  
0.20155195       1.63132941E-09  
0.20159258       1.23769044E-09  
0.20163323       9.93488243E-10  
0.20167389       9.07139652E-10  
0.20171457       8.63594051E-10  
0.20175527       8.05273809E-10  
0.20179598       8.56715561E-10  
0.20183671       1.10802482E-09  
0.20187746       1.52402687E-09  
0.20191822       1.94374585E-09  
0.20195900       2.23694078E-09  
0.20199980       2.28778678E-09  
0.20204061       1.98340674E-09  
0.20208144       1.46901230E-09  
0.20212228       1.48686813E-09  
0.20216315       2.13481664E-09  
0.20220402       2.98618696E-09  
0.20224492       3.47657465E-09  
0.20228583       3.89398716E-09  
0.20232676       4.26343632E-09  
0.20236770       4.46782743E-09  
0.20240866       4.49807877E-09  
0.20244964       4.42485989E-09  
0.20249063       4.43099498E-09  
0.20253165       4.54361738E-09  
0.20257267       4.46163860E-09  
0.20261372       4.27532930E-09  
0.20265478       3.97464716E-09  
0.20269585       3.84788044E-09  
0.20273695       4.32690200E-09  
0.20277806       4.43861892E-09  
0.20281919       4.09504289E-09  
0.20286033       3.81657216E-09  
0.20290149       3.68683456E-09  
0.20294267       3.11944813E-09  
0.20298386       2.20829438E-09  
0.20302507       1.19475545E-09  
0.20306630       6.06027700E-10  
0.20310755       7.89959136E-10  
0.20314881       1.33166988E-09  
0.20319008       1.72881439E-09  
0.20323138       1.78825427E-09  
0.20327269       1.60769883E-09  
0.20331402       1.28347419E-09  
0.20335536       9.00576061E-10  
0.20339673       5.30054774E-10  
0.20343810       2.49664251E-10  
0.20347950       8.73629502E-11  
0.20352091       3.57963751E-11  
0.20356234       9.31485004E-11  
0.20360379       2.70710116E-10  
0.20364525       5.65902203E-10  
0.20368673       9.77105618E-10  
0.20372823       1.42852282E-09  
0.20376974       1.77772873E-09  
0.20381127       1.99413945E-09  
0.20385282       2.50018871E-09  
0.20389438       3.08587479E-09  
0.20393596       4.61437833E-09  
0.20397756       5.13353784E-09  
0.20401918       4.77485074E-09  
0.20406081       6.08219259E-09  
0.20410246       7.35906984E-09  
0.20414413       8.17080616E-09  
0.20418581       8.69075502E-09  
0.20422751       9.12372846E-09  
0.20426923       9.45745155E-09  
0.20431096       9.64338266E-09  
0.20435271       9.78840841E-09  
0.20439448       8.94825257E-09  
0.20443627       8.41888293E-09  
0.20447807       8.15921581E-09  
0.20451989       7.76203783E-09  
0.20456173       7.22644866E-09  
0.20460358       6.51118965E-09  
0.20464545       5.56499519E-09  
0.20468734       4.34874972E-09  
0.20472925       2.88706374E-09  
0.20477117       1.48334186E-09  
0.20481311       1.01646802E-09  
0.20485507       1.86401732E-09  
0.20489704       3.24900722E-09  
0.20493903       4.37552360E-09  
0.20498104       5.03669360E-09  
0.20502307       5.23702181E-09  
0.20506511       4.98191818E-09  
0.20510717       4.29040594E-09  
0.20514925       3.20680882E-09  
0.20519134       1.92176051E-09  
0.20523345       9.59755754E-10  
0.20527558       9.08595123E-10  
0.20531773       1.85679308E-09  
0.20535989       2.94761109E-09  
0.20540207       4.18003075E-09  
0.20544427       5.58458807E-09  
0.20548649       6.72893829E-09  
0.20552872       7.61366428E-09  
0.20557097       8.27832565E-09  
0.20561324       8.43576751E-09  
0.20565553       8.64770811E-09  
0.20569783       9.52112855E-09  
0.20574015       8.81194289E-09  
0.20578249       7.88077737E-09  
0.20582484       7.99071062E-09  
0.20586722       7.91782325E-09  
0.20590961       6.99478485E-09  
0.20595201       5.33423889E-09  
0.20599444       3.39774119E-09  
0.20603688       3.13210634E-09  
0.20607934       5.02761480E-09  
0.20612182       7.05173155E-09  
0.20616431       8.41812667E-09  
0.20620683       9.39657214E-09  
0.20624936       1.00390085E-08  
0.20629190       1.03811780E-08  
0.20633447       1.06790510E-08  
0.20637705       1.06879848E-08  
0.20641965       1.05045237E-08  
0.20646227       1.02870375E-08  
0.20650490       9.17792257E-09  
0.20654756       7.40908328E-09  
0.20659023       7.09431243E-09  
0.20663292       8.01292811E-09  
0.20667562       7.89603555E-09  
0.20671835       7.64836754E-09  
0.20676109       6.93072001E-09  
0.20680385       7.46085755E-09  
0.20684662       9.00406688E-09  
0.20688942       9.51196663E-09  
0.20693223       8.58563576E-09  
0.20697506       8.64159572E-09  
0.20701791       9.74734446E-09  
0.20706077       1.00017080E-08  
0.20710366       9.82932918E-09  
0.20714656       9.76858412E-09  
0.20718947       9.10353821E-09  
0.20723241       7.66117340E-09  
0.20727537       5.35497688E-09  
0.20731834       3.13296323E-09  
0.20736133       2.81692183E-09  
0.20740433       2.03253984E-09  
0.20744736       1.92599637E-09  
0.20749040       1.61721827E-09  
0.20753346       1.25303384E-09  
0.20757654       8.95113370E-10  
0.20761964       5.76742607E-10  
0.20766276       3.20461764E-10  
0.20770589       1.41960955E-10  
0.20774904       4.55223575E-11  
0.20779221       1.41652803E-11  
0.20783539       2.75846484E-11  
0.20787860       9.56250759E-11  
0.20792182       2.49064160E-10  
0.20796506       4.94761672E-10  
0.20800832       8.21633026E-10  
0.20805160       2.68905659E-10  
0.20809489       1.10904789E-10  
0.20813820       8.72012278E-11  
0.20818153       6.42874032E-11  
0.20822488       4.42393239E-11  
0.20826825       2.85406659E-11  
0.20831163       1.63753517E-11  
0.20835504       8.25925307E-12  
0.20839846       3.31930482E-12  
0.20844190       1.20402872E-12  
0.20848535       7.01525975E-13  
0.20852883       1.62090472E-12  
0.20857232       3.78033981E-12  
0.20861583       5.53976170E-12  
0.20865936       6.10622406E-12  
0.20870291       5.04578768E-12  
0.20874648       2.50904376E-12  
0.20879006       8.84169404E-13  
0.20883366       6.96041278E-13  
0.20887728       2.08735577E-12  
0.20892092       5.62623826E-12  
0.20896458       1.09104132E-11  
0.20900826       1.26065897E-11  
0.20905195       9.78163182E-12  
0.20909566       5.55859929E-12  
0.20913939       2.87094965E-12  
0.20918314       4.30911223E-12  
0.20922691       8.85613109E-12  
0.20927069       1.15413232E-11  
0.20931450       8.09698038E-12  
0.20935832       3.70576197E-12  
0.20940216       1.24743315E-12  
0.20944602       7.78249827E-13  
0.20948989       2.29158982E-12  
0.20953379       6.39627380E-12  
0.20957770       1.36133268E-11  
0.20962163       2.38997755E-11  
0.20966558       3.15376751E-11  
0.20970955       3.62783648E-11  
0.20975354       3.46407771E-11  
0.20979755       2.83626586E-11  
0.20984157       1.86563808E-11  
0.20988561       1.03276439E-11  
0.20992967       4.19192928E-12  
0.20997375       2.58191396E-12  
0.21001785       2.89847722E-12  
0.21006197       1.52169357E-12  
0.21010610       1.38952040E-12  
0.21015026       1.93945279E-12  
0.21019443       4.35982655E-12  
0.21023862       7.36743694E-12  
0.21028283       6.32420553E-12  
0.21032706       5.65008460E-12  
0.21037131       7.58028096E-12  
0.21041557       1.59402420E-11  
0.21045985       2.26629403E-11  
0.21050416       3.07603442E-11  
0.21054848       3.26906870E-11  
0.21059282       2.25562114E-11  
0.21063718       1.05309279E-11  
0.21068155       3.66524568E-12  
0.21072595       3.24566761E-12  
0.21077037       8.13760162E-12  
0.21081480       1.17483731E-11  
0.21085925       7.46349883E-12  
0.21090372       4.57978175E-12  
0.21094821       3.54641458E-12  
0.21099272       5.63109057E-12  
0.21103725       1.53489666E-11  
0.21108179       3.06036460E-11  
0.21112636       4.87321603E-11  
0.21117094       6.51868920E-11  
0.21121555       7.79301205E-11  
0.21126017       8.67736534E-11  
0.21130481       6.00326969E-11  
0.21134947       3.17082367E-11  
0.21139414       3.51393246E-11  
0.21143884       4.52667734E-11  
0.21148356       2.58804519E-11  
0.21152829       1.28439910E-11  
0.21157305       1.43103362E-11  
0.21161782       2.81501918E-11  
0.21166261       7.07143879E-11  
0.21170742       1.52107734E-10  
0.21175225       2.75169738E-10  
0.21179710       4.43074900E-10  
0.21184197       6.83297549E-10  
0.21188685       8.23803688E-10  
0.21193176       7.35118751E-10  
0.21197668       5.73183407E-10  
0.21202163       1.29190369E-09  
0.21206659       3.72198135E-09  
0.21211157       5.00656028E-09  
0.21215657       4.08971287E-09  
0.21220159       3.61105508E-09  
0.21224663       6.20442287E-09  
0.21229169       8.48371293E-09  
0.21233677       9.44511800E-09  
0.21238186       1.00624426E-08  
0.21242698       1.07571018E-08  
0.21247211       1.02832098E-08  
0.21251727       8.03212388E-09  
0.21256244       5.04891777E-09  
0.21260763       3.31417533E-09  
0.21265284       2.82816196E-09  
0.21269808       1.48544476E-09  
0.21274333       1.17055242E-09  
0.21278859       2.07186368E-09  
0.21283388       1.45436375E-09  
0.21287919       1.55214381E-09  
0.21292452       1.41093396E-09  
0.21296986       1.10862140E-09  
0.21301523       7.83395668E-10  
0.21306062       5.17237617E-10  
0.21310602       2.99115839E-10  
0.21315144       1.41303641E-10  
0.21319689       5.00847544E-11  
0.21324235       1.32489832E-11  
0.21328783       1.06625295E-11  
0.21333333       4.15212853E-11  
0.21337885       1.25167382E-10  
0.21342439       2.68101941E-10  
0.21346995       4.68555805E-10  
0.21351553       7.28845724E-10  
0.21356113       9.49503659E-10  
0.21360675       4.56858805E-10  
0.21365239       4.04555365E-10  
0.21369804       3.27263688E-10  
0.21374372       2.68907887E-10  
0.21378942       1.70695429E-10  
0.21383513       9.36750077E-11  
0.21388087       4.14086325E-11  
0.21392662       1.73439265E-11  
0.21397240       1.03522769E-11  
0.21401819       3.67899740E-12  
0.21406401       4.53684129E-12  
0.21410984       1.54202192E-11  
0.21415569       4.03189765E-11  
0.21420156       7.64437229E-11  
0.21424746       1.14206212E-10  
0.21429337       1.80802114E-10  
0.21433930       2.74562172E-10  
0.21438525       3.54049840E-10  
0.21443122       3.64522503E-10  
0.21447721       2.81591309E-10  
0.21452322       1.72653013E-10  
0.21456925       5.54981979E-11  
0.21461530       7.03995289E-11  
0.21466137       1.79129874E-10  
0.21470746       2.48480979E-10  
0.21475357       3.30282124E-10  
0.21479970       6.97233982E-10  
0.21484585       1.08706170E-09  
0.21489202       1.07230221E-09  
0.21493821       1.15447538E-09  
0.21498441       1.32151659E-09  
0.21503064       1.06583635E-09  
0.21507689       6.64231472E-10  
0.21512316       2.86952497E-10  
0.21516945       1.13493971E-10  
0.21521575       1.84074731E-10  
0.21526208       3.28939513E-10  
0.21530843       2.45536634E-10  
0.21535480       1.07111251E-10  
0.21540118       1.51118577E-10  
0.21544759       3.64170973E-10  
0.21549402       5.07784664E-10  
0.21554047       4.46251020E-10  
0.21558694       3.30672758E-10  
0.21563342       3.29004573E-10  
0.21567993       2.64335944E-10  
0.21572646       1.53039963E-10  
0.21577301       6.55998519E-11  
0.21581957       2.11675188E-11  
0.21586616       1.36042429E-11  
0.21591277       1.55719023E-11  
0.21595940       1.73395379E-11  
0.21600605       2.95414664E-11  
0.21605272       4.39804157E-11  
0.21609941       9.12785670E-11  
0.21614611       1.62881725E-10  
0.21619284       1.58679336E-10  
0.21623959       1.54615959E-10  
0.21628636       9.34774204E-11  
0.21633315       5.92257432E-11  
0.21637996       4.50069053E-11  
0.21642679       2.91543496E-11  
0.21647364       1.89343239E-11  
0.21652052       1.26139741E-11  
0.21656741       9.48809790E-12  
0.21661432       5.49113740E-12  
0.21666125       2.40214422E-12  
0.21670820       6.87576269E-13  
0.21675518       2.91965509E-13  
0.21680217       1.27280788E-12  
0.21684918       3.70930867E-12  
0.21689622       8.04234663E-12  
0.21694327       1.47491259E-11  
0.21699034       2.42453725E-11  
0.21703744       3.62468763E-11  
0.21708455       4.87680897E-11  
0.21713169       5.50765329E-11  
0.21717885       4.49218470E-11  
0.21722602       8.02268013E-11  
0.21727322       7.88475853E-11  
0.21732044       6.06054661E-11  
0.21736768       7.16123344E-11  
0.21741494       9.48974630E-11  
0.21746222       1.67547175E-10  
0.21750952       2.02716159E-10  
0.21755684       1.83301374E-10  
0.21760418       1.38757958E-10  
0.21765154       9.11429356E-11  
0.21769892       5.10975512E-11  
0.21774633       2.46311379E-11  
0.21779375       1.12290310E-11  
0.21784119       3.48176399E-12  
0.21788866       1.91795169E-12  
0.21793614       6.96169483E-12  
0.21798365       2.07371750E-11  
0.21803118       4.63955324E-11  
0.21807873       8.27376940E-11  
0.21812630       1.10926244E-10  
0.21817388       1.45548138E-10  
0.21822149       2.47817424E-10  
0.21826913       2.96244033E-10  
0.21831678       3.13028733E-10  
0.21836445       4.87648257E-10  
0.21841214       4.10616609E-10  
0.21845986       3.20490336E-10  
0.21850759       2.19778012E-10  
0.21855535       1.27460786E-10  
0.21860313       6.13596716E-11  
0.21865092       2.24140701E-11  
0.21869874       6.62441108E-12  
0.21874658       5.93664053E-12  
0.21879444       7.76088216E-12  
0.21884232       2.35768744E-11  
0.21889023       6.03103099E-11  
0.21893815       1.07381956E-10  
0.21898609       1.42633606E-10  
0.21903406       1.44545967E-10  
0.21908205       1.10940215E-10  
0.21913005       6.23188930E-11  
0.21917808       2.52904333E-11  
0.21922613       7.74662499E-12  
0.21927420       7.16190625E-12  
0.21932229       2.60113943E-11  
0.21937041       6.96067903E-11  
0.21941854       1.31245437E-10  
0.21946670       1.80293414E-10  
0.21951487       1.77386533E-10  
0.21956307       1.17298607E-10  
0.21961129       4.75906323E-11  
0.21965953       1.42782168E-11  
0.21970779       2.46953591E-11  
0.21975607       8.63286044E-11  
0.21980437       2.00101908E-10  
0.21985270       3.35015056E-10  
0.21990104       4.08958943E-10  
0.21994941       3.60734800E-10  
0.21999780       2.24317248E-10  
0.22004621       9.26245916E-11  
0.22009464       2.86853832E-11  
0.22014309       2.34213015E-11  
0.22019157       7.30207011E-11  
0.22024006       2.18746949E-10  
0.22028858       5.10233957E-10  
0.22033712       9.60365537E-10  
0.22038567       1.57253631E-09  
0.22043426       2.33743122E-09  
0.22048286       3.23126952E-09  
0.22053148       4.22402875E-09  
0.22058013       5.99954197E-09  
0.22062879       1.79193264E-08  
0.22067748       2.23375855E-08  
0.22072619       1.22918214E-08  
0.22077492       6.72248763E-09  
0.22082367       1.10635781E-08  
0.22087245       1.66065028E-08  
0.22092124       1.57351383E-08  
0.22097006       1.58913935E-08  
0.22101890       1.57515014E-08  
0.22106776       1.05366193E-08  
0.22111664       4.92956229E-09  
0.22116554       3.11328775E-09  
0.22121447       4.33850587E-09  
0.22126341       1.05716751E-08  
0.22131238       1.95541931E-08  
0.22136137       2.77945015E-08  
0.22141038       3.46247699E-08  
0.22145942       4.02177057E-08  
0.22150847       4.41105129E-08  
0.22155755       4.72036855E-08  
0.22160665       4.90712608E-08  
0.22165577       5.13955421E-08  
0.22170491       5.11557689E-08  
0.22175407       4.18665968E-08  
0.22180326       2.78199951E-08  
0.22185247       1.60424621E-08  
0.22190170       1.11877279E-08  
0.22195095       1.41535696E-08  
0.22200022       1.54762512E-08  
0.22204952       1.55115898E-08  
0.22209883       4.57394490E-09  
0.22214817       3.05157231E-09  
0.22219753       3.29200857E-09  
0.22224692       3.79527145E-09  
0.22229632       4.02177548E-09  
0.22234575       3.67728309E-09  
0.22239520       9.92275102E-10  
0.22244467       9.23257152E-10  
0.22249416       8.78435770E-10  
0.22254367       8.31862171E-10  
0.22259321       7.77830441E-10  
0.22264277       7.09347545E-10  
0.22269235       5.41994326E-10  
0.22274195       1.59093585E-10  
0.22279158       1.22701975E-10  
0.22284123       7.79557268E-11  
0.22289089       5.25620585E-11  
0.22294059       7.28331143E-11  
0.22299030       8.95805485E-11  
0.22304004       1.02172508E-10  
0.22308979       8.94890054E-11  
0.22313957       4.08811760E-11  
0.22318938       1.65589856E-11  
0.22323920       2.43627849E-11  
0.22328905       3.57435418E-11  
0.22333892       4.37095072E-11  
0.22338881       4.90521708E-11  
0.22343872       5.21652949E-11  
0.22348866       5.38727735E-11  
0.22353862       5.46122987E-11  
0.22358860       5.47589462E-11  
0.22363860       5.45150692E-11  
0.22368863       3.00669739E-11  
0.22373867       1.73872455E-11  
0.22378874       1.68832874E-11  
0.22383884       1.60175028E-11  
0.22388895       1.49672756E-11  
0.22393909       1.51138037E-11  
0.22398925       1.52624937E-11  
0.22403943       1.50510077E-11  
0.22408964       1.46719607E-11  
0.22413986       1.40820055E-11  
0.22419011       1.32899937E-11  
0.22424039       1.20701411E-11  
0.22429068       9.98941471E-12  
0.22434100       8.93593384E-12  
0.22439134       6.15542943E-12  
0.22444170       4.30960293E-12  
0.22449209       4.29355920E-12  
0.22454249       4.16028740E-12  
0.22459293       3.76127020E-12  
0.22464338       3.43093223E-12  
0.22469385       3.78292523E-12  
0.22474435       3.95148375E-12  
0.22479487       3.95964990E-12  
0.22484542       3.91600897E-12  
0.22489599       3.83161079E-12  
0.22494658       3.71530335E-12  
0.22499719       3.55620595E-12  
0.22504782       3.30694239E-12  
0.22509848       2.85477711E-12  
0.22514916       2.38129241E-12  
0.22519986       2.68542655E-12  
0.22525059       2.76492995E-12  
0.22530134       2.30868028E-12  
0.22535211       1.33576347E-12  
0.22540291       1.33181402E-12  
0.22545373       1.31703260E-12  
0.22550457       1.29143965E-12  
0.22555543       1.25449721E-12  
0.22560632       1.22844107E-12  
0.22565723       1.20172848E-12  
0.22570816       1.17214868E-12  
0.22575912       1.13763491E-12  
0.22581009       1.09638597E-12  
0.22586110       1.04164849E-12  
0.22591212       9.59759285E-13  
0.22596317       8.20198632E-13  
0.22601424       6.55946362E-13  
0.22606533       7.63320251E-13  
0.22611645       8.85119122E-13  
0.22616759       9.33260196E-13  
0.22621875       9.47578858E-13  
0.22626994       9.44352638E-13  
0.22632115       9.30494382E-13  
0.22637238       9.02830983E-13  
0.22642364       8.68660479E-13  
0.22647492       8.68697408E-13  
0.22652622       8.42301118E-13  
