# ATMO emission spectrum
# Wavelength [microns]  |  Flux [W/m2/micron]
0.20002000       1.07085824E-10  
0.20006002       9.84179768E-11  
0.20010005       9.25447611E-11  
0.20014010       9.01085309E-11  
0.20018016       8.72457212E-11  
0.20022024       8.36035192E-11  
0.20026034       8.05660583E-11  
0.20030045       7.73900627E-11  
0.20034058       7.45469241E-11  
0.20038072       7.01246739E-11  
0.20042088       6.65588998E-11  
0.20046106       6.58832345E-11  
0.20050125       6.59703971E-11  
0.20054146       6.62761251E-11  
0.20058169       6.69334880E-11  
0.20062193       6.70696839E-11  
0.20066219       6.64943970E-11  
0.20070246       6.52929852E-11  
0.20074275       6.47144358E-11  
0.20078305       6.46931288E-11  
0.20082338       6.55353567E-11  
0.20086371       6.91676022E-11  
0.20090407       7.20378094E-11  
0.20094444       7.47302974E-11  
0.20098483       7.80658758E-11  
0.20102523       8.15320852E-11  
0.20106565       8.42816152E-11  
0.20110608       8.71104849E-11  
0.20114654       8.96977272E-11  
0.20118700       9.70587861E-11  
0.20122749       1.01959259E-10  
0.20126799       1.00808631E-10  
0.20130851       1.01529930E-10  
0.20134904       1.03191838E-10  
0.20138959       9.95613308E-11  
0.20143015       9.82379210E-11  
0.20147074       9.71986522E-11  
0.20151134       9.67808250E-11  
0.20155195       9.47136952E-11  
0.20159258       9.25753775E-11  
0.20163323       9.08417401E-11  
0.20167389       8.94790147E-11  
0.20171457       8.85151586E-11  
0.20175527       8.90382730E-11  
0.20179598       9.02572819E-11  
0.20183671       9.18919811E-11  
0.20187746       9.41836526E-11  
0.20191822       9.64066495E-11  
0.20195900       9.78858386E-11  
0.20199980       9.82887371E-11  
0.20204061       9.79225645E-11  
0.20208144       9.80140174E-11  
0.20212228       9.86574345E-11  
0.20216315       1.01696017E-10  
0.20220402       1.08401887E-10  
0.20224492       1.11121733E-10  
0.20228583       1.12802087E-10  
0.20232676       1.14094222E-10  
0.20236770       1.15043105E-10  
0.20240866       1.15716102E-10  
0.20244964       1.16073609E-10  
0.20249063       1.16548047E-10  
0.20253165       1.17430022E-10  
0.20257267       1.17487194E-10  
0.20261372       1.17385300E-10  
0.20265478       1.16847295E-10  
0.20269585       1.14435652E-10  
0.20273695       1.14488021E-10  
0.20277806       1.14248069E-10  
0.20281919       1.13280066E-10  
0.20286033       1.11896123E-10  
0.20290149       1.10111759E-10  
0.20294267       1.06821246E-10  
0.20298386       1.01615794E-10  
0.20302507       9.50141470E-11  
0.20306630       9.09906852E-11  
0.20310755       8.87394735E-11  
0.20314881       8.84575409E-11  
0.20319008       9.05367131E-11  
0.20323138       8.99741352E-11  
0.20327269       8.72220950E-11  
0.20331402       8.23544941E-11  
0.20335536       7.54052152E-11  
0.20339673       6.63944937E-11  
0.20343810       5.59480504E-11  
0.20347950       4.60108678E-11  
0.20352091       4.15552928E-11  
0.20356234       4.67906223E-11  
0.20360379       5.75992863E-11  
0.20364525       6.87588677E-11  
0.20368673       7.85829711E-11  
0.20372823       8.65390343E-11  
0.20376974       9.26437236E-11  
0.20381127       9.75039522E-11  
0.20385282       1.02010818E-10  
0.20389438       1.05962226E-10  
0.20393596       1.18341445E-10  
0.20397756       1.24898884E-10  
0.20401918       1.25311885E-10  
0.20406081       1.27052879E-10  
0.20410246       1.28820995E-10  
0.20414413       1.30174474E-10  
0.20418581       1.31154288E-10  
0.20422751       1.32058436E-10  
0.20426923       1.32796614E-10  
0.20431096       1.33249714E-10  
0.20435271       1.33642830E-10  
0.20439448       1.31898024E-10  
0.20443627       1.30880293E-10  
0.20447807       1.30416689E-10  
0.20451989       1.29595349E-10  
0.20456173       1.28384703E-10  
0.20460358       1.26609158E-10  
0.20464545       1.23981681E-10  
0.20468734       1.20083062E-10  
0.20472925       1.14558039E-10  
0.20477117       1.08576286E-10  
0.20481311       1.06700246E-10  
0.20485507       1.09493124E-10  
0.20489704       1.15310587E-10  
0.20493903       1.19627573E-10  
0.20498104       1.21922199E-10  
0.20502307       1.22659806E-10  
0.20506511       1.21899469E-10  
0.20510717       1.19518251E-10  
0.20514925       1.15203989E-10  
0.20519134       1.09033054E-10  
0.20523345       1.04069976E-10  
0.20527558       1.04221633E-10  
0.20531773       1.09956579E-10  
0.20535989       1.16817423E-10  
0.20540207       1.22546938E-10  
0.20544427       1.27082480E-10  
0.20548649       1.30461556E-10  
0.20552872       1.32918280E-10  
0.20557097       1.34698958E-10  
0.20561324       1.35167148E-10  
0.20565553       1.35944955E-10  
0.20569783       1.38624809E-10  
0.20574015       1.38238495E-10  
0.20578249       1.37658283E-10  
0.20582484       1.37289117E-10  
0.20586722       1.36558129E-10  
0.20590961       1.34976228E-10  
0.20595201       1.32314409E-10  
0.20599444       1.29595571E-10  
0.20603688       1.29586186E-10  
0.20607934       1.32661903E-10  
0.20612182       1.36308404E-10  
0.20616431       1.38765607E-10  
0.20620683       1.40582254E-10  
0.20624936       1.41830048E-10  
0.20629190       1.42606919E-10  
0.20633447       1.43175587E-10  
0.20637705       1.43337304E-10  
0.20641965       1.43381092E-10  
0.20646227       1.43803526E-10  
0.20650490       1.43044532E-10  
0.20654756       1.41922555E-10  
0.20659023       1.41633636E-10  
0.20663292       1.42012176E-10  
0.20667562       1.42245002E-10  
0.20671835       1.42177092E-10  
0.20676109       1.42217127E-10  
0.20680385       1.42989186E-10  
0.20684662       1.44288322E-10  
0.20688942       1.45076199E-10  
0.20693223       1.44561909E-10  
0.20697506       1.44972315E-10  
0.20701791       1.45788372E-10  
0.20706077       1.46156186E-10  
0.20710366       1.46166787E-10  
0.20714656       1.45834671E-10  
0.20718947       1.44805730E-10  
0.20723241       1.42782240E-10  
0.20727537       1.39319047E-10  
0.20731834       1.36308020E-10  
0.20736133       1.28971402E-10  
0.20740433       1.07166122E-10  
0.20744736       1.04110147E-10  
0.20749040       9.93587604E-11  
0.20753346       9.30435823E-11  
0.20757654       8.51428518E-11  
0.20761964       7.55550649E-11  
0.20766276       6.42910430E-11  
0.20770589       5.18833224E-11  
0.20774904       3.99002124E-11  
0.20779221       3.27653404E-11  
0.20783539       3.62489584E-11  
0.20787860       4.77028580E-11  
0.20792182       6.10168835E-11  
0.20796506       7.37794770E-11  
0.20800832       8.50342293E-11  
0.20805160       5.60301357E-11  
0.20809489       3.84388546E-11  
0.20813820       3.46686674E-11  
0.20818153       3.03677667E-11  
0.20822488       2.57249042E-11  
0.20826825       2.11677787E-11  
0.20831163       1.64619437E-11  
0.20835504       1.21423654E-11  
0.20839846       7.83403898E-12  
0.20844190       5.38776258E-12  
0.20848535       4.74657424E-12  
0.20852883       5.70308008E-12  
0.20857232       7.58650152E-12  
0.20861583       8.90939519E-12  
0.20865936       9.14693992E-12  
0.20870291       8.11722680E-12  
0.20874648       6.03872904E-12  
0.20879006       4.25707125E-12  
0.20883366       4.10515227E-12  
0.20887728       5.87745204E-12  
0.20892092       9.30286346E-12  
0.20896458       1.27731556E-11  
0.20900826       1.35825169E-11  
0.20905195       1.29212229E-11  
0.20909566       1.13085126E-11  
0.20913939       1.00363448E-11  
0.20918314       1.06892585E-11  
0.20922691       1.23052816E-11  
0.20927069       1.34514330E-11  
0.20931450       1.13864587E-11  
0.20935832       8.17439227E-12  
0.20940216       5.49013680E-12  
0.20944602       4.97064520E-12  
0.20948989       6.96241712E-12  
0.20953379       1.07330377E-11  
0.20957770       1.53134675E-11  
0.20962163       2.03500587E-11  
0.20966558       2.24211005E-11  
0.20970955       2.36319927E-11  
0.20975354       2.30593831E-11  
0.20979755       2.12491719E-11  
0.20984157       1.80175565E-11  
0.20988561       1.48174497E-11  
0.20992967       1.08827709E-11  
0.20997375       8.73711296E-12  
0.21001785       7.61450962E-12  
0.21006197       6.35468382E-12  
0.21010610       6.12407431E-12  
0.21015026       7.33343130E-12  
0.21019443       9.69503496E-12  
0.21023862       1.22945735E-11  
0.21028283       1.32770575E-11  
0.21032706       1.40956830E-11  
0.21037131       1.60529048E-11  
0.21041557       1.99473308E-11  
0.21045985       2.29224340E-11  
0.21050416       2.46729942E-11  
0.21054848       2.49753974E-11  
0.21059282       2.20727941E-11  
0.21063718       1.72197207E-11  
0.21068155       1.29113318E-11  
0.21072595       1.23137171E-11  
0.21077037       1.48464634E-11  
0.21081480       1.64338003E-11  
0.21085925       1.50959824E-11  
0.21090372       1.34500823E-11  
0.21094821       1.31584573E-11  
0.21099272       1.55075238E-11  
0.21103725       2.11202082E-11  
0.21108179       2.75116604E-11  
0.21112636       3.30715956E-11  
0.21117094       4.00739073E-11  
0.21121555       4.32692789E-11  
0.21126017       4.42791882E-11  
0.21130481       4.20148372E-11  
0.21134947       3.94569630E-11  
0.21139414       3.86370455E-11  
0.21143884       3.92812388E-11  
0.21148356       3.44434519E-11  
0.21152829       3.07726525E-11  
0.21157305       3.21850887E-11  
0.21161782       3.85422331E-11  
0.21166261       4.87850214E-11  
0.21170742       6.03057376E-11  
0.21175225       7.16247796E-11  
0.21179710       8.26586804E-11  
0.21184197       9.46661046E-11  
0.21188685       1.01185580E-10  
0.21193176       1.04402350E-10  
0.21197668       1.12595424E-10  
0.21202163       1.30807971E-10  
0.21206659       1.56664641E-10  
0.21211157       1.62831520E-10  
0.21215657       1.64486416E-10  
0.21220159       1.66571107E-10  
0.21224663       1.71900077E-10  
0.21229169       1.75428261E-10  
0.21233677       1.78018090E-10  
0.21238186       1.79045059E-10  
0.21242698       1.80123542E-10  
0.21247211       1.79752306E-10  
0.21251727       1.75886584E-10  
0.21256244       1.69976512E-10  
0.21260763       1.63863671E-10  
0.21265284       1.58236679E-10  
0.21269808       1.51074328E-10  
0.21274333       1.49289164E-10  
0.21278859       1.55829662E-10  
0.21283388       1.30100379E-10  
0.21287919       1.25575129E-10  
0.21292452       1.20995936E-10  
0.21296986       1.13570735E-10  
0.21301523       1.03680812E-10  
0.21306062       9.17592148E-11  
0.21310602       7.75948998E-11  
0.21315144       6.16016677E-11  
0.21319689       4.51556334E-11  
0.21324235       3.18493264E-11  
0.21328783       3.07742899E-11  
0.21333333       4.32139003E-11  
0.21337885       6.03659549E-11  
0.21342439       7.74964055E-11  
0.21346995       9.20244327E-11  
0.21351553       1.03632386E-10  
0.21356113       1.11149403E-10  
0.21360675       8.69832475E-11  
0.21365239       8.35970772E-11  
0.21369804       7.78638697E-11  
0.21374372       7.34324202E-11  
0.21378942       6.24838553E-11  
0.21383513       5.03798266E-11  
0.21388087       3.82623752E-11  
0.21392662       2.84062977E-11  
0.21397240       2.09034152E-11  
0.21401819       1.54875324E-11  
0.21406401       1.65057639E-11  
0.21410984       2.47483106E-11  
0.21415569       3.58288870E-11  
0.21420156       4.71585769E-11  
0.21424746       5.77589331E-11  
0.21429337       6.79325523E-11  
0.21433930       7.70455481E-11  
0.21438525       8.40714413E-11  
0.21443122       8.66205809E-11  
0.21447721       8.41795471E-11  
0.21452322       8.63446008E-11  
0.21456925       7.25016352E-11  
0.21461530       7.38924444E-11  
0.21466137       8.65968762E-11  
0.21470746       9.76933535E-11  
0.21475357       1.07650137E-10  
0.21479970       1.20822034E-10  
0.21484585       1.31348021E-10  
0.21489202       1.36117166E-10  
0.21493821       1.35545963E-10  
0.21498441       1.35396232E-10  
0.21503064       1.30270058E-10  
0.21507689       1.22615686E-10  
0.21512316       1.06408010E-10  
0.21516945       9.45801823E-11  
0.21521575       9.68052688E-11  
0.21526208       1.02341624E-10  
0.21530843       9.92514930E-11  
0.21535480       9.31986726E-11  
0.21540118       9.33619732E-11  
0.21544759       1.03879590E-10  
0.21549402       1.06524216E-10  
0.21554047       1.03869846E-10  
0.21558694       9.81164708E-11  
0.21563342       9.16946734E-11  
0.21567993       8.27242526E-11  
0.21572646       6.90837086E-11  
0.21577301       5.30945041E-11  
0.21581957       3.89291931E-11  
0.21586616       3.33979093E-11  
0.21591277       3.38442793E-11  
0.21595940       3.68108500E-11  
0.21600605       4.34424931E-11  
0.21605272       5.24850765E-11  
0.21609941       6.40153578E-11  
0.21614611       7.53979631E-11  
0.21619284       8.19717314E-11  
0.21623959       8.76960273E-11  
0.21628636       5.42787384E-11  
0.21633315       3.95770619E-11  
0.21637996       3.43751130E-11  
0.21642679       2.84912655E-11  
0.21647364       2.27784956E-11  
0.21652052       1.77441311E-11  
0.21656741       1.32028944E-11  
0.21661432       8.77704443E-12  
0.21666125       4.90713345E-12  
0.21670820       2.36208577E-12  
0.21675518       1.79006458E-12  
0.21680217       3.28111148E-12  
0.21684918       6.71796216E-12  
0.21689622       1.15038290E-11  
0.21694327       1.72356970E-11  
0.21699034       2.36267638E-11  
0.21703744       3.02024137E-11  
0.21708455       3.62595287E-11  
0.21713169       4.07992367E-11  
0.21717885       4.31974565E-11  
0.21722602       7.13624455E-11  
0.21727322       7.84135664E-11  
0.21732044       7.54303730E-11  
0.21736768       7.95483625E-11  
0.21741494       7.47959615E-11  
0.21746222       7.68577270E-11  
0.21750952       7.78442845E-11  
0.21755684       7.32957457E-11  
0.21760418       6.48357256E-11  
0.21765154       5.39122993E-11  
0.21769892       4.17630838E-11  
0.21774633       2.98612789E-11  
0.21779375       1.91532115E-11  
0.21784119       1.08986209E-11  
0.21788866       9.12122626E-12  
0.21793614       1.51284638E-11  
0.21798365       2.63601155E-11  
0.21803118       3.95205842E-11  
0.21807873       5.29139441E-11  
0.21812630       6.50106267E-11  
0.21817388       7.69315826E-11  
0.21822149       8.96065777E-11  
0.21826913       9.28629521E-11  
0.21831678       9.44992319E-11  
0.21836445       1.14751518E-10  
0.21841214       1.11511187E-10  
0.21845986       9.90616659E-11  
0.21850759       8.45950430E-11  
0.21855535       6.80073448E-11  
0.21860313       5.03625145E-11  
0.21865092       3.33079753E-11  
0.21869874       2.14030798E-11  
0.21874658       1.92088367E-11  
0.21879444       2.30304845E-11  
0.21884232       3.41931356E-11  
0.21889023       4.94210881E-11  
0.21893815       6.23657451E-11  
0.21898609       7.00265481E-11  
0.21903406       7.06991232E-11  
0.21908205       6.40741342E-11  
0.21913005       5.14524655E-11  
0.21917808       3.60931848E-11  
0.21922613       2.37389913E-11  
0.21927420       2.36456925E-11  
0.21932229       3.72349722E-11  
0.21937041       5.52803071E-11  
0.21941854       7.11315261E-11  
0.21946670       8.09360270E-11  
0.21951487       8.17806694E-11  
0.21956307       7.26209543E-11  
0.21961129       5.56129676E-11  
0.21965953       4.14488714E-11  
0.21970779       4.66788899E-11  
0.21975607       7.06630918E-11  
0.21980437       9.28371420E-11  
0.21985270       1.09015232E-10  
0.21990104       1.16149078E-10  
0.21994941       1.12636361E-10  
0.21999780       9.88238947E-11  
0.22004621       7.74292521E-11  
0.22009464       5.77930262E-11  
0.22014309       5.59452623E-11  
0.22019157       7.60061054E-11  
0.22024006       1.05177710E-10  
0.22028858       1.34309924E-10  
0.22033712       1.60108854E-10  
0.22038567       1.81989566E-10  
0.22043426       2.00164742E-10  
0.22048286       2.15098721E-10  
0.22053148       2.27387208E-10  
0.22058013       2.43066738E-10  
0.22062879       2.85009998E-10  
0.22067748       2.95122450E-10  
0.22072619       2.88235220E-10  
0.22077492       2.83492292E-10  
0.22082367       2.87142245E-10  
0.22087245       2.91926364E-10  
0.22092124       2.93352703E-10  
0.22097006       2.93297390E-10  
0.22101890       2.91262784E-10  
0.22106776       2.84694029E-10  
0.22111664       2.74443160E-10  
0.22116554       2.68650205E-10  
0.22121447       2.74873740E-10  
0.22126341       2.89301274E-10  
0.22131238       3.01294164E-10  
0.22136137       3.08867321E-10  
0.22141038       3.13926486E-10  
0.22145942       3.17651066E-10  
0.22150847       3.20216078E-10  
0.22155755       3.22190720E-10  
0.22160665       3.23749524E-10  
0.22165577       3.25621716E-10  
0.22170491       3.26983384E-10  
0.22175407       3.25953941E-10  
0.22180326       3.23915871E-10  
0.22185247       2.06456150E-10  
0.22190170       1.49975999E-10  
0.22195095       1.50810224E-10  
0.22200022       1.51247385E-10  
0.22204952       1.51359028E-10  
0.22209883       8.03641855E-11  
0.22214817       7.06772771E-11  
0.22219753       7.06204146E-11  
0.22224692       7.06489464E-11  
0.22229632       7.06135310E-11  
0.22234575       6.57809037E-11  
0.22239520       3.38196756E-11  
0.22244467       3.36112190E-11  
0.22249416       3.34245719E-11  
0.22254367       3.32285434E-11  
0.22259321       3.30101460E-11  
0.22264277       3.27469484E-11  
0.22269235       3.03076680E-11  
0.22274195       1.58923381E-11  
0.22279158       1.55883160E-11  
0.22284123       1.51459866E-11  
0.22289089       1.48200046E-11  
0.22294059       1.48908619E-11  
0.22299030       1.49863663E-11  
0.22304004       1.49603113E-11  
0.22308979       1.47388964E-11  
0.22313957       1.08338950E-11  
0.22318938       7.29231588E-12  
0.22323920       7.37339641E-12  
0.22328905       7.49757310E-12  
0.22333892       7.54211291E-12  
0.22338881       7.54695396E-12  
0.22343872       7.52517524E-12  
0.22348866       7.48995814E-12  
0.22353862       7.44708818E-12  
0.22358860       7.40009206E-12  
0.22363860       7.35064753E-12  
0.22368863       5.13409281E-12  
0.22373867       3.76199763E-12  
0.22378874       3.73126107E-12  
0.22383884       3.69847205E-12  
0.22388895       3.66612511E-12  
0.22393909       3.63761550E-12  
0.22398925       3.60979580E-12  
0.22403943       3.58071825E-12  
0.22408964       3.55053330E-12  
0.22413986       3.51816462E-12  
0.22419011       3.48365182E-12  
0.22424039       3.44495559E-12  
0.22429068       3.39863505E-12  
0.22434100       3.36313694E-12  
0.22439134       2.36138533E-12  
0.22444170       1.83437207E-12  
0.22449209       1.82009612E-12  
0.22454249       1.80387776E-12  
0.22459293       1.78455265E-12  
0.22464338       1.76702061E-12  
0.22469385       1.75678054E-12  
0.22474435       1.74584285E-12  
0.22479487       1.73257441E-12  
0.22484542       1.71853873E-12  
0.22489599       1.70362635E-12  
0.22494658       1.68795481E-12  
0.22499719       1.67118133E-12  
0.22504782       1.65202034E-12  
0.22509848       1.62753707E-12  
0.22514916       1.60456162E-12  
0.22519986       1.59733615E-12  
0.22525059       1.59024479E-12  
0.22530134       1.34375968E-12  
0.22535211       9.23371383E-13  
0.22540291       9.16828940E-13  
0.22545373       9.09937840E-13  
0.22550457       9.02573876E-13  
0.22555543       8.94606165E-13  
0.22560632       8.87262653E-13  
0.22565723       8.79901072E-13  
0.22570816       8.72373735E-13  
0.22575912       8.64515291E-13  
0.22581009       8.56148938E-13  
0.22586110       8.46667378E-13  
0.22591212       8.34687946E-13  
0.22596317       8.16848107E-13  
0.22601424       7.98749379E-13  
0.22606533       8.01341374E-13  
0.22611645       8.07334086E-13  
0.22616759       8.06398980E-13  
0.22621875       8.02433945E-13  
0.22626994       7.97062060E-13  
0.22632115       7.90986589E-13  
0.22637238       7.84355321E-13  
0.22642364       7.77675756E-13  
0.22647492       7.71483590E-13  
0.22652622       7.64853171E-13  
