# ATMO chemical composition profiles
# Chemical abundances given as mole fraction for the 8 most abundant species
# Model Level      Pressure [Ba]    Temperature [K]  H2               He               H2O              CH4              H                CO               N2               H2S             
  1                1.00000000E-05   1.07443048E+02   8.38198242E-01   1.60487645E-01   7.15441048E-04   4.69362175E-04   2.17509694E-101  3.44687341E-05   5.34651060E-05   2.29852725E-05  
  2                3.06758440E-05   1.28181300E+02   8.38198225E-01   1.60487642E-01   7.15441041E-04   4.69362171E-04   1.37619873E-84   3.44687338E-05   5.34651055E-05   2.29852720E-05  
  3                5.50733510E-05   1.37207491E+02   8.38197898E-01   1.60487579E-01   7.15440813E-04   4.69362021E-04   6.67056135E-79   3.44687227E-05   5.34650885E-05   2.29852630E-05  
  4                8.44613547E-05   1.48199752E+02   8.38197272E-01   1.60487460E-01   7.15440365E-04   4.69361727E-04   7.17746244E-73   3.44687012E-05   5.34650550E-05   2.29852459E-05  
  5                1.20056968E-04   1.54414229E+02   8.38177753E-01   1.60483722E-01   7.15424084E-04   4.69351046E-04   7.19914708E-70   3.44679168E-05   5.34638383E-05   2.29847106E-05  
  6                1.63335785E-04   1.63682206E+02   8.38198215E-01   1.60487640E-01   7.15459691E-04   4.69374406E-04   8.85771981E-66   3.44696323E-05   5.34664992E-05   2.29852718E-05  
  7                2.16078675E-04   1.68785654E+02   8.38037924E-01   1.60456950E-01   7.15322447E-04   4.69284368E-04   9.57400533E-64   3.44630201E-05   5.34562430E-05   2.29808762E-05  
  8                2.80468218E-04   1.77488050E+02   8.38198013E-01   1.60487601E-01   7.15594068E-04   4.69462563E-04   1.65678251E-60   3.44761063E-05   5.34765413E-05   2.29852662E-05  
  9                3.59101342E-04   1.81940417E+02   8.37725068E-01   1.60397048E-01   7.15199996E-04   4.69204034E-04   5.36375593E-59   3.44571206E-05   5.34470922E-05   2.29722970E-05  
  10               4.55201572E-04   1.89899867E+02   8.38197392E-01   1.60487483E-01   7.16005013E-04   4.69732162E-04   1.96007854E-56   3.44959050E-05   5.35072513E-05   2.29852492E-05  
  11               5.72778293E-04   1.93766112E+02   8.38197392E-01   1.60487483E-01   7.16005018E-04   4.69732166E-04   2.72159040E-55   3.44959052E-05   5.35072517E-05   2.29852492E-05  
  12               7.16760405E-04   2.01249246E+02   8.38197392E-01   1.60487483E-01   7.16005024E-04   4.69732169E-04   3.66729369E-53   3.44959055E-05   5.35072521E-05   2.29852492E-05  
  13               8.93104406E-04   2.05073364E+02   8.38197392E-01   1.60487483E-01   7.16005029E-04   4.69732173E-04   3.70285576E-52   3.44959057E-05   5.35072525E-05   2.29852492E-05  
  14               1.10914694E-03   2.12452662E+02   8.38197392E-01   1.60487483E-01   7.16005034E-04   4.69732176E-04   2.78432871E-50   3.44959060E-05   5.35072529E-05   2.29852492E-05  
  15               1.37382605E-03   2.16153573E+02   8.38197392E-01   1.60487483E-01   7.16005040E-04   4.69732180E-04   2.05833737E-49   3.44959063E-05   5.35072533E-05   2.29852492E-05  
  16               1.69816022E-03   2.23329215E+02   8.38197392E-01   1.60487483E-01   7.16005046E-04   4.69732184E-04   9.03553262E-48   3.44959065E-05   5.35072537E-05   2.29852492E-05  
  17               2.09553691E-03   2.26991501E+02   8.38197392E-01   1.60487483E-01   7.16005052E-04   4.69732187E-04   5.38322665E-47   3.44959068E-05   5.35072542E-05   2.29852492E-05  
  18               2.58230813E-03   2.34275655E+02   8.38197392E-01   1.60487483E-01   7.16005058E-04   4.69732192E-04   1.74627141E-45   3.44959071E-05   5.35072547E-05   2.29852492E-05  
  19               3.17830807E-03   2.38246201E+02   8.38197392E-01   1.60487483E-01   7.16005065E-04   4.69732196E-04   1.01269568E-44   3.44959074E-05   5.35072552E-05   2.29852492E-05  
  20               3.90785508E-03   2.45927510E+02   8.38197392E-01   1.60487483E-01   7.16005072E-04   4.69732201E-04   2.82356140E-43   3.44959078E-05   5.35072557E-05   2.29852492E-05  
  21               4.80047930E-03   2.50235102E+02   8.38197392E-01   1.60487483E-01   7.16005079E-04   4.69732205E-04   1.59189505E-42   3.44959081E-05   5.35072562E-05   2.29852492E-05  
  22               5.89228045E-03   2.58216368E+02   8.38197392E-01   1.60487483E-01   7.16005086E-04   4.69732210E-04   3.64731515E-41   3.44959085E-05   5.35072568E-05   2.29852492E-05  
  23               7.22693124E-03   2.62993495E+02   8.38197392E-01   1.60487483E-01   7.16005094E-04   4.69732216E-04   2.07824540E-40   3.44959089E-05   5.35072574E-05   2.29852492E-05  
  24               8.85780257E-03   2.71445689E+02   8.38197392E-01   1.60487483E-01   7.16005103E-04   4.69732221E-04   4.17192101E-39   3.44959093E-05   5.35072580E-05   2.29852492E-05  
  25               1.08493030E-02   2.76710741E+02   8.38197392E-01   1.60487483E-01   7.16005112E-04   4.69732227E-04   2.36503987E-38   3.44959097E-05   5.35072587E-05   2.29852492E-05  
  26               1.32799702E-02   2.85595170E+02   8.38197392E-01   1.60487483E-01   7.16005121E-04   4.69732233E-04   4.06751266E-37   3.44959102E-05   5.35072594E-05   2.29852492E-05  
  27               1.62455367E-02   2.91236103E+02   8.38197392E-01   1.60487483E-01   7.16005131E-04   4.69732239E-04   2.17533440E-36   3.44959106E-05   5.35072601E-05   2.29852492E-05  
  28               1.98632120E-02   3.00363481E+02   8.38197392E-01   1.60487483E-01   7.16005141E-04   4.69732246E-04   3.03247491E-35   3.44959111E-05   5.35072609E-05   2.29852492E-05  
  29               2.42745067E-02   3.06270060E+02   8.38197392E-01   1.60487482E-01   7.16005152E-04   4.69732253E-04   1.47711418E-34   3.44959116E-05   5.35072617E-05   2.29852492E-05  
  30               2.96514503E-02   3.15819609E+02   8.38197392E-01   1.60487482E-01   7.16005165E-04   4.69732262E-04   1.78028865E-33   3.44959123E-05   5.35072626E-05   2.29852491E-05  
  31               3.62015198E-02   3.22277264E+02   8.38197392E-01   1.60487482E-01   7.16005176E-04   4.69732269E-04   8.51099892E-33   3.44959128E-05   5.35072635E-05   2.29852491E-05  
  32               4.41752359E-02   3.32520121E+02   8.38197392E-01   1.60487482E-01   7.16005195E-04   4.69732281E-04   9.46139621E-32   3.44959137E-05   5.35072649E-05   2.29852491E-05  
  33               5.38724098E-02   3.39790178E+02   8.38197391E-01   1.60487481E-01   7.16005206E-04   4.69732289E-04   4.63747636E-31   3.44959143E-05   5.35072657E-05   2.29852490E-05  
  34               6.56571574E-02   3.50894611E+02   8.38197392E-01   1.60487481E-01   7.16005238E-04   4.69732310E-04   4.84374726E-30   3.44959158E-05   5.35072681E-05   2.29852489E-05  
  35               7.99712921E-02   3.58993034E+02   8.38197384E-01   1.60487478E-01   7.16005231E-04   4.69732305E-04   2.37433291E-29   3.44959155E-05   5.35072676E-05   2.29852486E-05  
  36               9.73486650E-02   3.70986930E+02   8.38197386E-01   1.60487476E-01   7.16005714E-04   4.69732622E-04   2.29185275E-28   3.44959388E-05   5.35073037E-05   2.29852482E-05  
  37               1.18424953E-01   3.80193069E+02   8.38197388E-01   1.60487474E-01   7.16005727E-04   4.69732630E-04   1.15462134E-27   3.44959394E-05   5.35073046E-05   2.29852479E-05  
  38               1.43961608E-01   3.93509207E+02   8.38197131E-01   1.60487419E-01   7.16005733E-04   4.69732634E-04   1.08648184E-26   3.44959396E-05   5.35073051E-05   2.29852400E-05  
  39               1.74854774E-01   4.04164890E+02   8.38197161E-01   1.60487389E-01   7.16005518E-04   4.69732494E-04   5.73910958E-26   3.44959293E-05   5.35072891E-05   2.29852358E-05  
  40               2.12160610E-01   4.19068112E+02   8.38197176E-01   1.60487375E-01   7.16005208E-04   4.69732290E-04   5.27164773E-25   3.44959144E-05   5.35072659E-05   2.29852338E-05  
  41               2.57126435E-01   4.31482789E+02   8.38197178E-01   1.60487358E-01   7.16012516E-04   4.69737084E-04   2.91583067E-24   3.44962664E-05   5.35078120E-05   2.29852313E-05  
  42               3.11249608E-01   4.48289152E+02   8.38197198E-01   1.60487316E-01   7.16012509E-04   4.69737080E-04   2.60945116E-23   3.44962661E-05   5.35078115E-05   2.29852253E-05  
  43               3.76254534E-01   4.62940787E+02   8.38196846E-01   1.60487208E-01   7.16012274E-04   4.69736926E-04   1.52334795E-22   3.44962548E-05   5.35077939E-05   2.29852099E-05  
  44               4.54125914E-01   4.82565265E+02   8.38193850E-01   1.60486840E-01   7.16018442E-04   4.69740972E-04   1.40313450E-21   3.44965519E-05   5.35082548E-05   2.29851572E-05  
  45               5.47147786E-01   5.00480106E+02   8.38194294E-01   1.60486405E-01   7.16013449E-04   4.69737696E-04   9.03315629E-21   3.44963114E-05   5.35078817E-05   2.29850949E-05  
  46               6.58155460E-01   5.21149338E+02   8.38194529E-01   1.60486071E-01   7.16068496E-04   4.69773810E-04   6.65958123E-20   3.44989635E-05   5.35119954E-05   2.29850470E-05  
  47               7.90392226E-01   5.41665984E+02   8.38194989E-01   1.60485612E-01   7.16068065E-04   4.69773527E-04   4.13694002E-19   3.44989427E-05   5.35119632E-05   2.29849813E-05  
  48               9.47603751E-01   5.65450436E+02   8.38195819E-01   1.60484785E-01   7.16066372E-04   4.69772417E-04   2.93661232E-18   3.44988611E-05   5.35118367E-05   2.29848628E-05  
  49               1.13419119E+00   5.89518699E+02   8.38196952E-01   1.60483656E-01   7.16064029E-04   4.69770879E-04   1.80886824E-17   3.44987483E-05   5.35116616E-05   2.29847012E-05  
  50               1.35497857E+00   6.17078281E+02   8.38198713E-01   1.60481901E-01   7.16060367E-04   4.69768477E-04   1.22692009E-16   3.44985718E-05   5.35113879E-05   2.29844498E-05  
  51               1.61516356E+00   6.45145699E+02   8.38200782E-01   1.60479840E-01   7.16056059E-04   4.69765651E-04   7.26054535E-16   3.44983643E-05   5.35110660E-05   2.29841547E-05  
  52               1.92103858E+00   6.76784869E+02   8.38203380E-01   1.60477250E-01   7.16050625E-04   4.69762085E-04   4.53765307E-15   3.44981024E-05   5.35106599E-05   2.29837837E-05  
  53               2.28010956E+00   7.08875075E+02   8.38205881E-01   1.60474751E-01   7.16045391E-04   4.69758652E-04   2.45304105E-14   3.44978503E-05   5.35102687E-05   2.29834257E-05  
  54               2.70027381E+00   7.44377159E+02   8.38208444E-01   1.60472164E-01   7.16040108E-04   4.69755186E-04   1.34369684E-13   3.44975958E-05   5.35098740E-05   2.29830552E-05  
  55               3.18974603E+00   7.80200054E+02   8.38210429E-01   1.60469962E-01   7.16036057E-04   4.69752528E-04   6.36257665E-13   3.44974006E-05   5.35095712E-05   2.29827397E-05  
  56               3.75919500E+00   8.19297670E+02   8.38212209E-01   1.60467920E-01   7.16036548E-04   4.69752850E-04   2.98001531E-12   3.44974242E-05   5.35096079E-05   2.29824466E-05  
  57               4.42208619E+00   8.58620606E+02   8.38213755E-01   1.60466354E-01   7.16037960E-04   4.69753777E-04   1.21641565E-11   3.44974923E-05   5.35097134E-05   2.29822211E-05  
  58               5.19217524E+00   9.00998770E+02   8.38215070E-01   1.60464974E-01   7.16035302E-04   4.69752033E-04   4.83165354E-11   3.44973647E-05   5.35095148E-05   2.29948589E-05  
  59               6.08239471E+00   9.43158956E+02   8.38215892E-01   1.60463888E-01   7.16033847E-04   4.69751079E-04   1.67671523E-10   3.44972984E-05   5.35094061E-05   2.30414327E-05  
  60               7.10783135E+00   9.87805522E+02   8.38216063E-01   1.60462827E-01   7.16035019E-04   4.69751848E-04   5.57682621E-10   3.44973829E-05   5.35094937E-05   2.32173118E-05  
  61               8.28805597E+00   1.03166442E+03   8.38215426E-01   1.60461844E-01   7.16044238E-04   4.69757896E-04   1.63197784E-09   3.44980183E-05   5.35101826E-05   2.37575947E-05  
  62               9.64748006E+00   1.07726710E+03   8.38215344E-01   1.60460849E-01   7.16055482E-04   4.69765271E-04   4.53606194E-09   3.44996727E-05   5.35110230E-05   2.42857107E-05  
  63               1.12120862E+01   1.12113099E+03   8.38216378E-01   1.60459805E-01   7.16052583E-04   4.69763355E-04   1.11342921E-08   3.45054355E-05   5.35108078E-05   2.42854004E-05  
  64               1.30109330E+01   1.16600213E+03   8.38217849E-01   1.60458295E-01   7.16048570E-04   4.69760595E-04   2.59541299E-08   3.45320387E-05   5.35105207E-05   2.42849017E-05  
  65               1.50776313E+01   1.20869309E+03   8.38219692E-01   1.60456314E-01   7.16042899E-04   4.69755875E-04   5.43788803E-08   3.46402941E-05   5.35101978E-05   2.42841857E-05  
  66               1.74576130E+01   1.25223900E+03   8.38222146E-01   1.60453438E-01   7.16030107E-04   4.69741368E-04   1.09506390E-07   3.50145392E-05   5.35098653E-05   2.42830892E-05  
  67               2.02024654E+01   1.29352688E+03   8.38224545E-01   1.60449898E-01   7.15984560E-04   4.69679073E-04   2.02095501E-07   3.61407628E-05   5.35098097E-05   2.42816302E-05  
  68               2.33621280E+01   1.33606203E+03   8.38226777E-01   1.60445056E-01   7.15796979E-04   4.69417469E-04   3.64625738E-07   3.89914987E-05   5.35103877E-05   2.42795217E-05  
  69               2.69835699E+01   1.37687602E+03   8.38227864E-01   1.60439482E-01   7.15087280E-04   4.68450094E-04   6.16977626E-07   4.48452841E-05   5.35121565E-05   2.42768286E-05  
  70               3.11198942E+01   1.41990617E+03   8.38229546E-01   1.60432482E-01   7.12878342E-04   4.65550873E-04   1.04035768E-06   5.47602065E-05   5.35149393E-05   2.42729749E-05  
  71               3.58654455E+01   1.46221441E+03   8.38234997E-01   1.60425806E-01   7.07300862E-04   4.58662062E-04   1.68011847E-06   6.76776268E-05   5.35173097E-05   2.42679356E-05  
  72               4.13247621E+01   1.50796947E+03   8.38248234E-01   1.60418791E-01   6.96151521E-04   4.45838149E-04   2.74253283E-06   8.41166804E-05   5.35180906E-05   2.42597318E-05  
  73               4.75853752E+01   1.55416725E+03   8.38267539E-01   1.60412522E-01   6.80125383E-04   4.28832829E-04   4.35637869E-06   1.01829849E-04   5.35169469E-05   2.42453144E-05  
  74               5.46995506E+01   1.60485571E+03   8.38291208E-01   1.60404926E-01   6.59582053E-04   4.07345763E-04   7.04498570E-06   1.23504286E-04   5.35153343E-05   2.42107666E-05  
  75               6.26610081E+01   1.65673150E+03   8.38299597E-01   1.60394033E-01   6.38436202E-04   3.84259696E-04   1.11702026E-05   1.46476967E-04   5.35132966E-05   2.41220612E-05  
  76               7.14369869E+01   1.71371452E+03   8.38313599E-01   1.60383613E-01   6.28053176E-04   3.53909438E-04   1.80354444E-05   1.76706072E-04   5.35346594E-05   2.31551027E-05  
  77               8.10163110E+01   1.77291568E+03   8.38338517E-01   1.60373127E-01   6.00683842E-04   3.25027803E-04   2.87528554E-05   2.05379150E-04   5.35268428E-05   2.31097503E-05  
  78               9.12968772E+01   1.82866192E+03   8.38345976E-01   1.60362490E-01   5.80367813E-04   2.99812736E-04   4.32317240E-05   2.30353676E-04   5.35057483E-05   2.30116196E-05  
  79               1.02121225E+02   1.88391524E+03   8.38328432E-01   1.60349382E-01   5.70159258E-04   2.74020771E-04   6.32500008E-05   2.55863227E-04   5.34634689E-05   2.27612882E-05  
  80               1.13166246E+02   1.93406720E+03   8.38270673E-01   1.60333274E-01   5.79250712E-04   2.49405691E-04   8.74180903E-05   2.80190078E-04   5.33862145E-05   2.23030968E-05  
  81               1.23917755E+02   1.98063385E+03   8.38203814E-01   1.60318571E-01   6.01591640E-04   2.24851803E-04   1.16366482E-04   3.04474050E-04   5.32946441E-05   2.17628388E-05  
  82               1.33965666E+02   2.02002308E+03   8.38191454E-01   1.60312472E-01   5.89988557E-04   2.12974968E-04   1.46405392E-04   3.16080968E-04   5.31628297E-05   2.17345760E-05  
  83               1.45362873E+02   2.06319616E+03   8.38159508E-01   1.60303362E-01   5.77982294E-04   2.00648622E-04   1.86487574E-04   3.28072065E-04   5.30224361E-05   2.16988227E-05  
  84               1.55228278E+02   2.09729621E+03   8.38135887E-01   1.60297795E-01   5.69796071E-04   1.92182079E-04   2.23815552E-04   3.36252661E-04   5.28876351E-05   2.16705810E-05  
  85               1.63115891E+02   2.12427540E+03   8.38113095E-01   1.60293073E-01   5.63461932E-04   1.85608421E-04   2.57635488E-04   3.42583566E-04   5.27815608E-05   2.16453924E-05  
  86               1.72359960E+02   2.15347200E+03   8.38083386E-01   1.60287913E-01   5.57488363E-04   1.79355033E-04   2.98416889E-04   3.48554746E-04   5.26479834E-05   2.16184781E-05  
  87               1.83131584E+02   2.18696241E+03   8.38043089E-01   1.60281531E-01   5.50838047E-04   1.72353843E-04   3.51673595E-04   3.55209126E-04   5.24988120E-05   2.15840745E-05  
  88               1.95604202E+02   2.22272523E+03   8.37960282E-01   1.60268426E-01   5.44733431E-04   1.65841115E-04   4.16159438E-04   3.61299156E-04   5.23138087E-05   2.15459176E-05  
  89               2.05326425E+02   2.25004627E+03   8.37914996E-01   1.60262628E-01   5.40215529E-04   1.61014213E-04   4.71728940E-04   3.65797398E-04   5.21764857E-05   2.15143962E-05  
  90               2.12645816E+02   2.26920655E+03   8.37879916E-01   1.60258415E-01   5.37488494E-04   1.58057751E-04   5.13715281E-04   3.68509089E-04   5.20658958E-05   2.14925338E-05  
  91               2.21393555E+02   2.29227677E+03   8.37833902E-01   1.60252971E-01   5.34123179E-04   1.54404793E-04   5.68509354E-04   3.71855833E-04   5.19408711E-05   2.14637522E-05  
  92               2.31800266E+02   2.31784605E+03   8.37775867E-01   1.60246362E-01   5.30938568E-04   1.50882076E-04   6.33925581E-04   3.75016591E-04   5.17847217E-05   2.14319380E-05  
  93               2.44122871E+02   2.34772887E+03   8.37696741E-01   1.60238098E-01   5.31923505E-04   1.45886693E-04   7.18076108E-04   3.79599187E-04   5.16106437E-05   2.14074803E-05  
  94               2.58650207E+02   2.38050439E+03   8.37607770E-01   1.60228935E-01   5.28687831E-04   1.42015060E-04   8.19346320E-04   3.82951048E-04   5.13942010E-05   2.13628229E-05  
  95               2.75706840E+02   2.41776382E+03   8.37494034E-01   1.60217519E-01   5.25238461E-04   1.37813967E-04   9.47845633E-04   3.86519829E-04   5.11459308E-05   2.13079437E-05  
  96               2.95656179E+02   2.45816719E+03   8.37355106E-01   1.60204106E-01   5.22222392E-04   1.33937920E-04   1.10308313E-03   3.89649253E-04   5.08514123E-05   2.12461794E-05  
  97               3.18910537E+02   2.50288564E+03   8.37180691E-01   1.60187649E-01   5.19311322E-04   1.30019667E-04   1.29674205E-03   3.92670015E-04   5.05138434E-05   2.11727961E-05  
  98               3.45944718E+02   2.55090989E+03   8.36968289E-01   1.60168131E-01   5.16956199E-04   1.26501040E-04   1.53087367E-03   3.95128326E-04   5.01214855E-05   2.10901489E-05  
  99               3.77324431E+02   2.60274815E+03   8.36707642E-01   1.60144616E-01   5.15071465E-04   1.23253816E-04   1.81676333E-03   3.97115004E-04   4.96721601E-05   2.09955732E-05  
  100              4.13719527E+02   2.65821402E+03   8.36390625E-01   1.60116457E-01   5.13805250E-04   1.20386007E-04   2.16302878E-03   3.98488979E-04   4.91585982E-05   2.08888873E-05  
  101              4.55954312E+02   2.71665779E+03   8.36012530E-01   1.60083361E-01   5.13425803E-04   1.18125218E-04   2.57439042E-03   3.98992633E-04   4.85698496E-05   2.07721428E-05  
