# ATMO chemical composition profiles
# Chemical abundances given as mole fraction for the 8 most abundant species
# Model Level      Pressure [Ba]    Temperature [K]  H2               He               H                H2O              CO               CH4              N2               H2S             
  1                1.00000000E-05   3.21210225E+02   8.38370801E-01   1.60488772E-01   3.90815726E-31   5.37545984E-04   2.13335816E-04   2.98485467E-04   5.75204427E-05   2.29843559E-05  
  2                2.36814186E-05   3.63193926E+02   8.38372581E-01   1.60486998E-01   3.21651483E-27   5.37542735E-04   2.13334527E-04   2.98483663E-04   5.75200952E-05   2.29841019E-05  
  3                4.01982287E-05   3.66829711E+02   8.38372188E-01   1.60487368E-01   5.05589516E-27   5.37553946E-04   2.13338977E-04   2.98489888E-04   5.75212948E-05   2.29841549E-05  
  4                6.06701645E-05   3.81311927E+02   8.38371703E-01   1.60487041E-01   6.24921169E-26   5.37553762E-04   2.13338903E-04   2.98489786E-04   5.75212750E-05   2.29841080E-05  
  5                8.61253227E-05   3.81083714E+02   8.38371338E-01   1.60487405E-01   5.03295722E-26   5.37554195E-04   2.13339075E-04   2.98490026E-04   5.75213214E-05   2.29841601E-05  
  6                1.17836943E-04   3.93643974E+02   8.38371558E-01   1.60487186E-01   3.88604925E-25   5.37554042E-04   2.13339015E-04   2.98489942E-04   5.75213050E-05   2.29841288E-05  
  7                1.57342780E-04   3.93245310E+02   8.38371132E-01   1.60487609E-01   3.14284378E-25   5.37554856E-04   2.13339338E-04   2.98490394E-04   5.75213921E-05   2.29841894E-05  
  8                2.06593419E-04   4.05168814E+02   8.38371370E-01   1.60487371E-01   1.96205280E-24   5.37554728E-04   2.13339287E-04   2.98490323E-04   5.75213784E-05   2.29841554E-05  
  9                2.67960127E-04   4.05203684E+02   8.38370960E-01   1.60487775E-01   1.73244551E-24   5.37555554E-04   2.13339615E-04   2.98490781E-04   5.75214668E-05   2.29842132E-05  
  10               3.44442073E-04   4.16990076E+02   8.38371212E-01   1.60487526E-01   9.57041597E-24   5.37554086E-04   2.13339032E-04   2.98489966E-04   5.75213097E-05   2.29841775E-05  
  11               4.39693502E-04   4.17710632E+02   8.38370743E-01   1.60487880E-01   9.44442258E-24   5.37589447E-04   2.13353066E-04   2.98509601E-04   5.75250935E-05   2.29842283E-05  
  12               5.58348024E-04   4.29575924E+02   8.38368815E-01   1.60487236E-01   4.77393530E-23   5.37589901E-04   2.13353246E-04   2.98509853E-04   5.75251421E-05   2.29841360E-05  
  13               7.06053512E-04   4.31036719E+02   8.38368318E-01   1.60487296E-01   5.22485674E-23   5.37589369E-04   2.13353035E-04   2.98509558E-04   5.75250852E-05   2.29841446E-05  
  14               8.89929481E-04   4.43122736E+02   8.38368284E-01   1.60487322E-01   2.46109230E-22   5.37593653E-04   2.13354735E-04   2.98511936E-04   5.75255436E-05   2.29841483E-05  
  15               1.11865194E-03   4.45412157E+02   8.38367986E-01   1.60487618E-01   2.97905207E-22   5.37594429E-04   2.13355043E-04   2.98512367E-04   5.75256266E-05   2.29841906E-05  
  16               1.40341400E-03   4.56817900E+02   8.38368183E-01   1.60487422E-01   1.16372514E-21   5.37594480E-04   2.13355063E-04   2.98512396E-04   5.75256321E-05   2.29841625E-05  
  17               1.75785122E-03   4.59324725E+02   8.38367881E-01   1.60487721E-01   1.42429052E-21   5.37595286E-04   2.13355383E-04   2.98512844E-04   5.75257184E-05   2.29842054E-05  
  18               2.19904926E-03   4.70750292E+02   8.38368059E-01   1.60487543E-01   5.12225222E-21   5.37595386E-04   2.13355423E-04   2.98512899E-04   5.75257291E-05   2.29841799E-05  
  19               2.74810157E-03   4.73384644E+02   8.38367743E-01   1.60487857E-01   6.25639471E-21   5.37596234E-04   2.13355759E-04   2.98513370E-04   5.75258198E-05   2.29842249E-05  
  20               3.43137569E-03   4.84846692E+02   8.38367904E-01   1.60487696E-01   2.08752632E-20   5.37596378E-04   2.13355816E-04   2.98513450E-04   5.75258352E-05   2.29842019E-05  
  21               4.28149080E-03   4.87537429E+02   8.38367563E-01   1.60488035E-01   2.52270563E-20   5.37597279E-04   2.13356174E-04   2.98513950E-04   5.75259317E-05   2.29842504E-05  
  22               5.33907913E-03   4.99092397E+02   8.38367708E-01   1.60487889E-01   7.89973130E-20   5.37597461E-04   2.13356246E-04   2.98514051E-04   5.75259511E-05   2.29842295E-05  
  23               6.65434579E-03   5.01856398E+02   8.38367337E-01   1.60488259E-01   9.46583284E-20   5.37598423E-04   2.13356628E-04   2.98514585E-04   5.75260540E-05   2.29842825E-05  
  24               8.28958393E-03   5.13754846E+02   8.38367481E-01   1.60488114E-01   2.86422371E-19   5.37598623E-04   2.13356707E-04   2.98514696E-04   5.75260754E-05   2.29842617E-05  
  25               1.03221390E-02   5.16699758E+02   8.38367080E-01   1.60488513E-01   3.43936298E-19   5.37599644E-04   2.13357113E-04   2.98515263E-04   5.75261846E-05   2.29843188E-05  
  26               1.28481645E-02   5.28927483E+02   8.38367221E-01   1.60488372E-01   1.00371049E-18   5.37599862E-04   2.13357199E-04   2.98515385E-04   5.75262081E-05   2.29842987E-05  
  27               1.59867157E-02   5.32089557E+02   8.38366788E-01   1.60488803E-01   1.21036865E-18   5.37600949E-04   2.13357631E-04   2.98515988E-04   5.75263243E-05   2.29843603E-05  
  28               1.98854750E-02   5.44677517E+02   8.38366923E-01   1.60488666E-01   3.41531961E-18   5.37601186E-04   2.13357725E-04   2.98516119E-04   5.75263497E-05   2.29843408E-05  
  29               2.47266782E-02   5.47983939E+02   8.38366449E-01   1.60489139E-01   4.10330008E-18   5.37602350E-04   2.13358187E-04   2.98516766E-04   5.75264743E-05   2.29844085E-05  
  30               3.07357393E-02   5.61028319E+02   8.38366584E-01   1.60489003E-01   1.12850354E-17   5.37602602E-04   2.13358287E-04   2.98516906E-04   5.75265012E-05   2.29843890E-05  
  31               3.81895229E-02   5.64805840E+02   8.38366085E-01   1.60489499E-01   1.38709141E-17   5.37603823E-04   2.13358771E-04   2.98517584E-04   5.75266319E-05   2.29844601E-05  
  32               4.74264825E-02   5.78795656E+02   8.38366249E-01   1.60489335E-01   3.85563105E-17   5.37604037E-04   2.13358856E-04   2.98517703E-04   5.75266548E-05   2.29844365E-05  
  33               5.88581744E-02   5.83612757E+02   8.38365769E-01   1.60489811E-01   5.04513772E-17   5.37605250E-04   2.13359338E-04   2.98518376E-04   5.75267846E-05   2.29845048E-05  
  34               7.29867676E-02   5.99147975E+02   8.38365994E-01   1.60489587E-01   1.46625036E-16   5.37605396E-04   2.13359395E-04   2.98518457E-04   5.75268002E-05   2.29844726E-05  
  35               9.04167710E-02   6.05438370E+02   8.38365573E-01   1.60490004E-01   2.08376498E-16   5.37606537E-04   2.13359848E-04   2.98519091E-04   5.75269223E-05   2.29845324E-05  
  36               1.11880730E-01   6.22595776E+02   8.38365848E-01   1.60489729E-01   6.24428984E-16   5.37606605E-04   2.13359875E-04   2.98519129E-04   5.75269296E-05   2.29844930E-05  
  37               1.38269100E-01   6.30545224E+02   8.38365503E-01   1.60490072E-01   9.59843707E-16   5.37607651E-04   2.13360290E-04   2.98519709E-04   5.75270415E-05   2.29845421E-05  
  38               1.70676146E-01   6.49481430E+02   8.38365816E-01   1.60489759E-01   2.93794833E-15   5.37607684E-04   2.13360304E-04   2.98519728E-04   5.75270450E-05   2.29844972E-05  
  39               2.10400495E-01   6.59354783E+02   8.38365551E-01   1.60490016E-01   4.87263731E-15   5.37608616E-04   2.13360673E-04   2.98520245E-04   5.75271448E-05   2.29845341E-05  
  40               2.59015720E-01   6.80466324E+02   8.38365898E-01   1.60489668E-01   1.52759262E-14   5.37608671E-04   2.13360695E-04   2.98520275E-04   5.75271506E-05   2.29844843E-05  
  41               3.18377172E-01   6.92917457E+02   8.38365720E-01   1.60489817E-01   2.77442329E-14   5.37609456E-04   2.13361007E-04   2.98520711E-04   5.75272346E-05   2.29845057E-05  
  42               3.90683493E-01   7.16711913E+02   8.38366094E-01   1.60489443E-01   8.92340393E-14   5.37609788E-04   2.13361139E-04   2.98520896E-04   5.75272702E-05   2.29844520E-05  
  43               4.78468510E-01   7.32178832E+02   8.38365963E-01   1.60489484E-01   1.76258373E-13   5.37610415E-04   2.13361387E-04   2.98521244E-04   5.75273372E-05   2.29844578E-05  
  44               5.84766378E-01   7.59124405E+02   8.38366225E-01   1.60489076E-01   5.77486022E-13   5.37611482E-04   2.13361811E-04   2.98521836E-04   5.75274514E-05   2.29843992E-05  
  45               7.13053924E-01   7.78189079E+02   8.38366032E-01   1.60489001E-01   1.23253732E-12   5.37614516E-04   2.13363015E-04   2.98523521E-04   5.75277761E-05   2.29843884E-05  
  46               8.67584241E-01   8.08799313E+02   8.38366402E-01   1.60488619E-01   4.07077498E-12   5.37618072E-04   2.13364426E-04   2.98525496E-04   5.75281566E-05   2.29843329E-05  
  47               1.05326751E+00   8.32190418E+02   8.38366493E-01   1.60488511E-01   9.31256602E-12   5.37618583E-04   2.13364629E-04   2.98525779E-04   5.75282112E-05   2.29871103E-05  
  48               1.27579229E+00   8.67274031E+02   8.38366849E-01   1.60488110E-01   3.08666361E-11   5.37618683E-04   2.13364669E-04   2.98525835E-04   5.75282219E-05   2.29984558E-05  
  49               1.54109654E+00   8.95600070E+02   8.38366914E-01   1.60487890E-01   7.42121307E-11   5.37619244E-04   2.13364892E-04   2.98526147E-04   5.75282820E-05   2.30226629E-05  
  50               1.85560534E+00   9.35286438E+02   8.38367056E-01   1.60487299E-01   2.39275540E-10   5.37620280E-04   2.13365304E-04   2.98526722E-04   5.75283928E-05   2.31285688E-05  
  51               2.22720603E+00   9.68513371E+02   8.38366324E-01   1.60486630E-01   5.81447967E-10   5.37622704E-04   2.13366273E-04   2.98528068E-04   5.75286522E-05   2.33674991E-05  
  52               2.66540217E+00   1.01285824E+03   8.38365893E-01   1.60485195E-01   1.77871491E-09   5.37638470E-04   2.13372567E-04   2.98536822E-04   5.75303393E-05   2.42894642E-05  
  53               3.18003951E+00   1.05061363E+03   8.38367509E-01   1.60483596E-01   4.20673175E-09   5.37636200E-04   2.13371904E-04   2.98535561E-04   5.75300966E-05   2.42891387E-05  
  54               3.78234961E+00   1.09854891E+03   8.38371468E-01   1.60479659E-01   1.17296107E-08   5.37629682E-04   2.13370529E-04   2.98531932E-04   5.75294003E-05   2.42883431E-05  
  55               4.48642836E+00   1.13931460E+03   8.38376314E-01   1.60474817E-01   2.57875367E-08   5.37621831E-04   2.13374173E-04   2.98527457E-04   5.75285745E-05   2.42873194E-05  
  56               5.30965028E+00   1.18967029E+03   8.38386341E-01   1.60464757E-01   6.42427332E-08   5.37604329E-04   2.13397660E-04   2.98516851E-04   5.75268115E-05   2.42851665E-05  
  57               6.27121179E+00   1.23243855E+03   8.38396626E-01   1.60454312E-01   1.29426128E-07   5.37579206E-04   2.13528068E-04   2.98495128E-04   5.75250730E-05   2.42827337E-05  
  58               7.39162868E+00   1.28464360E+03   8.38413945E-01   1.60436460E-01   2.89381881E-07   5.37499435E-04   2.14036499E-04   2.98404330E-04   5.75221539E-05   2.42783263E-05  
  59               8.69644399E+00   1.32905108E+03   8.38427877E-01   1.60421193E-01   5.37408336E-07   5.37170454E-04   2.15862259E-04   2.97941656E-04   5.75202263E-05   2.42738298E-05  
  60               1.02158469E+01   1.38305024E+03   8.38447343E-01   1.60398995E-01   1.09451248E-06   5.35826877E-04   2.21230657E-04   2.95995150E-04   5.75181950E-05   2.42661499E-05  
  61               1.19876263E+01   1.42912808E+03   8.38461430E-01   1.60383133E-01   1.89529603E-06   5.31062173E-04   2.33606382E-04   2.89146908E-04   5.75187590E-05   2.42577403E-05  
  62               1.40683938E+01   1.48501886E+03   8.38485537E-01   1.60363634E-01   3.56342434E-06   5.18326281E-04   2.57248240E-04   2.71485145E-04   5.75197192E-05   2.42393069E-05  
  63               1.65271693E+01   1.53289212E+03   8.38510358E-01   1.60353324E-01   5.80598760E-06   4.98075224E-04   2.83249769E-04   2.47400965E-04   5.75195913E-05   2.42058154E-05  
  64               1.94510559E+01   1.59053218E+03   8.38542148E-01   1.60340973E-01   1.01495581E-05   4.70211744E-04   3.14668209E-04   2.15868779E-04   5.75182762E-05   2.40856329E-05  
  65               2.28615404E+01   1.63975591E+03   8.38546179E-01   1.60331591E-01   1.56129019E-05   4.53691145E-04   3.35280544E-04   1.95388106E-04   5.75207089E-05   2.38061595E-05  
  66               2.67117936E+01   1.69880519E+03   8.38557395E-01   1.60321292E-01   2.56698808E-05   4.42257183E-04   3.63784076E-04   1.66616790E-04   5.75405235E-05   2.26980631E-05  
  67               3.09152088E+01   1.75010404E+03   8.38555958E-01   1.60313461E-01   3.81217747E-05   4.29425721E-04   3.80405273E-04   1.49943488E-04   5.75386872E-05   2.26042238E-05  
  68               3.53432112E+01   1.81273654E+03   8.38529242E-01   1.60299289E-01   6.09771319E-05   4.21771786E-04   4.05869165E-04   1.24276452E-04   5.75479371E-05   2.22306435E-05  
  69               3.96535913E+01   1.86822920E+03   8.38452055E-01   1.60282409E-01   8.99094551E-05   4.42229577E-04   4.29086821E-04   1.00900952E-04   5.75728715E-05   2.15203663E-05  
  70               4.36216943E+01   1.91489216E+03   8.38388531E-01   1.60271175E-01   1.22283340E-04   4.61720084E-04   4.44870719E-04   8.49994647E-05   5.75839344E-05   2.10547738E-05  
  71               4.70883039E+01   1.95313126E+03   8.38367668E-01   1.60266148E-01   1.55517834E-04   4.54354592E-04   4.52260390E-04   7.74981890E-05   5.75464550E-05   2.10312069E-05  
  72               5.10760975E+01   1.99416575E+03   8.38325788E-01   1.60258433E-01   1.99023519E-04   4.47537029E-04   4.59038880E-04   7.05772597E-05   5.74912675E-05   2.10038173E-05  
  73               5.45018671E+01   2.02749430E+03   8.38293260E-01   1.60253523E-01   2.41267836E-04   4.42695357E-04   4.63856489E-04   6.56407794E-05   5.74492584E-05   2.09793454E-05  
  74               5.73097824E+01   2.05344170E+03   8.38263009E-01   1.60249445E-01   2.78922358E-04   4.39342250E-04   4.67190252E-04   6.22079858E-05   5.74020410E-05   2.09587340E-05  
  75               6.06290523E+01   2.08289417E+03   8.38223016E-01   1.60244477E-01   3.27291603E-04   4.35892347E-04   4.70619340E-04   5.86597370E-05   5.73454778E-05   2.09331062E-05  
  76               6.45242349E+01   2.11574054E+03   8.38140729E-01   1.60232717E-01   3.88907478E-04   4.32466228E-04   4.73995013E-04   5.51226258E-05   5.72713989E-05   2.09009447E-05  
  77               6.75927919E+01   2.14055564E+03   8.38095417E-01   1.60227811E-01   4.41381406E-04   4.30151443E-04   4.76311450E-04   5.26923571E-05   5.72281586E-05   2.08749054E-05  
  78               6.99629711E+01   2.15909301E+03   8.38058207E-01   1.60223886E-01   4.84129766E-04   4.28533017E-04   4.77900384E-04   5.10136588E-05   5.71820763E-05   2.08539759E-05  
  79               7.28274775E+01   2.18081409E+03   8.38010645E-01   1.60219000E-01   5.38326257E-04   4.26771647E-04   4.79625652E-04   4.91786439E-05   5.71303648E-05   2.08279036E-05  
  80               7.62687802E+01   2.20600614E+03   8.37949843E-01   1.60212916E-01   6.07074482E-04   4.24895214E-04   4.81457715E-04   4.72125973E-05   5.70682880E-05   2.07954677E-05  
  81               8.03778267E+01   2.23481163E+03   8.37872474E-01   1.60205368E-01   6.93905645E-04   4.22962240E-04   4.83336702E-04   4.51708665E-05   5.69933406E-05   2.07554940E-05  
  82               8.52541694E+01   2.26750447E+03   8.37773786E-01   1.60195956E-01   8.03951127E-04   4.20998260E-04   4.85235352E-04   4.30747980E-05   5.69039038E-05   2.07060684E-05  
  83               9.10069432E+01   2.30397283E+03   8.37647179E-01   1.60183937E-01   9.42096613E-04   4.19094204E-04   4.87059607E-04   4.10112955E-05   5.67970261E-05   2.06459621E-05  
  84               9.77548167E+01   2.34447217E+03   8.37481811E-01   1.60169156E-01   1.11635462E-03   4.22695522E-04   4.89292973E-04   3.85206262E-05   5.66777902E-05   2.05995774E-05  
  85               1.05630749E+02   2.38860278E+03   8.37284472E-01   1.60151311E-01   1.33296489E-03   4.21208462E-04   4.90836970E-04   3.66376851E-05   5.65306526E-05   2.05125174E-05  
  86               1.14783376E+02   2.43669232E+03   8.37036834E-01   1.60129157E-01   1.60404299E-03   4.19869915E-04   4.92203883E-04   3.48638865E-05   5.63598923E-05   2.04079221E-05  
  87               1.25380530E+02   2.48803970E+03   8.36732446E-01   1.60102183E-01   1.93643594E-03   4.18792327E-04   4.93277333E-04   3.33055946E-05   5.61607572E-05   2.02862255E-05  
  88               1.37612193E+02   2.54313104E+03   8.36355272E-01   1.60068966E-01   2.34765648E-03   4.17924646E-04   4.94107750E-04   3.18954079E-05   5.59320839E-05   2.01434755E-05  
  89               1.51707599E+02   2.60103091E+03   8.35899467E-01   1.60029052E-01   2.84387701E-03   4.17390127E-04   4.94575977E-04   3.07391188E-05   5.56677292E-05   1.99821294E-05  
  90               1.67935871E+02   2.66249539E+03   8.35342317E-01   1.59980428E-01   3.44989405E-03   4.17123323E-04   4.94752233E-04   2.97418219E-05   5.53660181E-05   1.97975776E-05  
  91               1.86614484E+02   2.72638287E+03   8.34680623E-01   1.59922870E-01   4.16898318E-03   4.17260600E-04   4.94512922E-04   2.90093580E-05   5.50192996E-05   1.95949339E-05  
  92               2.08117028E+02   2.79372045E+03   8.33883432E-01   1.59853644E-01   5.03490360E-03   4.17735197E-04   4.93934336E-04   2.84305098E-05   5.46250674E-05   1.93688294E-05  
  93               2.32885332E+02   2.86306269E+03   8.32955384E-01   1.59773221E-01   6.04237019E-03   4.18709151E-04   4.92875950E-04   2.81234420E-05   5.41736749E-05   1.91280645E-05  
  94               2.61439495E+02   2.93598398E+03   8.31850529E-01   1.59677550E-01   7.24146651E-03   4.20102164E-04   4.91429729E-04   2.79453304E-05   5.36616401E-05   1.88645169E-05  
  95               2.94392479E+02   3.01070696E+03   8.30586164E-01   1.59568215E-01   8.61310235E-03   4.22103767E-04   4.89432385E-04   2.80316054E-05   5.30766809E-05   1.85907770E-05  
  96               3.32433910E+02   3.08876653E+03   8.29110354E-01   1.59440653E-01   1.02138281E-02   4.24658098E-04   4.86948425E-04   2.82532755E-05   5.24120703E-05   1.82987293E-05  
  97               3.76242615E+02   3.16794137E+03   8.27464605E-01   1.59298559E-01   1.19982365E-02   4.27941925E-04   4.83817648E-04   2.87463915E-05   5.16545785E-05   1.80045399E-05  
  98               4.26547961E+02   3.24991921E+03   8.25588158E-01   1.59136586E-01   1.40325115E-02   4.31864342E-04   4.80115456E-04   2.93625784E-05   5.07941184E-05   1.76976429E-05  
  99               4.84138187E+02   3.33218111E+03   8.23553558E-01   1.58961131E-01   1.62375181E-02   4.36575382E-04   4.75679032E-04   3.02482572E-05   4.98122835E-05   1.73966208E-05  
  100              5.49943918E+02   3.41690320E+03   8.21280452E-01   1.58765132E-01   1.87007738E-02   4.41942542E-04   4.70582890E-04   3.12380558E-05   4.86846528E-05   1.70865258E-05  
  101              6.24924650E+02   3.50155333E+03   8.18865325E-01   1.58557060E-01   2.13171455E-02   4.48076423E-04   4.64669934E-04   3.24790440E-05   4.73799004E-05   1.67861395E-05  
