# ATMO chemical composition profiles
# Chemical abundances given as mole fraction for the 8 most abundant species
# Model Level      Pressure [Ba]    Temperature [K]  H2               He               H2O              CH4              NH3              N2               H2S              H               
  1                1.00000000E-05   3.39304926E+01   8.38109218E-01   1.60470607E-01   7.77424843E-04   5.27873567E-04   5.30660326E-05   3.42050957E-05   2.29843451E-05   3.16310115E-109 
  2                2.41004248E-05   4.15005445E+01   8.38109218E-01   1.60470607E-01   7.77424836E-04   5.27873562E-04   5.30660321E-05   3.42050954E-05   2.29843451E-05   2.03751461E-109 
  3                4.15624029E-05   4.43589136E+01   8.38109218E-01   1.60470607E-01   7.77424832E-04   5.27873559E-04   5.30660319E-05   3.42050952E-05   2.29843451E-05   1.55153921E-109 
  4                6.31857104E-05   4.60795334E+01   8.38109218E-01   1.60470607E-01   7.77424829E-04   5.27873558E-04   5.30660317E-05   3.42050951E-05   2.29843451E-05   1.25835635E-109 
  5                8.99596392E-05   4.85163724E+01   8.38109218E-01   1.60470607E-01   7.77424827E-04   5.27873556E-04   5.30660316E-05   3.42050950E-05   2.29843451E-05   1.05460355E-109 
  6                1.23108478E-04   4.98305876E+01   8.38109218E-01   1.60470607E-01   7.77424825E-04   5.27873555E-04   5.30660314E-05   3.42050949E-05   2.29843451E-05   9.01506991E-110 
  7                1.64145093E-04   5.21563209E+01   8.38109218E-01   1.60470607E-01   7.77424824E-04   5.27873554E-04   5.30660313E-05   3.42050949E-05   2.29843451E-05   7.80726871E-110 
  8                2.14939388E-04   5.35818392E+01   8.38109218E-01   1.60470607E-01   7.77424822E-04   5.27873553E-04   5.30660312E-05   3.42050948E-05   2.29843451E-05   6.82268116E-110 
  9                2.77803950E-04   5.61191591E+01   8.38109218E-01   1.60470607E-01   7.77424821E-04   5.27873552E-04   5.30660311E-05   3.42050947E-05   2.29843451E-05   6.00127975E-110 
  10               3.55589189E-04   5.76928535E+01   8.38109218E-01   1.60470607E-01   7.77424819E-04   5.27873551E-04   5.30660310E-05   3.42050947E-05   2.29843451E-05   5.30443101E-110 
  11               4.51820428E-04   6.02379926E+01   8.38109218E-01   1.60470607E-01   7.77424818E-04   5.27873550E-04   5.30660309E-05   3.42050946E-05   2.29843451E-05   4.70576406E-110 
  12               5.70845657E-04   6.17012649E+01   8.38109218E-01   1.60470607E-01   7.77424817E-04   5.27873549E-04   5.30660308E-05   3.42050946E-05   2.29843451E-05   4.18652539E-110 
  13               7.18009985E-04   6.44049336E+01   8.38109218E-01   1.60470607E-01   7.77424815E-04   5.27873548E-04   5.30660307E-05   3.42050945E-05   2.29843451E-05   3.73291274E-110 
  14               8.99916538E-04   6.60308435E+01   8.38109218E-01   1.60470607E-01   7.77424814E-04   5.27873547E-04   5.30660306E-05   3.42050944E-05   2.29843451E-05   3.33435598E-110 
  15               1.12469062E-03   6.90452457E+01   8.38109218E-01   1.60470607E-01   7.77424812E-04   5.27873546E-04   5.30660305E-05   3.42050944E-05   2.29843451E-05   2.98261051E-110 
  16               1.40227807E-03   7.09109144E+01   8.38109218E-01   1.60470607E-01   7.77424811E-04   5.27873545E-04   5.30660304E-05   3.42050943E-05   2.29843451E-05   2.67113605E-110 
  17               1.74399284E-03   7.42136828E+01   8.38109218E-01   1.60470607E-01   7.77424809E-04   5.27873544E-04   5.30660303E-05   3.42050942E-05   2.29843451E-05   2.39519420E-110 
  18               2.16245604E-03   7.62786931E+01   8.38109218E-01   1.60470607E-01   7.77424808E-04   5.27873543E-04   5.30660302E-05   3.42050942E-05   2.29843451E-05   2.15099518E-110 
  19               2.67264104E-03   7.99673364E+01   8.38109218E-01   1.60470607E-01   7.77424806E-04   5.27873542E-04   5.30660301E-05   3.42050941E-05   2.29843451E-05   1.93482978E-110 
  20               3.29264778E-03   8.23502420E+01   8.38109218E-01   1.60470607E-01   7.77424805E-04   5.27873541E-04   5.30660300E-05   3.42050940E-05   2.29843451E-05   1.74317281E-110 
  21               4.04502149E-03   8.64544918E+01   8.38109218E-01   1.60470607E-01   7.77424804E-04   5.27873540E-04   5.30660300E-05   3.42050940E-05   2.29843451E-05   1.57272454E-110 
  22               4.95821263E-03   8.91691915E+01   8.38109218E-01   1.60470607E-01   7.77424803E-04   5.27873540E-04   5.30660299E-05   3.42050940E-05   2.29843451E-05   1.42053031E-110 
  23               6.06665100E-03   9.38469084E+01   8.38109218E-01   1.60470607E-01   7.77424803E-04   5.27873540E-04   5.30660299E-05   3.42050939E-05   2.29843451E-05   1.28421747E-110 
  24               7.41244682E-03   9.69614247E+01   8.38109218E-01   1.60470607E-01   7.77424802E-04   5.27873539E-04   5.30660299E-05   3.42050939E-05   2.29843451E-05   1.16180244E-110 
  25               9.04677764E-03   1.02205279E+02   8.38109008E-01   1.60470567E-01   7.77424802E-04   5.27873539E-04   5.30660298E-05   3.42050939E-05   2.29843393E-05   2.90212548E-108 
  26               1.10313290E-02   1.05825264E+02   8.38107694E-01   1.60470315E-01   7.77424997E-04   5.27873671E-04   5.30660431E-05   3.42051025E-05   2.29843033E-05   1.60767944E-104 
  27               1.34410884E-02   1.11831491E+02   8.38105802E-01   1.60469953E-01   7.77425952E-04   5.27874320E-04   5.30661083E-05   3.42051445E-05   2.29842514E-05   8.05656397E-99  
  28               1.63679132E-02   1.16044690E+02   8.38087238E-01   1.60466399E-01   7.77428638E-04   5.27876144E-04   5.30662917E-05   3.42052627E-05   2.29837423E-05   3.44958388E-95  
  29               1.99226228E-02   1.22870027E+02   8.38034386E-01   1.60456279E-01   7.77427703E-04   5.27875509E-04   5.30662278E-05   3.42052215E-05   2.29822929E-05   8.20187379E-90  
  30               2.42384616E-02   1.27853722E+02   8.38109076E-01   1.60470580E-01   7.77519415E-04   5.27937781E-04   5.30724880E-05   3.42092567E-05   2.29843412E-05   2.90694467E-86  
  31               2.94772180E-02   1.35644829E+02   8.38109182E-01   1.60470600E-01   7.77448929E-04   5.27889921E-04   5.30676767E-05   3.42061554E-05   2.29843441E-05   3.22686721E-81  
  32               3.58351831E-02   1.41425542E+02   8.38109074E-01   1.60470579E-01   7.77520133E-04   5.27938269E-04   5.30725370E-05   3.42092883E-05   2.29843411E-05   7.58460057E-78  
  33               4.35507889E-02   1.50218261E+02   8.38109070E-01   1.60470579E-01   7.77520132E-04   5.27938268E-04   5.30725369E-05   3.42092882E-05   2.29843410E-05   3.36713012E-73  
  34               5.29124399E-02   1.56993315E+02   8.38109034E-01   1.60470572E-01   7.77520133E-04   5.27938269E-04   5.30725370E-05   3.42092883E-05   2.29843400E-05   5.50910048E-70  
  35               6.42709954E-02   1.66743387E+02   8.38108934E-01   1.60470553E-01   7.77520160E-04   5.27938287E-04   5.30725389E-05   3.42092895E-05   2.29843373E-05   8.34748631E-66  
  36               7.80508873E-02   1.74219585E+02   8.38108143E-01   1.60470401E-01   7.77520263E-04   5.27938357E-04   5.30725459E-05   3.42092940E-05   2.29843156E-05   6.28034505E-63  
  37               9.47666630E-02   1.84596086E+02   8.38106361E-01   1.60470060E-01   7.77520885E-04   5.27938779E-04   5.30725883E-05   3.42093213E-05   2.29842667E-05   2.60626694E-59  
  38               1.15033769E-01   1.92870244E+02   8.38093702E-01   1.60467636E-01   7.77522901E-04   5.27940149E-04   5.30727260E-05   3.42094101E-05   2.29839195E-05   1.02592628E-56  
  39               1.39563701E-01   2.04444088E+02   8.38072943E-01   1.60463662E-01   7.77533128E-04   5.27947093E-04   5.30734240E-05   3.42098600E-05   2.29833503E-05   1.99969956E-53  
  40               1.69226473E-01   2.13319314E+02   8.37965550E-01   1.60443099E-01   7.77558955E-04   5.27964629E-04   5.30751869E-05   3.42109964E-05   2.29804051E-05   3.71427349E-51  
  41               2.05099893E-01   2.24778380E+02   8.37651962E-01   1.60383058E-01   7.77539158E-04   5.27951187E-04   5.30738356E-05   3.42101254E-05   2.29718053E-05   1.74789386E-48  
  42               2.48508095E-01   2.33334781E+02   8.38108159E-01   1.60470404E-01   7.78128911E-04   5.28351631E-04   5.31140914E-05   3.42360733E-05   2.29843160E-05   1.13450390E-46  
  43               3.01100709E-01   2.44382525E+02   8.38108795E-01   1.60470526E-01   7.77705974E-04   5.28064456E-04   5.30852223E-05   3.42174649E-05   2.29843335E-05   1.64109106E-44  
  44               3.64857113E-01   2.52963277E+02   8.38108153E-01   1.60470403E-01   7.78133120E-04   5.28354489E-04   5.31143787E-05   3.42362584E-05   2.29843158E-05   5.64273955E-43  
  45               4.42187467E-01   2.64449215E+02   8.38108153E-01   1.60470403E-01   7.78133148E-04   5.28354508E-04   5.31143806E-05   3.42362597E-05   2.29843158E-05   4.59621494E-41  
  46               5.35997208E-01   2.74042268E+02   8.38108153E-01   1.60470403E-01   7.78133140E-04   5.28354503E-04   5.31143801E-05   3.42362594E-05   2.29843158E-05   1.33816884E-39  
  47               6.49662065E-01   2.87003375E+02   8.38108153E-01   1.60470403E-01   7.78133133E-04   5.28354497E-04   5.31143796E-05   3.42362590E-05   2.29843158E-05   9.12181778E-38  
  48               7.87152178E-01   2.98362560E+02   8.38108153E-01   1.60470403E-01   7.78133124E-04   5.28354492E-04   5.31143790E-05   3.42362586E-05   2.29843158E-05   2.68237649E-36  
  49               9.53217442E-01   3.13404414E+02   8.38108153E-01   1.60470403E-01   7.78133115E-04   5.28354485E-04   5.31143784E-05   3.42362582E-05   2.29843158E-05   1.65542978E-34  
  50               1.15351174E+00   3.27616805E+02   8.38108153E-01   1.60470403E-01   7.78133104E-04   5.28354478E-04   5.31143776E-05   3.42362577E-05   2.29843158E-05   5.68248884E-33  
  51               1.39445966E+00   3.46453357E+02   8.38108153E-01   1.60470403E-01   7.78133092E-04   5.28354470E-04   5.31143768E-05   3.42362572E-05   2.29843158E-05   4.02724199E-31  
  52               1.68312458E+00   3.66497698E+02   8.38107957E-01   1.60470366E-01   7.78133080E-04   5.28354462E-04   5.31143760E-05   3.42362567E-05   2.29843105E-05   2.31501114E-29  
  53               2.02834404E+00   3.87861837E+02   8.38107976E-01   1.60470347E-01   7.78132728E-04   5.28354223E-04   5.31143519E-05   3.42362412E-05   2.29843078E-05   1.09426595E-27  
  54               2.44075232E+00   4.09858724E+02   8.38107970E-01   1.60470346E-01   7.78136650E-04   5.28356886E-04   5.31146197E-05   3.42364138E-05   2.29843076E-05   3.79275096E-26  
  55               2.93159376E+00   4.33259316E+02   8.38107970E-01   1.60470345E-01   7.78136654E-04   5.28356889E-04   5.31146200E-05   3.42364140E-05   2.29843076E-05   1.10879513E-24  
  56               3.51278164E+00   4.57203353E+02   8.38107932E-01   1.60470338E-01   7.78136635E-04   5.28356876E-04   5.31146187E-05   3.42364131E-05   2.29843065E-05   2.44123577E-23  
  57               4.19839881E+00   4.82544597E+02   8.38107536E-01   1.60470295E-01   7.78136739E-04   5.28356946E-04   5.31146258E-05   3.42364177E-05   2.29843003E-05   4.60346298E-22  
  58               5.00597204E+00   5.08430272E+02   8.38104369E-01   1.60470018E-01   7.78137931E-04   5.28357755E-04   5.31147071E-05   3.42364701E-05   2.29842607E-05   6.80638139E-21  
  59               5.95448957E+00   5.35805413E+02   8.38104656E-01   1.60469731E-01   7.78137945E-04   5.28357765E-04   5.31147081E-05   3.42364707E-05   2.29842196E-05   8.84401495E-20  
  60               7.06428161E+00   5.63669634E+02   8.38104578E-01   1.60469691E-01   7.78203523E-04   5.28402293E-04   5.31191843E-05   3.42393560E-05   2.29842139E-05   9.27864435E-19  
  61               8.35934142E+00   5.93065211E+02   8.38104621E-01   1.60469648E-01   7.78203404E-04   5.28402212E-04   5.31191762E-05   3.42393508E-05   2.29842077E-05   8.71111106E-18  
  62               9.87003310E+00   6.22981325E+02   8.38104699E-01   1.60469571E-01   7.78203209E-04   5.28402080E-04   5.31191629E-05   3.42393422E-05   2.29841966E-05   6.82347918E-17  
  63               1.16258095E+01   6.54505476E+02   8.38104839E-01   1.60469431E-01   7.78202878E-04   5.28401854E-04   5.31191403E-05   3.42393276E-05   2.29841766E-05   4.86650111E-16  
  64               1.36569265E+01   6.86405524E+02   8.38105062E-01   1.60469209E-01   7.78202354E-04   5.28401499E-04   5.31191045E-05   3.42393046E-05   2.29841448E-05   2.94601157E-15  
  65               1.59962004E+01   7.19836661E+02   8.38105414E-01   1.60468856E-01   7.78201548E-04   5.28400952E-04   5.31190496E-05   3.42392692E-05   2.29840943E-05   1.63718290E-14  
  66               1.86966868E+01   7.53696718E+02   8.38105905E-01   1.60468360E-01   7.78200380E-04   5.28400158E-04   5.31189698E-05   3.42392177E-05   2.29840232E-05   7.93639251E-14  
  67               2.18156324E+01   7.89358673E+02   8.38106581E-01   1.60467662E-01   7.78198804E-04   5.28399088E-04   5.31188622E-05   3.42391484E-05   2.29839231E-05   3.61185974E-13  
  68               2.54157204E+01   8.25540976E+02   8.38107259E-01   1.60466769E-01   7.78197043E-04   5.28397893E-04   5.31187420E-05   3.42390709E-05   2.29837950E-05   1.46494735E-12  
  69               2.95542907E+01   8.63508363E+02   8.38108249E-01   1.60465701E-01   7.78195726E-04   5.28396999E-04   5.31186522E-05   3.42390130E-05   2.29838298E-05   5.60774696E-12  
  70               3.43013382E+01   9.01870690E+02   8.38109214E-01   1.60464522E-01   7.78197879E-04   5.28398460E-04   5.31187991E-05   3.42391077E-05   2.29836595E-05   1.93417345E-11  
  71               3.97456642E+01   9.42053211E+02   8.38110437E-01   1.60463259E-01   7.78199205E-04   5.28399361E-04   5.31188896E-05   3.42391661E-05   2.29880361E-05   6.34430909E-11  
  72               4.59608187E+01   9.82542005E+02   8.38111563E-01   1.60462014E-01   7.78196647E-04   5.28397624E-04   5.31187150E-05   3.42390535E-05   2.30129858E-05   1.89711053E-10  
  73               5.30124213E+01   1.02453426E+03   8.38112489E-01   1.60460736E-01   7.78195348E-04   5.28396742E-04   5.31186263E-05   3.42389963E-05   2.30887342E-05   5.38703629E-10  
  74               6.09569399E+01   1.06644416E+03   8.38112395E-01   1.60459424E-01   7.78197709E-04   5.28398345E-04   5.31187875E-05   3.42391002E-05   2.32937754E-05   1.40210420E-09  
  75               6.98964844E+01   1.10965263E+03   8.38111609E-01   1.60458191E-01   7.78219333E-04   5.28413027E-04   5.31202635E-05   3.42400517E-05   2.42853679E-05   3.48198899E-09  
  76               7.99897321E+01   1.15304221E+03   8.38112535E-01   1.60457251E-01   7.78216571E-04   5.28411147E-04   5.31200752E-05   3.42399303E-05   2.42851363E-05   8.08098813E-09  
  77               9.14011864E+01   1.19798774E+03   8.38113387E-01   1.60456358E-01   7.78214083E-04   5.28409419E-04   5.31199073E-05   3.42398221E-05   2.42848453E-05   1.81063514E-08  
  78               1.04253228E+02   1.24315692E+03   8.38114077E-01   1.60455557E-01   7.78212124E-04   5.28407818E-04   5.31197881E-05   3.42397455E-05   2.42844701E-05   3.83015080E-08  
  79               1.18643054E+02   1.28950481E+03   8.38114618E-01   1.60454764E-01   7.78210287E-04   5.28404941E-04   5.31197560E-05   3.42397264E-05   2.42839400E-05   7.81464799E-08  
  80               1.34690034E+02   1.33581322E+03   8.38114944E-01   1.60453997E-01   7.78203679E-04   5.28392009E-04   5.31198308E-05   3.42397827E-05   2.42832002E-05   1.51274082E-07  
  81               1.52644401E+02   1.38333556E+03   8.38115121E-01   1.60453177E-01   7.78169114E-04   5.28332065E-04   5.31199660E-05   3.42399077E-05   2.42821209E-05   2.84224862E-07  
  82               1.72762670E+02   1.43118704E+03   8.38115249E-01   1.60452334E-01   7.78024066E-04   5.28104547E-04   5.31200238E-05   3.42401065E-05   2.42805793E-05   5.12888070E-07  
  83               1.95290970E+02   1.48037325E+03   8.38115651E-01   1.60451439E-01   7.77564933E-04   5.27453913E-04   5.31195086E-05   3.42404012E-05   2.42782798E-05   9.03123091E-07  
  84               2.20389420E+02   1.52971498E+03   8.38116594E-01   1.60450566E-01   7.76551840E-04   5.26168850E-04   5.31173527E-05   3.42411772E-05   2.42747830E-05   1.53235125E-06  
  85               2.48159256E+02   1.57989728E+03   8.38117880E-01   1.60449598E-01   7.74940808E-04   5.24278087E-04   5.31108988E-05   3.42435579E-05   2.42688354E-05   2.53317994E-06  
  86               2.78783088E+02   1.62989806E+03   8.38119059E-01   1.60448508E-01   7.72914610E-04   5.21904474E-04   5.30937307E-05   3.42489012E-05   2.42577358E-05   4.04455446E-06  
  87               3.12509071E+02   1.68062542E+03   8.38103010E-01   1.60443981E-01   7.70701386E-04   5.18978373E-04   5.30870450E-05   3.42780069E-05   2.42337993E-05   6.31213089E-06  
  88               3.49512323E+02   1.73109224E+03   8.38084596E-01   1.60442489E-01   7.88103006E-04   5.15212269E-04   5.30425538E-05   3.42917634E-05   2.34052647E-05   9.55824368E-06  
  89               3.89959527E+02   1.78201697E+03   8.38084454E-01   1.60440699E-01   7.84522217E-04   5.11227499E-04   5.30249340E-05   3.42911424E-05   2.34159777E-05   1.41709194E-05  
  90               4.33970505E+02   1.83246903E+03   8.38083226E-01   1.60438750E-01   7.80739428E-04   5.06871350E-04   5.31217901E-05   3.42330778E-05   2.34213071E-05   2.04483311E-05  
  91               4.81652794E+02   1.88305713E+03   8.38078071E-01   1.60436213E-01   7.77342142E-04   5.02063545E-04   5.33493557E-05   3.41044578E-05   2.34135206E-05   2.89286304E-05  
  92               5.32526630E+02   1.93244947E+03   8.38066675E-01   1.60433075E-01   7.75894320E-04   4.97008130E-04   5.37233908E-05   3.38976935E-05   2.33788560E-05   3.98213875E-05  
  93               5.86118712E+02   1.98080954E+03   8.38042478E-01   1.60428599E-01   7.79061258E-04   4.91546817E-04   5.41784199E-05   3.36451356E-05   2.32907027E-05   5.35660028E-05  
  94               6.45345557E+02   2.03000933E+03   8.37993189E-01   1.60421444E-01   7.91738159E-04   4.85282578E-04   5.47569636E-05   3.33254765E-05   2.31058306E-05   7.12808064E-05  
  95               7.09211195E+02   2.07927813E+03   8.37917128E-01   1.60412477E-01   8.19971639E-04   4.77814103E-04   5.54149727E-05   3.29612464E-05   2.27912070E-05   9.35188374E-05  
  96               7.77230886E+02   2.12777296E+03   8.37848074E-01   1.60405079E-01   8.46841776E-04   4.70205205E-04   5.61583922E-05   3.25509108E-05   2.25230441E-05   1.20530734E-04  
  97               8.56290843E+02   2.18001581E+03   8.37815404E-01   1.60399349E-01   8.41300110E-04   4.64042611E-04   5.70454353E-05   3.20609379E-05   2.25186484E-05   1.56255365E-04  
  98               9.37108883E+02   2.22938263E+03   8.37783662E-01   1.60394653E-01   8.36316097E-04   4.58367246E-04   5.79671050E-05   3.15515047E-05   2.25099925E-05   1.97238587E-04  
  99               1.01323962E+03   2.27268395E+03   8.37749479E-01   1.60390066E-01   8.32195717E-04   4.53547518E-04   5.88393225E-05   3.10685664E-05   2.24988116E-05   2.39708956E-04  
  100              1.10264249E+03   2.32038637E+03   8.37702165E-01   1.60384070E-01   8.27914933E-04   4.48381446E-04   5.98458721E-05   3.05088450E-05   2.24825531E-05   2.94430498E-04  
  101              1.20713476E+03   2.37183620E+03   8.37598926E-01   1.60369976E-01   8.28423964E-04   4.42722677E-04   6.10192784E-05   2.98538544E-05   2.24673459E-05   3.63613141E-04  
