# ATMO chemical composition profiles
# Chemical abundances given as mole fraction for the 8 most abundant species
# Model Level      Pressure [Ba]    Temperature [K]  H2               He               H2O              CH4              N2               CO               H                NH3             
  1                1.00000000E-05   4.83315809E+01   8.38135250E-01   1.60475580E-01   7.66469007E-04   5.17628347E-04   4.65048701E-05   2.95894432E-06   3.16319938E-109  2.83371524E-05  
  2                4.73999030E-04   6.36192513E+01   8.38135250E-01   1.60475580E-01   7.66469022E-04   5.17628357E-04   4.65048709E-05   2.95894438E-06   4.59449560E-110  2.83371529E-05  
  3                1.01778118E-03   7.51244269E+01   8.38135250E-01   1.60475580E-01   7.66469029E-04   5.17628362E-04   4.65048714E-05   2.95894440E-06   3.13544624E-110  2.83371532E-05  
  4                1.63972603E-03   8.15874125E+01   8.38135250E-01   1.60475580E-01   7.66469033E-04   5.17628364E-04   4.65048716E-05   2.95894442E-06   2.47025008E-110  2.83371533E-05  
  5                2.34398088E-03   8.84321976E+01   8.38135250E-01   1.60475580E-01   7.66469035E-04   5.17628366E-04   4.65048717E-05   2.95894443E-06   2.06609142E-110  2.83371534E-05  
  6                3.14849104E-03   9.32544476E+01   8.38135250E-01   1.60475580E-01   7.66469036E-04   5.17628366E-04   4.65048718E-05   2.95894443E-06   1.78268798E-110  2.83371534E-05  
  7                4.07321670E-03   9.94017890E+01   8.38135008E-01   1.60475534E-01   7.66469037E-04   5.17628367E-04   4.65048718E-05   2.95894443E-06   1.56732003E-110  2.83371535E-05  
  8                5.13964466E-03   1.03893357E+02   8.38133325E-01   1.60475212E-01   7.66468669E-04   5.17628119E-04   4.65048496E-05   2.95894302E-06   2.42119013E-106  2.83371399E-05  
  9                6.37214188E-03   1.10116953E+02   8.38130198E-01   1.60474613E-01   7.66468915E-04   5.17628285E-04   4.65048645E-05   2.95894396E-06   3.10914844E-100  2.83371490E-05  
  10               7.79953792E-03   1.14627270E+02   8.38106491E-01   1.60470074E-01   7.66466329E-04   5.17626539E-04   4.65047076E-05   2.95893398E-06   3.10933619E-96   2.83370534E-05  
  11               9.45484805E-03   1.21070891E+02   8.38069346E-01   1.60462962E-01   7.66421954E-04   5.17596570E-04   4.65020152E-05   2.95876267E-06   5.08812397E-91   2.83354128E-05  
  12               1.13755190E-02   1.25846399E+02   8.38135110E-01   1.60475554E-01   7.66562993E-04   5.17691820E-04   4.65105726E-05   2.95930715E-06   1.64081266E-87   2.83406271E-05  
  13               1.36048874E-02   1.32761963E+02   8.38135110E-01   1.60475554E-01   7.66562950E-04   5.17691791E-04   4.65105700E-05   2.95930699E-06   7.30336653E-83   2.83406256E-05  
  14               1.61939904E-02   1.37874459E+02   8.38135110E-01   1.60475554E-01   7.66562308E-04   5.17691357E-04   4.65105310E-05   2.95930451E-06   9.75671793E-80   2.83406018E-05  
  15               1.92020518E-02   1.45237855E+02   8.38135108E-01   1.60475553E-01   7.66563022E-04   5.17691839E-04   4.65105743E-05   2.95930726E-06   1.31311328E-75   2.83406282E-05  
  16               2.26971943E-02   1.50792636E+02   8.38135095E-01   1.60475551E-01   7.66563027E-04   5.17691843E-04   4.65105747E-05   2.95930728E-06   9.03964162E-73   2.83406284E-05  
  17               2.67589373E-02   1.58765007E+02   8.38135065E-01   1.60475545E-01   7.66563032E-04   5.17691846E-04   4.65105749E-05   2.95930730E-06   4.95336553E-69   2.83406286E-05  
  18               3.14803735E-02   1.64814844E+02   8.38134849E-01   1.60475503E-01   7.66563022E-04   5.17691839E-04   4.65105743E-05   2.95930726E-06   1.90916558E-66   2.83406282E-05  
  19               3.69706652E-02   1.73217660E+02   8.38134453E-01   1.60475428E-01   7.66563104E-04   5.17691895E-04   4.65105793E-05   2.95930758E-06   3.83439325E-63   2.83406312E-05  
  20               4.33545474E-02   1.79656231E+02   8.38131934E-01   1.60474945E-01   7.66563040E-04   5.17691852E-04   4.65105754E-05   2.95930733E-06   7.86947050E-61   2.83406289E-05  
  21               5.07757154E-02   1.88494908E+02   8.38127720E-01   1.60474139E-01   7.66564245E-04   5.17692665E-04   4.65106485E-05   2.95931198E-06   6.65182491E-58   2.83406734E-05  
  22               5.93949310E-02   1.95600638E+02   8.38042404E-01   1.60457803E-01   7.66564423E-04   5.17692785E-04   4.65106593E-05   2.95931267E-06   9.46380979E-56   2.83406800E-05  
  23               6.93971312E-02   2.05122912E+02   8.38135004E-01   1.60475533E-01   7.66634007E-04   5.17739778E-04   4.65148813E-05   2.95958130E-06   4.33027451E-53   2.83432526E-05  
  24               8.09972341E-02   2.12546227E+02   8.37583527E-01   1.60369943E-01   7.66587548E-04   5.17708402E-04   4.65120624E-05   2.95940194E-06   3.43597363E-51   2.83415349E-05  
  25               9.44451589E-02   2.21985727E+02   8.38134939E-01   1.60475521E-01   7.66677700E-04   5.17769286E-04   4.65175323E-05   2.95974998E-06   5.96305941E-49   2.83448680E-05  
  26               1.10035712E-01   2.29189981E+02   8.38134209E-01   1.60475381E-01   7.67167171E-04   5.18099846E-04   4.65472306E-05   2.96163957E-06   2.24404943E-47   2.83629642E-05  
  27               1.28124568E-01   2.38215760E+02   8.38134211E-01   1.60475381E-01   7.67166085E-04   5.18099113E-04   4.65471647E-05   2.96163538E-06   1.57264911E-45   2.83629241E-05  
  28               1.49119772E-01   2.45127746E+02   8.38134209E-01   1.60475381E-01   7.67167327E-04   5.18099951E-04   4.65472400E-05   2.96164017E-06   3.22960957E-44   2.83629700E-05  
  29               1.73504789E-01   2.54015162E+02   8.38134214E-01   1.60475382E-01   7.67163574E-04   5.18097417E-04   4.65470123E-05   2.96162569E-06   1.25617517E-42   2.83628312E-05  
  30               2.01829151E-01   2.61074066E+02   8.38134209E-01   1.60475381E-01   7.67167348E-04   5.18099966E-04   4.65472413E-05   2.96164026E-06   1.89101014E-41   2.83629708E-05  
  31               2.34727047E-01   2.70348741E+02   8.38134209E-01   1.60475381E-01   7.67167381E-04   5.18099988E-04   4.65472433E-05   2.96164038E-06   5.47806132E-40   2.83629720E-05  
  32               2.72938829E-01   2.78072691E+02   8.38134209E-01   1.60475381E-01   7.67167383E-04   5.18099989E-04   4.65472434E-05   2.96164039E-06   7.49692051E-39   2.83629721E-05  
  33               3.17295532E-01   2.88251372E+02   8.38134209E-01   1.60475381E-01   7.67167385E-04   5.18099991E-04   4.65472436E-05   2.96164040E-06   1.93826808E-37   2.83629721E-05  
  34               3.68747569E-01   2.97042021E+02   8.38134209E-01   1.60475381E-01   7.67167388E-04   5.18099993E-04   4.65472437E-05   2.96164041E-06   2.65185237E-36   2.83629722E-05  
  35               4.28375735E-01   3.08405615E+02   8.38134209E-01   1.60475381E-01   7.67167391E-04   5.18099994E-04   4.65472439E-05   2.96164042E-06   6.36118815E-35   2.83629723E-05  
  36               4.97404063E-01   3.18614224E+02   8.38134209E-01   1.60475381E-01   7.67167394E-04   5.18099996E-04   4.65472441E-05   2.96164043E-06   9.00570980E-34   2.83629725E-05  
  37               5.77210219E-01   3.31704534E+02   8.38134208E-01   1.60475381E-01   7.67167397E-04   5.18099999E-04   4.65472443E-05   2.96164044E-06   2.15561238E-32   2.83629726E-05  
  38               6.69302920E-01   3.44164472E+02   8.38134208E-01   1.60475381E-01   7.67167405E-04   5.18100004E-04   4.65472448E-05   2.96164048E-06   3.51196764E-31   2.83629729E-05  
  39               7.75357102E-01   3.60194893E+02   8.38134205E-01   1.60475380E-01   7.67167409E-04   5.18100007E-04   4.65472450E-05   2.96164049E-06   9.73283137E-30   2.83629730E-05  
  40               8.97187798E-01   3.76991448E+02   8.38134205E-01   1.60475380E-01   7.67167417E-04   5.18100012E-04   4.65472455E-05   2.96164052E-06   2.33221135E-28   2.83629733E-05  
  41               1.03709975E+00   3.94107468E+02   8.38133914E-01   1.60475324E-01   7.67167511E-04   5.18100075E-04   4.65472512E-05   2.96164088E-06   4.47966547E-27   2.83629768E-05  
  42               1.19760079E+00   4.12028888E+02   8.38133943E-01   1.60475296E-01   7.67166908E-04   5.18099669E-04   4.65472146E-05   2.96163856E-06   7.59211422E-26   2.83629545E-05  
  43               1.38136840E+00   4.30288705E+02   8.38133931E-01   1.60475292E-01   7.67175210E-04   5.18105275E-04   4.65477184E-05   2.96167061E-06   1.06204530E-24   2.83632614E-05  
  44               1.59139564E+00   4.49389104E+02   8.38133922E-01   1.60475289E-01   7.67175248E-04   5.18105301E-04   4.65477206E-05   2.96167075E-06   1.33234047E-23   2.83632628E-05  
  45               1.83098724E+00   4.68821963E+02   8.38133523E-01   1.60475217E-01   7.67175273E-04   5.18105318E-04   4.65477222E-05   2.96167085E-06   1.40982461E-22   2.83632638E-05  
  46               2.10414280E+00   4.89144696E+02   8.38133226E-01   1.60475510E-01   7.67176770E-04   5.18106329E-04   4.65478130E-05   2.96167663E-06   1.35886507E-21   2.83633191E-05  
  47               2.41524162E+00   5.09813054E+02   8.38130446E-01   1.60474957E-01   7.67181892E-04   5.18109788E-04   4.65481238E-05   2.96169640E-06   1.12797005E-20   2.83635085E-05  
  48               2.76906794E+00   5.31430457E+02   8.38130755E-01   1.60474657E-01   7.67176832E-04   5.18106371E-04   4.65478168E-05   2.96167687E-06   8.64593339E-20   2.83633214E-05  
  49               3.17098385E+00   5.53403673E+02   8.38130727E-01   1.60474579E-01   7.67236337E-04   5.18146557E-04   4.65514272E-05   2.96190659E-06   5.80707474E-19   2.83655214E-05  
  50               3.62653226E+00   5.76376716E+02   8.38130834E-01   1.60474472E-01   7.67236682E-04   5.18146790E-04   4.65514481E-05   2.96190792E-06   3.63952454E-18   2.83655341E-05  
  51               4.14257375E+00   5.99699370E+02   8.38131010E-01   1.60474297E-01   7.67236324E-04   5.18146548E-04   4.65514264E-05   2.96190654E-06   2.02634297E-17   2.83655209E-05  
  52               4.72657165E+00   6.24109741E+02   8.38131295E-01   1.60474012E-01   7.67235708E-04   5.18146132E-04   4.65513890E-05   2.96190416E-06   1.06476665E-16   2.83654981E-05  
  53               5.38627248E+00   6.48861854E+02   8.38131716E-01   1.60473593E-01   7.67234805E-04   5.18145522E-04   4.65513342E-05   2.96190067E-06   5.02893986E-16   2.83654647E-05  
  54               6.13016805E+00   6.74736051E+02   8.38132332E-01   1.60472979E-01   7.67233450E-04   5.18144607E-04   4.65512520E-05   2.96189544E-06   2.25528783E-15   2.83654146E-05  
  55               6.96677417E+00   7.00899490E+02   8.38133142E-01   1.60472171E-01   7.67231667E-04   5.18143403E-04   4.65511438E-05   2.96188856E-06   9.16777458E-15   2.83653487E-05  
  56               7.90613609E+00   7.28189213E+02   8.38134191E-01   1.60471122E-01   7.67229284E-04   5.18141793E-04   4.65509992E-05   2.96187936E-06   3.55426633E-14   2.83652606E-05  
  57               8.96155504E+00   7.55801389E+02   8.38135406E-01   1.60469901E-01   7.67226598E-04   5.18139979E-04   4.65508362E-05   2.96186899E-06   1.26455156E-13   2.83651613E-05  
  58               1.01472111E+01   7.84672494E+02   8.38136795E-01   1.60468485E-01   7.67223518E-04   5.18137900E-04   4.65506494E-05   2.96185710E-06   4.33134681E-13   2.83650474E-05  
  59               1.14795067E+01   8.13925052E+02   8.38138043E-01   1.60466970E-01   7.67220617E-04   5.18135941E-04   4.65504734E-05   2.96184591E-06   1.37626304E-12   2.83649402E-05  
  60               1.29744097E+01   8.44505465E+02   8.38139586E-01   1.60465421E-01   7.67221959E-04   5.18136847E-04   4.65505548E-05   2.96185111E-06   4.22898074E-12   2.83649898E-05  
  61               1.46468839E+01   8.75385081E+02   8.38140891E-01   1.60463910E-01   7.67219617E-04   5.18135265E-04   4.65504127E-05   2.96184218E-06   1.21059846E-11   2.83649032E-05  
  62               1.65161821E+01   9.07589094E+02   8.38142326E-01   1.60462452E-01   7.67220390E-04   5.18135787E-04   4.65504596E-05   2.96184580E-06   3.35816717E-11   2.83649318E-05  
  63               1.86036112E+01   9.40079584E+02   8.38143594E-01   1.60461129E-01   7.67217676E-04   5.18133954E-04   4.65502949E-05   2.96183860E-06   8.73803010E-11   2.83648314E-05  
  64               2.09303932E+01   9.73900836E+02   8.38144705E-01   1.60459865E-01   7.67215520E-04   5.18132498E-04   4.65501641E-05   2.96184576E-06   2.20875174E-10   2.83647517E-05  
  65               2.35173851E+01   1.00789247E+03   8.38145451E-01   1.60458725E-01   7.67214962E-04   5.18132121E-04   4.65501302E-05   2.96191328E-06   5.25665156E-10   2.83647311E-05  
  66               2.63838223E+01   1.04312434E+03   8.38145267E-01   1.60457523E-01   7.67217722E-04   5.18133985E-04   4.65502977E-05   2.96221402E-06   1.21609520E-09   2.83648332E-05  
  67               2.95468149E+01   1.07828909E+03   8.38144384E-01   1.60456484E-01   7.67238560E-04   5.18148058E-04   4.65515621E-05   2.96343207E-06   2.65357788E-09   2.83656036E-05  
  68               3.30348381E+01   1.11463094E+03   8.38145206E-01   1.60455654E-01   7.67236302E-04   5.18146530E-04   4.65514253E-05   2.96751101E-06   5.64199761E-09   2.83655202E-05  
  69               3.68930353E+01   1.15100806E+03   8.38145934E-01   1.60454906E-01   7.67234214E-04   5.18145103E-04   4.65512998E-05   2.98120907E-06   1.14199217E-08   2.83654438E-05  
  70               4.11640656E+01   1.18879362E+03   8.38146643E-01   1.60454140E-01   7.67232007E-04   5.18143520E-04   4.65511730E-05   3.02362903E-06   2.26864081E-08   2.83653665E-05  
  71               4.58862425E+01   1.22658465E+03   8.38147263E-01   1.60453372E-01   7.67230041E-04   5.18141704E-04   4.65510917E-05   3.14485960E-06   4.31075137E-08   2.83653169E-05  
  72               5.10926471E+01   1.26570892E+03   8.38147809E-01   1.60452472E-01   7.67226937E-04   5.18137315E-04   4.65510860E-05   3.45318704E-06   8.04435359E-08   2.83653132E-05  
  73               5.68120820E+01   1.30401282E+03   8.38148092E-01   1.60451457E-01   7.67216220E-04   5.18120174E-04   4.65512454E-05   4.12908375E-06   1.42458361E-07   2.83654091E-05  
  74               6.30755370E+01   1.34223586E+03   8.38148071E-01   1.60450216E-01   7.67171055E-04   5.18052712E-04   4.65516279E-05   5.37136961E-06   2.43461310E-07   2.83656377E-05  
  75               6.99449085E+01   1.38067306E+03   8.38147846E-01   1.60448692E-01   7.67006802E-04   5.17822326E-04   4.65522173E-05   7.31121676E-06   4.04396292E-07   2.83659810E-05  
  76               7.74963511E+01   1.41965614E+03   8.38147819E-01   1.60446876E-01   7.66502261E-04   5.17148967E-04   4.65529675E-05   1.00246000E-05   6.57025971E-07   2.83663844E-05  
  77               8.58083347E+01   1.45936942E+03   8.38148788E-01   1.60444836E-01   7.65190138E-04   5.15491682E-04   4.65535675E-05   1.35973182E-05   1.04772597E-06   2.83665786E-05  
  78               9.49398192E+01   1.50005820E+03   8.38151757E-01   1.60442661E-01   7.62403425E-04   5.12194886E-04   4.65539491E-05   1.81764026E-05   1.64603238E-06   2.83662926E-05  
  79               1.04926305E+02   1.54181523E+03   8.38157141E-01   1.60440336E-01   7.57696758E-04   5.06978005E-04   4.65539294E-05   2.39297879E-05   2.55156357E-06   2.83648129E-05  
  80               1.15776161E+02   1.58466006E+03   8.38163862E-01   1.60437571E-01   7.51241653E-04   5.00036718E-04   4.65539811E-05   3.10248454E-05   3.90488142E-06   2.83610393E-05  
  81               1.27477530E+02   1.62682534E+03   8.38171574E-01   1.60434717E-01   7.44316907E-04   4.92021609E-04   4.65553283E-05   3.90229808E-05   5.79640947E-06   2.83532291E-05  
  82               1.40055541E+02   1.66945602E+03   8.38164297E-01   1.60428267E-01   7.35566442E-04   4.82828562E-04   4.65554780E-05   4.81387318E-05   8.46385644E-06   2.83361507E-05  
  83               1.53496055E+02   1.71122182E+03   8.38155315E-01   1.60424302E-01   7.44978742E-04   4.71732269E-04   4.65795674E-05   5.91577511E-05   1.20219952E-05   2.83237162E-05  
  84               1.67840717E+02   1.75318454E+03   8.38164478E-01   1.60420387E-01   7.34704155E-04   4.60927213E-04   4.65799164E-05   6.98438789E-05   1.68095840E-05   2.82922102E-05  
  85               1.83146145E+02   1.79448847E+03   8.38171829E-01   1.60416191E-01   7.24278186E-04   4.49879863E-04   4.65715866E-05   8.07495004E-05   2.29921265E-05   2.82757778E-05  
  86               1.99357763E+02   1.83567801E+03   8.38176803E-01   1.60411627E-01   7.14174796E-04   4.38382638E-04   4.65462993E-05   9.20760207E-05   3.09647969E-05   2.82958190E-05  
  87               2.16334562E+02   1.87571741E+03   8.38176120E-01   1.60406575E-01   7.05896897E-04   4.26948335E-04   4.64902061E-05   1.03312183E-04   4.07927270E-05   2.83779317E-05  
  88               2.34579462E+02   1.91629482E+03   8.38164809E-01   1.60400153E-01   7.00897988E-04   4.14788379E-04   4.63990281E-05   1.15234116E-04   5.32767317E-05   2.85116423E-05  
  89               2.53489623E+02   1.95547159E+03   8.38139446E-01   1.60392486E-01   7.02370614E-04   4.02312702E-04   4.62743267E-05   1.27442960E-04   6.81477501E-05   2.87014836E-05  
  90               2.72730374E+02   1.99324471E+03   8.38089534E-01   1.60381863E-01   7.12817947E-04   3.88919964E-04   4.61308985E-05   1.40538852E-04   8.55733998E-05   2.89148347E-05  
  91               2.93673465E+02   2.03170047E+03   8.38007233E-01   1.60369132E-01   7.48333701E-04   3.71739192E-04   4.59593680E-05   1.57395496E-04   1.06857110E-04   2.91842135E-05  
  92               3.14472138E+02   2.06798147E+03   8.37997516E-01   1.60364270E-01   7.38956344E-04   3.62009845E-04   4.57758498E-05   1.66781981E-04   1.30722602E-04   2.94651117E-05  
  93               3.34258586E+02   2.10048172E+03   8.37985002E-01   1.60359786E-01   7.31023492E-04   3.53731471E-04   4.55896324E-05   1.74719534E-04   1.55552655E-04   2.97562005E-05  
  94               3.56303038E+02   2.13512165E+03   8.37967484E-01   1.60354786E-01   7.22899660E-04   3.45201971E-04   4.53792451E-05   1.82847750E-04   1.86080841E-04   3.00834798E-05  
  95               3.80807195E+02   2.17142143E+03   8.37932399E-01   1.60347142E-01   7.14934746E-04   3.36772157E-04   4.51349048E-05   1.90805532E-04   2.22971267E-04   3.04654959E-05  
  96               4.02427087E+02   2.20202077E+03   8.37907986E-01   1.60342342E-01   7.08578836E-04   3.29968273E-04   4.49183649E-05   1.97180058E-04   2.58409334E-04   3.08044278E-05  
  97               4.20121548E+02   2.22589254E+03   8.37885868E-01   1.60338443E-01   7.03925576E-04   3.24958422E-04   4.47359482E-05   2.01829906E-04   2.88976487E-04   3.10919782E-05  
  98               4.40175103E+02   2.25213065E+03   8.37858280E-01   1.60333950E-01   6.99015697E-04   3.19612745E-04   4.45303853E-05   2.06753258E-04   3.25822089E-04   3.14143435E-05  
  99               4.62814945E+02   2.28041210E+03   8.37824391E-01   1.60328907E-01   6.94112486E-04   3.14176257E-04   4.42942787E-05   2.11702324E-04   3.69488245E-04   3.17866617E-05  
  100              4.88323959E+02   2.31109982E+03   8.37780686E-01   1.60322747E-01   6.89026752E-04   3.08526255E-04   4.40297237E-05   2.16782280E-04   4.21937337E-04   3.22016547E-05  
  101              5.17159320E+02   2.34403799E+03   8.37693185E-01   1.60310101E-01   6.88398100E-04   3.02051382E-04   4.37279341E-05   2.22595386E-04   4.84356333E-04   3.26765032E-05  
