# ATMO chemical composition profiles
# Chemical abundances given as mole fraction for the 8 most abundant species
# Model Level      Pressure [Ba]    Temperature [K]  H2               He               H2O              CH4              N2               CO               H2S              NH3             
  1                1.00000000E-05   3.52089881E+01   8.38212378E-01   1.60490345E-01   7.07504584E-04   4.62819107E-04   5.42933809E-05   3.25244045E-05   2.29843118E-05   1.28246963E-05  
  2                6.65086625E-05   4.30422556E+01   8.38212378E-01   1.60490345E-01   7.07504585E-04   4.62819108E-04   5.42933810E-05   3.25244046E-05   2.29843118E-05   1.28246964E-05  
  3                1.31764156E-04   4.79119015E+01   8.38212378E-01   1.60490345E-01   7.07504586E-04   4.62819108E-04   5.42933811E-05   3.25244046E-05   2.29843118E-05   1.28246964E-05  
  4                2.07124023E-04   5.09746882E+01   8.38212378E-01   1.60490345E-01   7.07504587E-04   4.62819109E-04   5.42933811E-05   3.25244046E-05   2.29843118E-05   1.28246964E-05  
  5                2.94149363E-04   5.40019187E+01   8.38212378E-01   1.60490345E-01   7.07504587E-04   4.62819109E-04   5.42933812E-05   3.25244047E-05   2.29843118E-05   1.28246964E-05  
  6                3.94626980E-04   5.63139202E+01   8.38212378E-01   1.60490345E-01   7.07504588E-04   4.62819109E-04   5.42933812E-05   3.25244047E-05   2.29843118E-05   1.28246964E-05  
  7                5.10628936E-04   5.89718765E+01   8.38212378E-01   1.60490345E-01   7.07504588E-04   4.62819110E-04   5.42933812E-05   3.25244047E-05   2.29843118E-05   1.28246964E-05  
  8                6.44525769E-04   6.10804655E+01   8.38212378E-01   1.60490345E-01   7.07504588E-04   4.62819110E-04   5.42933812E-05   3.25244047E-05   2.29843118E-05   1.28246964E-05  
  9                7.99039829E-04   6.37126747E+01   8.38212378E-01   1.60490345E-01   7.07504589E-04   4.62819110E-04   5.42933813E-05   3.25244047E-05   2.29843118E-05   1.28246964E-05  
  10               9.77327275E-04   6.58093013E+01   8.38212378E-01   1.60490345E-01   7.07504589E-04   4.62819110E-04   5.42933813E-05   3.25244047E-05   2.29843118E-05   1.28246964E-05  
  11               1.18299131E-03   6.84950982E+01   8.38212378E-01   1.60490345E-01   7.07504589E-04   4.62819110E-04   5.42933813E-05   3.25244048E-05   2.29843118E-05   1.28246964E-05  
  12               1.42014201E-03   7.06969446E+01   8.38212378E-01   1.60490345E-01   7.07504590E-04   4.62819111E-04   5.42933813E-05   3.25244048E-05   2.29843118E-05   1.28246964E-05  
  13               1.69285044E-03   7.35685269E+01   8.38212378E-01   1.60490345E-01   7.07504590E-04   4.62819111E-04   5.42933814E-05   3.25244048E-05   2.29843118E-05   1.28246964E-05  
  14               2.00442720E-03   7.59442935E+01   8.38212378E-01   1.60490345E-01   7.07504590E-04   4.62819111E-04   5.42933814E-05   3.25244048E-05   2.29843118E-05   1.28246965E-05  
  15               2.35856061E-03   7.90996442E+01   8.38212378E-01   1.60490345E-01   7.07504591E-04   4.62819111E-04   5.42933814E-05   3.25244048E-05   2.29843118E-05   1.28246965E-05  
  16               2.75936409E-03   8.18997280E+01   8.38212378E-01   1.60490345E-01   7.07504591E-04   4.62819112E-04   5.42933814E-05   3.25244048E-05   2.29843118E-05   1.28246965E-05  
  17               3.21133709E-03   8.59242475E+01   8.38212378E-01   1.60490345E-01   7.07504591E-04   4.62819112E-04   5.42933815E-05   3.25244048E-05   2.29843118E-05   1.28246965E-05  
  18               3.71994218E-03   8.99780151E+01   8.38212378E-01   1.60490345E-01   7.07504592E-04   4.62819112E-04   5.42933815E-05   3.25244049E-05   2.29843118E-05   1.28246965E-05  
  19               4.29351229E-03   9.41535721E+01   8.38212378E-01   1.60490345E-01   7.07504592E-04   4.62819112E-04   5.42933815E-05   3.25244049E-05   2.29843118E-05   1.28246965E-05  
  20               4.94128898E-03   9.83941935E+01   8.38212378E-01   1.60490345E-01   7.07504592E-04   4.62819112E-04   5.42933815E-05   3.25244049E-05   2.29843118E-05   1.28246965E-05  
  21               5.67375724E-03   1.02792980E+02   8.38211706E-01   1.60490216E-01   7.07504354E-04   4.62818957E-04   5.42933633E-05   3.25243939E-05   2.29842933E-05   1.28246922E-05  
  22               6.50298706E-03   1.07283950E+02   8.38209800E-01   1.60489851E-01   7.07504191E-04   4.62818850E-04   5.42933508E-05   3.25243865E-05   2.29842411E-05   1.28246892E-05  
  23               7.44297363E-03   1.11966914E+02   8.38203460E-01   1.60488637E-01   7.07503786E-04   4.62818585E-04   5.42933197E-05   3.25243678E-05   2.29840672E-05   1.28246819E-05  
  24               8.50952735E-03   1.16767176E+02   8.38122694E-01   1.60473173E-01   7.07502407E-04   4.62817683E-04   5.42932138E-05   3.25243044E-05   2.29818526E-05   1.28246569E-05  
  25               9.72033185E-03   1.21803881E+02   8.38212351E-01   1.60490340E-01   7.07522788E-04   4.62831015E-04   5.42947779E-05   3.25252414E-05   2.29843110E-05   1.28250263E-05  
  26               1.10951168E-02   1.27067909E+02   8.38212248E-01   1.60490320E-01   7.07591200E-04   4.62875767E-04   5.43000277E-05   3.25283863E-05   2.29843082E-05   1.28262664E-05  
  27               1.26562261E-02   1.32571644E+02   8.38212248E-01   1.60490320E-01   7.07591140E-04   4.62875728E-04   5.43000231E-05   3.25283835E-05   2.29843082E-05   1.28262653E-05  
  28               1.44294008E-02   1.38324904E+02   8.38212248E-01   1.60490320E-01   7.07590631E-04   4.62875395E-04   5.42999841E-05   3.25283601E-05   2.29843082E-05   1.28262561E-05  
  29               1.64437563E-02   1.44325158E+02   8.38212245E-01   1.60490320E-01   7.07591231E-04   4.62875788E-04   5.43000302E-05   3.25283877E-05   2.29843081E-05   1.28262670E-05  
  30               1.87323256E-02   1.50606344E+02   8.38212236E-01   1.60490318E-01   7.07591230E-04   4.62875787E-04   5.43000300E-05   3.25283877E-05   2.29843079E-05   1.28262669E-05  
  31               2.13330128E-02   1.57097186E+02   8.38212197E-01   1.60490310E-01   7.07591224E-04   4.62875783E-04   5.43000296E-05   3.25283874E-05   2.29843068E-05   1.28262668E-05  
  32               2.42892710E-02   1.63880239E+02   8.38212045E-01   1.60490281E-01   7.07591201E-04   4.62875768E-04   5.43000278E-05   3.25283863E-05   2.29843026E-05   1.28262664E-05  
  33               2.76505412E-02   1.70908657E+02   8.38211482E-01   1.60490173E-01   7.07591133E-04   4.62875724E-04   5.43000226E-05   3.25283832E-05   2.29842872E-05   1.28262652E-05  
  34               3.14720179E-02   1.78256150E+02   8.38209576E-01   1.60489808E-01   7.07590919E-04   4.62875584E-04   5.43000062E-05   3.25283734E-05   2.29842349E-05   1.28262613E-05  
  35               3.58151827E-02   1.85850620E+02   8.38203413E-01   1.60488628E-01   7.07590281E-04   4.62875166E-04   5.42999572E-05   3.25283440E-05   2.29840659E-05   1.28262497E-05  
  36               4.07480919E-02   1.93759068E+02   8.38185148E-01   1.60485131E-01   7.07588819E-04   4.62874210E-04   5.42998450E-05   3.25282768E-05   2.29835651E-05   1.28262232E-05  
  37               4.63459389E-02   2.01907299E+02   8.38133347E-01   1.60475213E-01   7.07585499E-04   4.62872038E-04   5.42995903E-05   3.25281242E-05   2.29821447E-05   1.28261631E-05  
  38               5.26935912E-02   2.10353720E+02   8.37674969E-01   1.60387449E-01   7.07580402E-04   4.62868704E-04   5.42991992E-05   3.25278899E-05   2.29695757E-05   1.28260707E-05  
  39               5.98844013E-02   2.19046901E+02   8.38211984E-01   1.60490269E-01   7.07766593E-04   4.62990502E-04   5.43134873E-05   3.25364492E-05   2.29843009E-05   1.28294457E-05  
  40               6.80258322E-02   2.28036239E+02   8.38211408E-01   1.60490159E-01   7.08148492E-04   4.63240324E-04   5.43427939E-05   3.25540053E-05   2.29842852E-05   1.28363682E-05  
  41               7.72423008E-02   2.37293658E+02   8.38211409E-01   1.60490159E-01   7.08147876E-04   4.63239921E-04   5.43427467E-05   3.25539770E-05   2.29842852E-05   1.28363571E-05  
  42               8.76761295E-02   2.46860289E+02   8.38211412E-01   1.60490160E-01   7.08145725E-04   4.63238514E-04   5.43425816E-05   3.25538782E-05   2.29842853E-05   1.28363181E-05  
  43               9.94828207E-02   2.56725037E+02   8.38211408E-01   1.60490159E-01   7.08148881E-04   4.63240578E-04   5.43428238E-05   3.25540232E-05   2.29842851E-05   1.28363753E-05  
  44               1.12837015E-01   2.66910364E+02   8.38211408E-01   1.60490159E-01   7.08148878E-04   4.63240577E-04   5.43428236E-05   3.25540231E-05   2.29842851E-05   1.28363752E-05  
  45               1.27939142E-01   2.77425165E+02   8.38211408E-01   1.60490159E-01   7.08148853E-04   4.63240560E-04   5.43428217E-05   3.25540220E-05   2.29842851E-05   1.28363748E-05  
  46               1.45009310E-01   2.88276125E+02   8.38211408E-01   1.60490159E-01   7.08148885E-04   4.63240581E-04   5.43428241E-05   3.25540234E-05   2.29842851E-05   1.28363754E-05  
  47               1.64301545E-01   2.99485571E+02   8.38211408E-01   1.60490159E-01   7.08148887E-04   4.63240582E-04   5.43428242E-05   3.25540235E-05   2.29842851E-05   1.28363754E-05  
  48               1.86103556E-01   3.11053663E+02   8.38211407E-01   1.60490159E-01   7.08148888E-04   4.63240583E-04   5.43428243E-05   3.25540235E-05   2.29842851E-05   1.28363754E-05  
  49               2.10734795E-01   3.23016967E+02   8.38211407E-01   1.60490159E-01   7.08148891E-04   4.63240585E-04   5.43428246E-05   3.25540237E-05   2.29842851E-05   1.28363755E-05  
  50               2.38551035E-01   3.35366062E+02   8.38211407E-01   1.60490159E-01   7.08148892E-04   4.63240586E-04   5.43428247E-05   3.25540237E-05   2.29842851E-05   1.28363755E-05  
  51               2.69942329E-01   3.48143888E+02   8.38211407E-01   1.60490159E-01   7.08148906E-04   4.63240595E-04   5.43428257E-05   3.25540244E-05   2.29842851E-05   1.28363757E-05  
  52               3.05350509E-01   3.61327569E+02   8.38211389E-01   1.60490155E-01   7.08148884E-04   4.63240580E-04   5.43428240E-05   3.25540234E-05   2.29842846E-05   1.28363753E-05  
  53               3.45268184E-01   3.74967262E+02   8.38211390E-01   1.60490153E-01   7.08149441E-04   4.63240945E-04   5.43428668E-05   3.25540490E-05   2.29842843E-05   1.28363854E-05  
  54               3.90230753E-01   3.89026290E+02   8.38211391E-01   1.60490153E-01   7.08149442E-04   4.63240946E-04   5.43428669E-05   3.25540490E-05   2.29842842E-05   1.28363855E-05  
  55               4.40823855E-01   4.03561477E+02   8.38211392E-01   1.60490151E-01   7.08149442E-04   4.63240945E-04   5.43428668E-05   3.25540490E-05   2.29842840E-05   1.28363855E-05  
  56               4.97699220E-01   4.18530876E+02   8.38211055E-01   1.60490083E-01   7.08149439E-04   4.63240944E-04   5.43428666E-05   3.25540489E-05   2.29842743E-05   1.28363854E-05  
  57               5.61574989E-01   4.34000231E+02   8.38211093E-01   1.60490045E-01   7.08148724E-04   4.63240476E-04   5.43428118E-05   3.25540160E-05   2.29842688E-05   1.28363725E-05  
  58               6.33266800E-01   4.49918471E+02   8.38211071E-01   1.60490028E-01   7.08158931E-04   4.63247153E-04   5.43435950E-05   3.25544852E-05   2.29842664E-05   1.28365575E-05  
  59               7.13657273E-01   4.66357500E+02   8.38210692E-01   1.60489945E-01   7.08158961E-04   4.63247173E-04   5.43435974E-05   3.25544866E-05   2.29842545E-05   1.28365580E-05  
  60               8.03697754E-01   4.83252171E+02   8.38210432E-01   1.60490201E-01   7.08161210E-04   4.63248643E-04   5.43437699E-05   3.25545900E-05   2.29842911E-05   1.28365988E-05  
  61               9.04436633E-01   5.00681193E+02   8.38207773E-01   1.60489604E-01   7.08164835E-04   4.63251015E-04   5.43440481E-05   3.25547566E-05   2.29842056E-05   1.28366645E-05  
  62               1.01709399E+00   5.18585796E+02   8.38208168E-01   1.60489218E-01   7.08160146E-04   4.63247947E-04   5.43436883E-05   3.25545411E-05   2.29841503E-05   1.28365795E-05  
  63               1.14309233E+00   5.37069459E+02   8.38208302E-01   1.60488991E-01   7.08211782E-04   4.63281725E-04   5.43476507E-05   3.25569148E-05   2.29841178E-05   1.28375155E-05  
  64               1.28396956E+00   5.56066498E+02   8.38208640E-01   1.60488653E-01   7.08211570E-04   4.63281587E-04   5.43476345E-05   3.25569051E-05   2.29840695E-05   1.28375116E-05  
  65               1.44133392E+00   5.75666535E+02   8.38209158E-01   1.60488137E-01   7.08210503E-04   4.63280889E-04   5.43475526E-05   3.25568560E-05   2.29839955E-05   1.28374923E-05  
  66               1.61687611E+00   5.95778382E+02   8.38209904E-01   1.60487394E-01   7.08208958E-04   4.63279878E-04   5.43474341E-05   3.25567850E-05   2.29838891E-05   1.28374643E-05  
  67               1.81239320E+00   6.16487824E+02   8.38210919E-01   1.60486383E-01   7.08206850E-04   4.63278499E-04   5.43472723E-05   3.25566881E-05   2.29837444E-05   1.28374261E-05  
  68               2.03004479E+00   6.37714895E+02   8.38212203E-01   1.60485104E-01   7.08204170E-04   4.63276746E-04   5.43470666E-05   3.25565649E-05   2.29835612E-05   1.28373775E-05  
  69               2.27237347E+00   6.59585400E+02   8.38213734E-01   1.60483578E-01   7.08200977E-04   4.63274657E-04   5.43468216E-05   3.25564181E-05   2.29833427E-05   1.28373196E-05  
  70               2.54201425E+00   6.82005863E+02   8.38215435E-01   1.60481883E-01   7.08197412E-04   4.63272325E-04   5.43465480E-05   3.25562542E-05   2.29830999E-05   1.28372550E-05  
  71               2.84164503E+00   7.05074570E+02   8.38217229E-01   1.60480093E-01   7.08193656E-04   4.63269868E-04   5.43462598E-05   3.25560816E-05   2.29828435E-05   1.28371869E-05  
  72               3.17400073E+00   7.28661039E+02   8.38219016E-01   1.60478305E-01   7.08189944E-04   4.63267440E-04   5.43459749E-05   3.25559109E-05   2.29825875E-05   1.28371196E-05  
  73               3.54191748E+00   7.52856599E+02   8.38220700E-01   1.60476570E-01   7.08186429E-04   4.63265141E-04   5.43457052E-05   3.25557493E-05   2.29823390E-05   1.28370559E-05  
  74               3.94911326E+00   7.77566367E+02   8.38222270E-01   1.60474955E-01   7.08184296E-04   4.63263745E-04   5.43455415E-05   3.25556513E-05   2.29821075E-05   1.28370172E-05  
  75               4.40043996E+00   8.02964227E+02   8.38223621E-01   1.60473450E-01   7.08181988E-04   4.63262235E-04   5.43453644E-05   3.25555452E-05   2.29818918E-05   1.28369754E-05  
  76               4.90080210E+00   8.28961827E+02   8.38224739E-01   1.60472081E-01   7.08182488E-04   4.63262563E-04   5.43454028E-05   3.25555682E-05   2.29816952E-05   1.28369845E-05  
  77               5.45501119E+00   8.55666707E+02   8.38225918E-01   1.60470890E-01   7.08184348E-04   4.63263780E-04   5.43455455E-05   3.25556538E-05   2.29815239E-05   1.28370182E-05  
  78               6.06772602E+00   8.82937385E+02   8.38226951E-01   1.60469842E-01   7.08182260E-04   4.63262413E-04   5.43453852E-05   3.25555580E-05   2.29862968E-05   1.28369803E-05  
  79               6.74339756E+00   9.10831816E+02   8.38227835E-01   1.60468914E-01   7.08180521E-04   4.63261276E-04   5.43452518E-05   3.25554791E-05   2.29974071E-05   1.28369488E-05  
  80               7.48659739E+00   9.39196450E+02   8.38228543E-01   1.60468091E-01   7.08179380E-04   4.63260530E-04   5.43451643E-05   3.25554311E-05   2.30242667E-05   1.28369281E-05  
  81               8.30447931E+00   9.68163380E+02   8.38229024E-01   1.60467339E-01   7.08179314E-04   4.63260486E-04   5.43451592E-05   3.25554459E-05   2.30881938E-05   1.28369269E-05  
  82               9.20464871E+00   9.97670669E+02   8.38229137E-01   1.60466616E-01   7.08181426E-04   4.63261868E-04   5.43453213E-05   3.25556106E-05   2.32338866E-05   1.28369652E-05  
  83               1.01945399E+01   1.02777368E+03   8.38228534E-01   1.60465841E-01   7.08188118E-04   4.63266245E-04   5.43458348E-05   3.25561600E-05   2.35515113E-05   1.28370865E-05  
  84               1.12813643E+01   1.05841515E+03   8.38227758E-01   1.60465127E-01   7.08201129E-04   4.63274756E-04   5.43468334E-05   3.25575739E-05   2.42864138E-05   1.28373224E-05  
  85               1.24725435E+01   1.08955639E+03   8.38228374E-01   1.60464508E-01   7.08199325E-04   4.63273573E-04   5.43466953E-05   3.25601073E-05   2.42862506E-05   1.28372898E-05  
  86               1.37759193E+01   1.12120518E+03   8.38229067E-01   1.60463805E-01   7.08197291E-04   4.63272226E-04   5.43465409E-05   3.25679943E-05   2.42860366E-05   1.28372533E-05  
  87               1.52005012E+01   1.15327089E+03   8.38229892E-01   1.60462949E-01   7.08194902E-04   4.63270583E-04   5.43463659E-05   3.25910103E-05   2.42857445E-05   1.28372120E-05  
  88               1.67605134E+01   1.18593422E+03   8.38230922E-01   1.60461840E-01   7.08191885E-04   4.63268253E-04   5.43461721E-05   3.26543537E-05   2.42853343E-05   1.28371662E-05  
  89               1.84703424E+01   1.21911504E+03   8.38232208E-01   1.60460362E-01   7.08187393E-04   4.63263825E-04   5.43459860E-05   3.28193644E-05   2.42847567E-05   1.28371222E-05  
  90               2.03436691E+01   1.25297114E+03   8.38233779E-01   1.60458346E-01   7.08177888E-04   4.63251772E-04   5.43458812E-05   3.32265555E-05   2.42839406E-05   1.28370974E-05  
  91               2.23933440E+01   1.28729115E+03   8.38235533E-01   1.60455620E-01   7.08149724E-04   4.63211913E-04   5.43460330E-05   3.41717668E-05   2.42828058E-05   1.28371331E-05  
  92               2.46312373E+01   1.32222479E+03   8.38237265E-01   1.60451940E-01   7.08055263E-04   4.63077261E-04   5.43467401E-05   3.62018352E-05   2.42812363E-05   1.28372997E-05  
  93               2.70683831E+01   1.35747808E+03   8.38238627E-01   1.60447133E-01   7.07748152E-04   4.62649639E-04   5.43483820E-05   4.01569401E-05   2.42791151E-05   1.28376858E-05  
  94               2.97163902E+01   1.39324326E+03   8.38239656E-01   1.60441049E-01   7.06842806E-04   4.61426302E-04   5.43511170E-05   4.70051184E-05   2.42762665E-05   1.28383265E-05  
  95               3.26026833E+01   1.42938198E+03   8.38241367E-01   1.60433896E-01   7.04492444E-04   4.58356943E-04   5.43544367E-05   5.73703826E-05   2.42724947E-05   1.28390948E-05  
  96               3.57626371E+01   1.46636042E+03   8.38246407E-01   1.60426075E-01   6.99234647E-04   4.51775429E-04   5.43571125E-05   7.12543551E-05   2.42673562E-05   1.28396820E-05  
  97               3.92328264E+01   1.50397891E+03   8.38257598E-01   1.60418336E-01   6.89366074E-04   4.40093815E-04   5.43579077E-05   8.79804194E-05   2.42599730E-05   1.28397519E-05  
  98               4.30469652E+01   1.54261494E+03   8.38276329E-01   1.60411014E-01   6.74319008E-04   4.23299084E-04   5.43575263E-05   1.06989805E-04   2.42339981E-05   1.28393748E-05  
  99               4.72272874E+01   1.58182050E+03   8.38297807E-01   1.60403560E-01   6.55469783E-04   4.03461141E-04   5.43552877E-05   1.27305097E-04   2.42255271E-05   1.28382297E-05  
  100              5.17753615E+01   1.62168178E+03   8.38321267E-01   1.60396306E-01   6.36458575E-04   3.82046538E-04   5.43579350E-05   1.48797053E-04   2.40967263E-05   1.28377784E-05  
  101              5.66745408E+01   1.66146535E+03   8.38252555E-01   1.60371399E-01   6.16002504E-04   3.61114705E-04   5.43500337E-05   1.69724619E-04   2.40795269E-05   1.28327911E-05  
