# ATMO chemical composition profiles
# Chemical abundances given as mole fraction for the 8 most abundant species
# Model Level      Pressure [Ba]    Temperature [K]  H2               He               H                CO               H2O              CH4              N2               H2S             
  1                1.00000000E-05   3.24767595E+02   8.38465894E-01   1.60506431E-01   9.56249061E-31   3.80436188E-04   3.97583191E-04   1.59915312E-04   5.90098361E-05   2.29883991E-05  
  2                1.64210756E-05   3.51797996E+02   8.38467111E-01   1.60505218E-01   3.71272607E-28   3.80434957E-04   3.97581904E-04   1.59914794E-04   5.90096451E-05   2.29882254E-05  
  3                2.41988124E-05   3.65872855E+02   8.38467310E-01   1.60505020E-01   5.40405778E-27   3.80434752E-04   3.97581690E-04   1.59914708E-04   5.90096134E-05   2.29881970E-05  
  4                3.38421353E-05   3.68692802E+02   8.38467127E-01   1.60505202E-01   7.91372189E-27   3.80435056E-04   3.97582007E-04   1.59914836E-04   5.90096604E-05   2.29882231E-05  
  5                4.58421236E-05   3.79072833E+02   8.38466695E-01   1.60504992E-01   4.78563868E-26   3.80434694E-04   3.97581629E-04   1.59914684E-04   5.90096043E-05   2.29881930E-05  
  6                6.07790474E-05   3.81562749E+02   8.38466565E-01   1.60505104E-01   6.53371562E-26   3.80441154E-04   3.97588380E-04   1.59917399E-04   5.90106063E-05   2.29882091E-05  
  7                7.93852150E-05   3.91324179E+02   8.38466668E-01   1.60505002E-01   3.18713152E-25   3.80441072E-04   3.97588294E-04   1.59917365E-04   5.90105936E-05   2.29881944E-05  
  8                1.02558273E-04   3.93930377E+02   8.38466513E-01   1.60505155E-01   4.37320017E-25   3.80441302E-04   3.97588535E-04   1.59917461E-04   5.90106293E-05   2.29882164E-05  
  9                1.31431350E-04   4.03354473E+02   8.38466607E-01   1.60505062E-01   1.83730198E-24   3.80441239E-04   3.97588470E-04   1.59917435E-04   5.90106196E-05   2.29882030E-05  
  10               1.67394662E-04   4.06230924E+02   8.38466455E-01   1.60505203E-01   2.58312731E-24   3.80441656E-04   3.97588905E-04   1.59917610E-04   5.90106842E-05   2.29882232E-05  
  11               2.12194200E-04   4.15634604E+02   8.38464243E-01   1.60504680E-01   9.92710392E-24   3.80440730E-04   3.97587938E-04   1.59917221E-04   5.90105406E-05   2.29881483E-05  
  12               2.67978030E-04   4.18968221E+02   8.38464200E-01   1.60504564E-01   1.46166282E-23   3.80463975E-04   3.97612230E-04   1.59926992E-04   5.90141461E-05   2.29881317E-05  
  13               3.37442771E-04   4.28607457E+02   8.38464226E-01   1.60504537E-01   5.34767235E-23   3.80464553E-04   3.97612834E-04   1.59927235E-04   5.90142358E-05   2.29881278E-05  
  14               4.23873671E-04   4.32825328E+02   8.38463801E-01   1.60504579E-01   8.67956209E-23   3.80466804E-04   3.97615186E-04   1.59928181E-04   5.90145850E-05   2.29881338E-05  
  15               5.31420635E-04   4.42638616E+02   8.38463640E-01   1.60504739E-01   2.98481179E-22   3.80467352E-04   3.97615759E-04   1.59928412E-04   5.90146699E-05   2.29881567E-05  
  16               6.65291514E-04   4.46704521E+02   8.38463524E-01   1.60504855E-01   4.58389819E-22   3.80467561E-04   3.97615977E-04   1.59928499E-04   5.90147023E-05   2.29881733E-05  
  17               8.31922483E-04   4.56755180E+02   8.38463600E-01   1.60504779E-01   1.49972897E-21   3.80467547E-04   3.97615963E-04   1.59928494E-04   5.90147002E-05   2.29881624E-05  
  18               1.03926285E-03   4.61196273E+02   8.38463486E-01   1.60504891E-01   2.33792732E-21   3.80467759E-04   3.97616184E-04   1.59928583E-04   5.90147331E-05   2.29881786E-05  
  19               1.29722278E-03   4.71519487E+02   8.38463556E-01   1.60504821E-01   7.30751769E-21   3.80467757E-04   3.97616182E-04   1.59928582E-04   5.90147328E-05   2.29881686E-05  
  20               1.61808457E-03   4.76134227E+02   8.38463438E-01   1.60504940E-01   1.12455711E-20   3.80467980E-04   3.97616415E-04   1.59928676E-04   5.90147674E-05   2.29881855E-05  
  21               2.01716536E-03   4.86566011E+02   8.38463496E-01   1.60504881E-01   3.29964067E-20   3.80467997E-04   3.97616433E-04   1.59928683E-04   5.90147700E-05   2.29881771E-05  
  22               2.51345354E-03   4.91191053E+02   8.38463364E-01   1.60505012E-01   4.92303682E-20   3.80468240E-04   3.97616688E-04   1.59928785E-04   5.90148078E-05   2.29881959E-05  
  23               3.13060290E-03   5.01619407E+02   8.38463408E-01   1.60504968E-01   1.34637361E-19   3.80468278E-04   3.97616727E-04   1.59928801E-04   5.90148136E-05   2.29881896E-05  
  24               3.89790628E-03   5.06258496E+02   8.38463260E-01   1.60505116E-01   1.95331779E-19   3.80468546E-04   3.97617006E-04   1.59928913E-04   5.90148551E-05   2.29882108E-05  
  25               4.85181928E-03   5.16807395E+02   8.38463293E-01   1.60505083E-01   5.07080824E-19   3.80468600E-04   3.97617063E-04   1.59928936E-04   5.90148635E-05   2.29882060E-05  
  26               6.03775137E-03   5.21448607E+02   8.38463124E-01   1.60505251E-01   7.15997512E-19   3.80468895E-04   3.97617371E-04   1.59929060E-04   5.90149092E-05   2.29882301E-05  
  27               7.51207246E-03   5.32263293E+02   8.38463150E-01   1.60505225E-01   1.79472163E-18   3.80468961E-04   3.97617440E-04   1.59929088E-04   5.90149195E-05   2.29882263E-05  
  28               9.34464119E-03   5.37059363E+02   8.38462961E-01   1.60505412E-01   2.50557216E-18   3.80469282E-04   3.97617776E-04   1.59929223E-04   5.90149694E-05   2.29882532E-05  
  29               1.16220222E-02   5.48163507E+02   8.38462980E-01   1.60505393E-01   6.08105005E-18   3.80469358E-04   3.97617856E-04   1.59929255E-04   5.90149812E-05   2.29882505E-05  
  30               1.44511804E-02   5.53223599E+02   8.38462772E-01   1.60505600E-01   8.47246877E-18   3.80469706E-04   3.97618219E-04   1.59929401E-04   5.90150351E-05   2.29882801E-05  
  31               1.79641776E-02   5.64938398E+02   8.38462793E-01   1.60505579E-01   2.04497504E-17   3.80469783E-04   3.97618300E-04   1.59929434E-04   5.90150470E-05   2.29882771E-05  
  32               2.23234264E-02   5.70487266E+02   8.38462573E-01   1.60505798E-01   2.89093792E-17   3.80470145E-04   3.97618678E-04   1.59929586E-04   5.90151031E-05   2.29883084E-05  
  33               2.77282025E-02   5.83014310E+02   8.38462602E-01   1.60505768E-01   7.01740725E-17   3.80470221E-04   3.97618758E-04   1.59929618E-04   5.90151150E-05   2.29883042E-05  
  34               3.44224970E-02   5.89500887E+02   8.38462388E-01   1.60505981E-01   1.03719633E-16   3.80470580E-04   3.97619133E-04   1.59929769E-04   5.90151707E-05   2.29883347E-05  
  35               4.27040031E-02   6.03205246E+02   8.38462437E-01   1.60505932E-01   2.57965861E-16   3.80470630E-04   3.97619185E-04   1.59929790E-04   5.90151785E-05   2.29883276E-05  
  36               5.29332293E-02   6.10850648E+02   8.38462240E-01   1.60506128E-01   4.01093752E-16   3.80470971E-04   3.97619541E-04   1.59929933E-04   5.90152313E-05   2.29883557E-05  
  37               6.55485478E-02   6.26190989E+02   8.38462322E-01   1.60506046E-01   1.04134595E-15   3.80470993E-04   3.97619564E-04   1.59929942E-04   5.90152347E-05   2.29883439E-05  
  38               8.10843046E-02   6.35493348E+02   8.38462161E-01   1.60506204E-01   1.73809908E-15   3.80471292E-04   3.97619876E-04   1.59930068E-04   5.90152810E-05   2.29883665E-05  
  39               1.00188109E-01   6.52792881E+02   8.38462277E-01   1.60506087E-01   4.71616087E-15   3.80471304E-04   3.97619889E-04   1.59930073E-04   5.90152829E-05   2.29883498E-05  
  40               1.23637725E-01   6.64188513E+02   8.38462159E-01   1.60506193E-01   8.51581010E-15   3.80471544E-04   3.97620140E-04   1.59930174E-04   5.90153202E-05   2.29883650E-05  
  41               1.52370877E-01   6.83932169E+02   8.38462312E-01   1.60506040E-01   2.42650925E-14   3.80471643E-04   3.97620243E-04   1.59930215E-04   5.90153355E-05   2.29883431E-05  
  42               1.87484598E-01   6.97938914E+02   8.38462211E-01   1.60506081E-01   4.76167680E-14   3.80471799E-04   3.97620407E-04   1.59930281E-04   5.90153598E-05   2.29883489E-05  
  43               2.30271198E-01   7.20517807E+02   8.38462390E-01   1.60505900E-01   1.41345975E-13   3.80472515E-04   3.97621155E-04   1.59930582E-04   5.90154708E-05   2.29883229E-05  
  44               2.82246917E-01   7.37735149E+02   8.38462184E-01   1.60505850E-01   3.01562634E-13   3.80472559E-04   3.97621200E-04   1.59930600E-04   5.90154775E-05   2.29883157E-05  
  45               3.45163284E-01   7.63769057E+02   8.38462383E-01   1.60505644E-01   9.29978012E-13   3.80474586E-04   3.97623319E-04   1.59931452E-04   5.90157920E-05   2.29882859E-05  
  46               4.21062569E-01   7.84855075E+02   8.38462274E-01   1.60505544E-01   2.14386989E-12   3.80476937E-04   3.97625776E-04   1.59932441E-04   5.90161567E-05   2.29882713E-05  
  47               5.12456861E-01   8.15152518E+02   8.38462510E-01   1.60505298E-01   6.84477632E-12   3.80476814E-04   3.97625648E-04   1.59932389E-04   5.90161377E-05   2.29894217E-05  
  48               6.22193060E-01   8.41088224E+02   8.38462631E-01   1.60505139E-01   1.69963425E-11   3.80476819E-04   3.97625652E-04   1.59932391E-04   5.90161383E-05   2.29957271E-05  
  49               7.53400797E-01   8.76386949E+02   8.38462929E-01   1.60504723E-01   5.52871270E-11   3.80476770E-04   3.97625601E-04   1.59932370E-04   5.90161308E-05   2.30220930E-05  
  50               9.09329142E-01   9.07673902E+02   8.38463021E-01   1.60504220E-01   1.43563216E-10   3.80477142E-04   3.97625990E-04   1.59932527E-04   5.90161884E-05   2.30895905E-05  
  51               1.09371277E+00   9.48236838E+02   8.38462926E-01   1.60502831E-01   4.60237627E-10   3.80479390E-04   3.97628339E-04   1.59933471E-04   5.90165370E-05   2.33671843E-05  
  52               1.31101379E+00   9.84906457E+02   8.38463038E-01   1.60500856E-01   1.19949472E-09   3.80487815E-04   3.97637139E-04   1.59937011E-04   5.90178432E-05   2.42918519E-05  
  53               1.56627815E+00   1.03038845E+03   8.38467691E-01   1.60496227E-01   3.63651001E-09   3.80482156E-04   3.97631195E-04   1.59934620E-04   5.90169611E-05   2.42910530E-05  
  54               1.86485509E+00   1.07148975E+03   8.38474614E-01   1.60489342E-01   9.02563559E-09   3.80474097E-04   3.97622584E-04   1.59931153E-04   5.90156835E-05   2.42898455E-05  
  55               2.21339156E+00   1.12059912E+03   8.38488919E-01   1.60475087E-01   2.47837470E-08   3.80458192E-04   3.97604937E-04   1.59924018E-04   5.90130697E-05   2.42873157E-05  
  56               2.61937655E+00   1.16457226E+03   8.38505751E-01   1.60458279E-01   5.62477359E-08   3.80443988E-04   3.97584245E-04   1.59915270E-04   5.90100576E-05   2.42841938E-05  
  57               3.09226146E+00   1.21592140E+03   8.38531549E-01   1.60432452E-01   1.37074919E-07   3.80438382E-04   3.97550027E-04   1.59898130E-04   5.90054344E-05   2.42791105E-05  
  58               3.64229828E+00   1.26165856E+03   8.38554296E-01   1.60409551E-01   2.81508229E-07   3.80520923E-04   3.97499906E-04   1.59851198E-04   5.90014345E-05   2.42739630E-05  
  59               4.28237942E+00   1.31468483E+03   8.38581771E-01   1.60381685E-01   6.13755610E-07   3.80898796E-04   3.97341664E-04   1.59634668E-04   5.89966463E-05   2.42665312E-05  
  60               5.02736661E+00   1.36197651E+03   8.38601761E-01   1.60361343E-01   1.15403271E-06   3.82226950E-04   3.96726860E-04   1.58621102E-04   5.89934368E-05   2.42588280E-05  
  61               5.89547596E+00   1.41670777E+03   8.38624232E-01   1.60339549E-01   2.29038767E-06   3.85860665E-04   3.94642037E-04   1.55005327E-04   5.89900766E-05   2.42450903E-05  
  62               6.91453434E+00   1.46578217E+03   8.38642445E-01   1.60325961E-01   4.00344003E-06   3.93689814E-04   3.89124792E-04   1.45423363E-04   5.89877392E-05   2.42210043E-05  
  63               8.12506423E+00   1.52263306E+03   8.38665434E-01   1.60312988E-01   7.35294497E-06   4.07586983E-04   3.78053345E-04   1.26881581E-04   5.89850803E-05   2.41376252E-05  
  64               9.56181393E+00   1.57367964E+03   8.38666702E-01   1.60303001E-01   1.20639308E-05   4.24404326E-04   3.65617980E-04   1.07764076E-04   5.89855690E-05   2.39073942E-05  
  65               1.12309840E+01   1.63202572E+03   8.38673583E-01   1.60295471E-01   2.05994246E-05   4.44610988E-04   3.60216548E-04   8.55356541E-05   5.90081614E-05   2.23516770E-05  
  66               1.30976717E+01   1.68435668E+03   8.38670401E-01   1.60289302E-01   3.19663590E-05   4.57780491E-04   3.50958276E-04   7.28859551E-05   5.90103202E-05   2.22821062E-05  
  67               1.50740694E+01   1.74391259E+03   8.38644582E-01   1.60279869E-01   5.16691949E-05   4.72552213E-04   3.48022805E-04   5.78669207E-05   5.90204996E-05   2.20012315E-05  
  68               1.69544997E+01   1.79942561E+03   8.38566804E-01   1.60266156E-01   7.87931707E-05   4.86341416E-04   3.68253797E-04   4.39244881E-05   5.90617832E-05   2.13577377E-05  
  69               1.85195806E+01   1.84098946E+03   8.38474097E-01   1.60255522E-01   1.06052284E-04   4.96195615E-04   4.10210553E-04   3.40024864E-05   5.91099941E-05   2.06318273E-05  
  70               2.02678134E+01   1.88532457E+03   8.38445175E-01   1.60250955E-01   1.43529323E-04   5.00820781E-04   4.06142306E-04   2.93533451E-05   5.91018687E-05   2.06271336E-05  
  71               2.17593744E+01   1.91975741E+03   8.38405277E-01   1.60245143E-01   1.79497496E-04   5.03678699E-04   4.03243053E-04   2.64525529E-05   5.91075836E-05   2.06201161E-05  
  72               2.29220816E+01   1.94626405E+03   8.38377831E-01   1.60241895E-01   2.12188988E-04   5.05662583E-04   4.01218671E-04   2.44229712E-05   5.90965206E-05   2.06110071E-05  
  73               2.42893961E+01   1.97496330E+03   8.38342972E-01   1.60238076E-01   2.52668166E-04   5.07471254E-04   3.99369539E-04   2.25713281E-05   5.90800314E-05   2.05988232E-05  
  74               2.58966915E+01   2.00813991E+03   8.38295112E-01   1.60233086E-01   3.07423752E-04   5.09357365E-04   3.97428165E-04   2.06205981E-05   5.90509377E-05   2.05790076E-05  
  75               2.70679028E+01   2.03037210E+03   8.38227800E-01   1.60223592E-01   3.48932010E-04   5.10405267E-04   3.96332857E-04   1.95225030E-05   5.90758457E-05   2.05627220E-05  
  76               2.78833830E+01   2.04624763E+03   8.38198701E-01   1.60220757E-01   3.81595909E-04   5.11150201E-04   3.95576770E-04   1.87391120E-05   5.90568287E-05   2.05493409E-05  
  77               2.88618266E+01   2.06373289E+03   8.38164332E-01   1.60217460E-01   4.19965941E-04   5.11851134E-04   3.94840088E-04   1.80035197E-05   5.90362866E-05   2.05337693E-05  
  78               3.00401316E+01   2.08516861E+03   8.38117884E-01   1.60213045E-01   4.71640333E-04   5.12700388E-04   3.93980945E-04   1.71066586E-05   5.90131270E-05   2.05115885E-05  
  79               3.14534404E+01   2.10898025E+03   8.38061223E-01   1.60207765E-01   5.34411265E-04   5.13495287E-04   3.93131405E-04   1.62564910E-05   5.89857662E-05   2.04844893E-05  
  80               3.31381667E+01   2.13715493E+03   8.37985871E-01   1.60200815E-01   6.17651481E-04   5.14381898E-04   3.92175731E-04   1.52998592E-05   5.89536284E-05   2.04471417E-05  
  81               3.51337918E+01   2.16811762E+03   8.37892750E-01   1.60192353E-01   7.20101723E-04   5.15187859E-04   3.91288814E-04   1.44101152E-05   5.89139588E-05   2.04013690E-05  
  82               3.74833876E+01   2.20352526E+03   8.37770889E-01   1.60181373E-01   8.53852058E-04   5.16015415E-04   3.90361500E-04   1.34789171E-05   5.88672723E-05   2.03408381E-05  
  83               4.02336037E+01   2.24189613E+03   8.37619690E-01   1.60167885E-01   1.01935595E-03   5.16733230E-04   3.89526906E-04   1.26364729E-05   5.88102987E-05   2.02670670E-05  
  84               4.34357813E+01   2.28444651E+03   8.37423428E-01   1.60150279E-01   1.23166473E-03   5.17404687E-04   3.88713121E-04   1.18114255E-05   5.87436297E-05   2.01735110E-05  
  85               4.71452480E+01   2.32991806E+03   8.37175058E-01   1.60128881E-01   1.49396240E-03   5.18125330E-04   3.93884903E-04   1.09235735E-05   5.86687018E-05   2.00936503E-05  
  86               5.14250970E+01   2.37902756E+03   8.36872398E-01   1.60102306E-01   1.82363546E-03   5.18569640E-04   3.93413542E-04   1.02603010E-05   5.85770365E-05   1.99576194E-05  
  87               5.63460885E+01   2.43092946E+03   8.36500608E-01   1.60069759E-01   2.22834360E-03   5.18875663E-04   3.93027121E-04   9.69187497E-06   5.84697427E-05   1.97981579E-05  
  88               6.19881553E+01   2.48577742E+03   8.36043839E-01   1.60029856E-01   2.72533467E-03   5.19051053E-04   3.92714000E-04   9.20190527E-06   5.83454969E-05   1.96124354E-05  
  89               6.84406604E+01   2.54326664E+03   8.35488718E-01   1.59981433E-01   3.32913325E-03   5.19084522E-04   3.92484466E-04   8.79309643E-06   5.82020812E-05   1.94002450E-05  
  90               7.58102687E+01   2.60292663E+03   8.34824388E-01   1.59923551E-01   4.05151398E-03   5.18960625E-04   3.92357154E-04   8.47210272E-06   5.80367042E-05   1.91634561E-05  
  91               8.42196542E+01   2.66518313E+03   8.34026661E-01   1.59854097E-01   4.91879218E-03   5.18688615E-04   3.92322632E-04   8.21561148E-06   5.78474246E-05   1.88993055E-05  
  92               9.38116904E+01   2.72890786E+03   8.33096748E-01   1.59773194E-01   5.92957799E-03   5.18234749E-04   3.92427979E-04   8.04992457E-06   5.76300103E-05   1.86158942E-05  
  93               1.04749280E+02   2.79521069E+03   8.31995674E-01   1.59677431E-01   7.12628270E-03   5.17617210E-04   3.92652467E-04   7.93540026E-06   5.73823093E-05   1.83068875E-05  
  94               1.17217744E+02   2.86241262E+03   8.30743500E-01   1.59568584E-01   8.48698679E-03   5.16792127E-04   3.93065493E-04   7.91109915E-06   5.70989149E-05   1.79865920E-05  
  95               1.31421772E+02   2.93214775E+03   8.29283804E-01   1.59441718E-01   1.00730747E-02   5.15777643E-04   3.93642119E-04   7.92859083E-06   5.67766484E-05   1.76447720E-05  
  96               1.47577215E+02   3.00232653E+03   8.27660796E-01   1.59300718E-01   1.18363527E-02   5.14528053E-04   3.94463778E-04   8.03293996E-06   5.64092043E-05   1.73005320E-05  
  97               1.65897378E+02   3.07457180E+03   8.25811584E-01   1.59140086E-01   1.38452318E-02   5.13055545E-04   3.95506925E-04   8.17715752E-06   5.59913910E-05   1.69426270E-05  
  98               1.86544422E+02   3.14669440E+03   8.23802163E-01   1.58965598E-01   1.60278496E-02   5.11328480E-04   3.96836854E-04   8.39921404E-06   5.55168361E-05   1.65908250E-05  
  99               2.09642063E+02   3.21964389E+03   8.21590630E-01   1.58773588E-01   1.84297957E-02   5.09356973E-04   3.98425425E-04   8.66301112E-06   5.49777394E-05   1.62374606E-05  
  100              2.35245204E+02   3.29210060E+03   8.19228319E-01   1.58568533E-01   2.09952164E-02   5.07133817E-04   4.00285468E-04   8.98166385E-06   5.43651915E-05   1.58936333E-05  
  101              2.63333387E+02   3.36356740E+03   8.16741555E-01   1.58352721E-01   2.36955001E-02   5.04667909E-04   4.02392212E-04   9.34839334E-06   5.36680672E-05   1.55625158E-05  
