# ATMO chemical composition profiles
# Chemical abundances given as mole fraction for the 8 most abundant species
# Model Level      Pressure [Ba]    Temperature [K]  H2               He               H                CO               H2O              N2               Mg               H2S             
  1                1.00000000E-05   3.07847161E+02   8.38529254E-01   1.60522256E-01   1.12887587E-32   5.23338222E-04   3.18281959E-04   6.01927749E-05   0.00000000E+00   2.29892251E-05  
  2                1.97926934E-05   3.49056165E+02   8.38533218E-01   1.60518302E-01   1.88177272E-28   5.23332663E-04   3.18278579E-04   6.01921355E-05   0.00000000E+00   2.29886589E-05  
  3                3.11282452E-05   3.66512565E+02   8.38533575E-01   1.60517946E-01   5.40128191E-27   5.23332163E-04   3.18278274E-04   6.01920779E-05   0.00000000E+00   2.29886080E-05  
  4                4.46876955E-05   3.78658474E+02   8.38533697E-01   1.60517824E-01   4.49333671E-26   5.23331999E-04   3.18278174E-04   6.01920591E-05   0.00000000E+00   2.29885905E-05  
  5                6.10331725E-05   3.88742848E+02   8.38533764E-01   1.60517760E-01   2.32708019E-25   5.23330639E-04   3.18277347E-04   6.01919026E-05   0.00000000E+00   2.29885813E-05  
  6                8.07987386E-05   3.97958340E+02   8.38531191E-01   1.60517213E-01   9.68235201E-25   5.23370533E-04   3.18301610E-04   6.01964912E-05   0.00000000E+00   2.29885029E-05  
  7                1.04737756E-04   4.06681095E+02   8.38531467E-01   1.60516931E-01   3.50848592E-24   5.23368958E-04   3.18300652E-04   6.01963100E-05   0.00000000E+00   2.29884626E-05  
  8                1.33752419E-04   4.15254951E+02   8.38531464E-01   1.60516898E-01   1.18016806E-23   5.23369112E-04   3.18300746E-04   6.01963277E-05   0.00000000E+00   2.29884577E-05  
  9                1.68930081E-04   4.23802113E+02   8.38531103E-01   1.60516819E-01   3.76822558E-23   5.23370062E-04   3.18301324E-04   6.01964370E-05   0.00000000E+00   2.29884465E-05  
  10               2.11580606E-04   4.32606303E+02   8.38530850E-01   1.60517066E-01   1.19136111E-22   5.23373535E-04   3.18303436E-04   6.01968365E-05   0.00000000E+00   2.29884819E-05  
  11               2.63335377E-04   4.40552227E+02   8.38530864E-01   1.60517051E-01   3.19962900E-22   5.23373585E-04   3.18303466E-04   6.01968422E-05   0.00000000E+00   2.29884798E-05  
  12               3.26235110E-04   4.48094064E+02   8.38530870E-01   1.60517045E-01   7.85934096E-22   5.23373652E-04   3.18303507E-04   6.01968499E-05   0.00000000E+00   2.29884789E-05  
  13               4.02721655E-04   4.55558988E+02   8.38530873E-01   1.60517043E-01   1.85283876E-21   5.23373730E-04   3.18303555E-04   6.01968589E-05   0.00000000E+00   2.29884785E-05  
  14               4.95761985E-04   4.62810363E+02   8.38530870E-01   1.60517045E-01   4.13136025E-21   5.23373821E-04   3.18303609E-04   6.01968693E-05   0.00000000E+00   2.29884789E-05  
  15               6.08960898E-04   4.70125474E+02   8.38530866E-01   1.60517049E-01   9.03783827E-21   5.23373919E-04   3.18303669E-04   6.01968806E-05   0.00000000E+00   2.29884794E-05  
  16               7.46693045E-04   4.77369919E+02   8.38530859E-01   1.60517055E-01   1.91055592E-20   5.23374026E-04   3.18303734E-04   6.01968929E-05   0.00000000E+00   2.29884804E-05  
  17               9.14263679E-04   4.84819053E+02   8.38530853E-01   1.60517062E-01   4.03243931E-20   5.23374137E-04   3.18303802E-04   6.01969057E-05   0.00000000E+00   2.29884812E-05  
  18               1.11810784E-03   4.92254419E+02   8.38530844E-01   1.60517070E-01   8.28914772E-20   5.23374256E-04   3.18303874E-04   6.01969193E-05   0.00000000E+00   2.29884825E-05  
  19               1.36603610E-03   4.99891765E+02   8.38530835E-01   1.60517079E-01   1.69975461E-19   5.23374379E-04   3.18303949E-04   6.01969335E-05   0.00000000E+00   2.29884837E-05  
  20               1.66752787E-03   5.07511719E+02   8.38530824E-01   1.60517090E-01   3.39665587E-19   5.23374510E-04   3.18304029E-04   6.01969485E-05   0.00000000E+00   2.29884854E-05  
  21               2.03410680E-03   5.15363697E+02   8.38530812E-01   1.60517102E-01   6.78858629E-19   5.23374645E-04   3.18304111E-04   6.01969641E-05   0.00000000E+00   2.29884870E-05  
  22               2.47982486E-03   5.23243145E+02   8.38530798E-01   1.60517115E-01   1.32903263E-18   5.23374787E-04   3.18304197E-04   6.01969805E-05   0.00000000E+00   2.29884889E-05  
  23               3.02177334E-03   5.31282835E+02   8.38530784E-01   1.60517130E-01   2.58251070E-18   5.23374939E-04   3.18304289E-04   6.01969979E-05   0.00000000E+00   2.29884910E-05  
  24               3.68070623E-03   5.39388953E+02   8.38530766E-01   1.60517146E-01   4.93677582E-18   5.23375094E-04   3.18304384E-04   6.01970158E-05   0.00000000E+00   2.29884934E-05  
  25               4.48186759E-03   5.47541406E+02   8.38530747E-01   1.60517166E-01   9.27167051E-18   5.23375257E-04   3.18304483E-04   6.01970345E-05   0.00000000E+00   2.29884962E-05  
  26               5.45589717E-03   5.55730779E+02   8.38530723E-01   1.60517188E-01   1.71036320E-17   5.23375438E-04   3.18304593E-04   6.01970554E-05   0.00000000E+00   2.29884994E-05  
  27               6.63988207E-03   5.64081396E+02   8.38530699E-01   1.60517212E-01   3.13324838E-17   5.23375614E-04   3.18304700E-04   6.01970756E-05   0.00000000E+00   2.29885028E-05  
  28               8.07863001E-03   5.72673951E+02   8.38530674E-01   1.60517237E-01   5.73565129E-17   5.23375796E-04   3.18304811E-04   6.01970965E-05   0.00000000E+00   2.29885063E-05  
  29               9.82620382E-03   5.81480935E+02   8.38530648E-01   1.60517262E-01   1.04608134E-16   5.23375979E-04   3.18304922E-04   6.01971176E-05   0.00000000E+00   2.29885100E-05  
  30               1.19475898E-02   5.90671192E+02   8.38530624E-01   1.60517286E-01   1.92424644E-16   5.23376169E-04   3.18305038E-04   6.01971394E-05   0.00000000E+00   2.29885134E-05  
  31               1.45207563E-02   6.00338627E+02   8.38530601E-01   1.60517308E-01   3.58864138E-16   5.23376352E-04   3.18305149E-04   6.01971604E-05   0.00000000E+00   2.29885165E-05  
  32               1.76390797E-02   6.10542691E+02   8.38530583E-01   1.60517326E-01   6.79863239E-16   5.23376553E-04   3.18305271E-04   6.01971836E-05   0.00000000E+00   2.29885191E-05  
  33               2.14138652E-02   6.21288655E+02   8.38530565E-01   1.60517340E-01   1.30547348E-15   5.23376729E-04   3.18305378E-04   6.01972038E-05   0.00000000E+00   2.29885211E-05  
  34               2.59785268E-02   6.32730190E+02   8.38530555E-01   1.60517350E-01   2.56025527E-15   5.23376973E-04   3.18305526E-04   6.01972318E-05   0.00000000E+00   2.29885225E-05  
  35               3.14941070E-02   6.44990570E+02   8.38530543E-01   1.60517351E-01   5.15029357E-15   5.23377130E-04   3.18305622E-04   6.01972499E-05   0.00000000E+00   2.29885227E-05  
  36               3.81522311E-02   6.57995926E+02   8.38530545E-01   1.60517349E-01   1.05338021E-14   5.23377556E-04   3.18305881E-04   6.01972989E-05   0.00000000E+00   2.29885224E-05  
  37               4.61789101E-02   6.71951475E+02   8.38530519E-01   1.60517333E-01   2.20918780E-14   5.23377670E-04   3.18305951E-04   6.01973121E-05   0.00000000E+00   2.29885201E-05  
  38               5.58388159E-02   6.86991672E+02   8.38530536E-01   1.60517314E-01   4.76377989E-14   5.23378895E-04   3.18306696E-04   6.01974530E-05   0.00000000E+00   2.29885173E-05  
  39               6.74421122E-02   7.03373178E+02   8.38530380E-01   1.60517247E-01   1.06484174E-13   5.23378901E-04   3.18306699E-04   6.01974536E-05   0.00000000E+00   2.29885077E-05  
  40               8.13462303E-02   7.20961363E+02   8.38530419E-01   1.60517201E-01   2.43280356E-13   5.23382526E-04   3.18308904E-04   6.01978705E-05   0.00000000E+00   2.29885011E-05  
  41               9.79565725E-02   7.40198771E+02   8.38530278E-01   1.60517093E-01   5.77055218E-13   5.23382502E-04   3.18308889E-04   6.01978678E-05   0.00000000E+00   2.29884854E-05  
  42               1.17730401E-01   7.61111655E+02   8.38530377E-01   1.60516986E-01   1.41040414E-12   5.23385145E-04   3.18310496E-04   6.01981717E-05   0.00000000E+00   2.29884698E-05  
  43               1.41211842E-01   7.84047723E+02   8.38530550E-01   1.60516805E-01   3.57542345E-12   5.23385043E-04   3.18310435E-04   6.01981600E-05   0.00000000E+00   2.29905473E-05  
  44               1.69040595E-01   8.08888315E+02   8.38530851E-01   1.60516481E-01   9.25745692E-12   5.23384769E-04   3.18310268E-04   6.01981285E-05   0.00000000E+00   2.29956415E-05  
  45               2.01915070E-01   8.36181612E+02   8.38531423E-01   1.60515835E-01   2.47814548E-11   5.23384226E-04   3.18309938E-04   6.01980661E-05   0.00000000E+00   2.30106333E-05  
  46               2.40588886E-01   8.65944549E+02   8.38532526E-01   1.60514489E-01   6.78182772E-11   5.23383435E-04   3.18309457E-04   6.01979751E-05   0.00000000E+00   2.30576134E-05  
  47               2.85855969E-01   8.98455256E+02   8.38534654E-01   1.60511586E-01   1.89442060E-10   5.23383046E-04   3.18309220E-04   6.01979303E-05   0.00000000E+00   2.32089811E-05  
  48               3.38486521E-01   9.33451666E+02   8.38539077E-01   1.60505599E-01   5.29782954E-10   5.23388099E-04   3.18312293E-04   6.01985115E-05   0.00000000E+00   2.36847684E-05  
  49               3.99402042E-01   9.71085549E+02   8.38549417E-01   1.60494083E-01   1.47735805E-09   5.23368895E-04   3.18300613E-04   6.01963027E-05   0.00000000E+00   2.42907955E-05  
  50               4.69731561E-01   1.01101675E+03   8.38569231E-01   1.60474336E-01   4.03885387E-09   5.23336367E-04   3.18280830E-04   6.01925613E-05   3.65187116E-16   2.42876880E-05  
  51               5.50647506E-01   1.05321650E+03   8.38598257E-01   1.60445414E-01   1.07680079E-08   5.23289738E-04   3.18252466E-04   6.01871972E-05   4.17364664E-15   2.42830724E-05  
  52               6.43278694E-01   1.09715978E+03   8.38632950E-01   1.60410834E-01   2.75815297E-08   5.23234930E-04   3.18219099E-04   6.01808885E-05   4.43666502E-14   2.42773809E-05  
  53               7.48717189E-01   1.14278838E+03   8.38667961E-01   1.60375900E-01   6.78170366E-08   5.23180329E-04   3.18185719E-04   6.01745862E-05   4.32792623E-13   2.42712418E-05  
  54               8.68538217E-01   1.18961242E+03   8.38698515E-01   1.60345337E-01   1.58686740E-07   5.23133768E-04   3.18156628E-04   6.01691428E-05   3.73339028E-12   2.42651013E-05  
  55               1.00480529E+00   1.23769996E+03   8.38722835E-01   1.60320861E-01   3.54794186E-07   5.23099241E-04   3.18132766E-04   6.01648745E-05   2.84135075E-11   2.42587658E-05  
  56               1.15960635E+00   1.28666619E+03   8.38740659E-01   1.60302635E-01   7.55162215E-07   5.23079274E-04   3.18112058E-04   6.01617076E-05   1.87597382E-10   2.42514508E-05  
  57               1.33498426E+00   1.33672661E+03   8.38752932E-01   1.60289509E-01   1.54113139E-06   5.23079287E-04   3.18092365E-04   6.01594680E-05   1.09155269E-09   2.42407228E-05  
  58               1.53297941E+00   1.38760032E+03   8.38760349E-01   1.60280345E-01   3.01243602E-06   5.23111985E-04   3.18083009E-04   6.01580647E-05   5.58992171E-09   2.42182004E-05  
  59               1.75628101E+00   1.43960937E+03   8.38762845E-01   1.60273801E-01   5.68252163E-06   5.23199686E-04   3.18143999E-04   6.01573459E-05   2.57360472E-08   2.41500875E-05  
  60               2.00825941E+00   1.49248661E+03   8.38746801E-01   1.60266525E-01   1.03319674E-05   5.23390791E-04   3.18514886E-04   6.01585659E-05   1.06279274E-07   2.39123938E-05  
  61               2.29060222E+00   1.54683265E+03   8.38741422E-01   1.60266005E-01   1.82869566E-05   5.23887716E-04   3.19973938E-04   6.01794241E-05   2.36130089E-07   2.18446620E-05  
  62               2.59973299E+00   1.60111575E+03   8.38726031E-01   1.60262549E-01   3.10731762E-05   5.24366749E-04   3.22874700E-04   6.01810599E-05   1.53072264E-06   2.18146806E-05  
  63               2.92568703E+00   1.65256646E+03   8.38692877E-01   1.60258225E-01   4.96163161E-05   5.25066492E-04   3.29856622E-04   6.01919569E-05   7.23749498E-06   2.16162132E-05  
  64               3.24855194E+00   1.69967307E+03   8.38622073E-01   1.60250629E-01   7.42128362E-05   5.25909275E-04   3.43690967E-04   6.02142446E-05   2.30388675E-05   2.11233347E-05  
  65               3.56002325E+00   1.74110144E+03   8.38533859E-01   1.60248181E-01   1.03675444E-04   5.27019647E-04   3.62858438E-04   6.02779906E-05   6.53478514E-05   2.01784834E-05  
  66               3.84816707E+00   1.77743331E+03   8.38484576E-01   1.60241681E-01   1.37182870E-04   5.27437581E-04   3.71737498E-04   6.02796640E-05   6.52458966E-05   2.01939404E-05  
  67               4.09956960E+00   1.80681138E+03   8.38450594E-01   1.60238186E-01   1.70438071E-04   5.27876737E-04   3.75759099E-04   6.02989878E-05   6.51604261E-05   2.01986777E-05  
  68               4.30095543E+00   1.82981627E+03   8.38421202E-01   1.60235371E-01   2.01069151E-04   5.28059086E-04   3.77320228E-04   6.02985118E-05   6.50925320E-05   2.01967542E-05  
  69               4.53455794E+00   1.85477391E+03   8.38385559E-01   1.60232089E-01   2.39198951E-04   5.28223200E-04   3.78096391E-04   6.02974434E-05   6.50158584E-05   2.01893729E-05  
  70               4.80397642E+00   1.88290525E+03   8.38308738E-01   1.60222089E-01   2.89361122E-04   5.28306056E-04   3.78248123E-04   6.02933672E-05   6.49257478E-05   2.01727302E-05  
  71               5.01223219E+00   1.90326986E+03   8.38270287E-01   1.60218633E-01   3.30705023E-04   5.28720375E-04   3.78412188E-04   6.03450542E-05   6.48596409E-05   2.01565276E-05  
  72               5.16744778E+00   1.91854325E+03   8.38238896E-01   1.60215865E-01   3.65007723E-04   5.28735432E-04   3.78296197E-04   6.03436500E-05   6.48101860E-05   2.01413096E-05  
  73               5.35097363E+00   1.93544473E+03   8.38201283E-01   1.60212552E-01   4.06055679E-04   5.28780722E-04   3.78172258E-04   6.03419204E-05   6.47532276E-05   2.01219309E-05  
  74               5.56697825E+00   1.95539550E+03   8.38152144E-01   1.60208228E-01   4.59611848E-04   5.28845603E-04   3.78044095E-04   6.03396827E-05   6.46860279E-05   2.00947466E-05  
  75               5.81929603E+00   1.97721191E+03   8.38092732E-01   1.60203010E-01   5.24299896E-04   5.28915727E-04   3.77920165E-04   6.03368621E-05   6.46095365E-05   2.00606038E-05  
  76               6.11158115E+00   2.00217437E+03   8.38016188E-01   1.60196298E-01   6.07613097E-04   5.28985486E-04   3.77797545E-04   6.03331171E-05   6.45212681E-05   2.00146374E-05  
  77               6.44895406E+00   2.02905856E+03   8.37923487E-01   1.60188180E-01   7.08553248E-04   5.29044963E-04   3.77646623E-04   6.03280286E-05   6.44221028E-05   1.99576071E-05  
  78               6.83882062E+00   2.05933895E+03   8.37804079E-01   1.60177734E-01   8.38549190E-04   5.29095159E-04   3.77480726E-04   6.03209890E-05   6.43085675E-05   1.98828718E-05  
  79               7.28722265E+00   2.09166128E+03   8.37658430E-01   1.60165005E-01   9.97072652E-04   5.29127952E-04   3.77314131E-04   6.03114674E-05   6.41817328E-05   1.97922130E-05  
  80               7.80073450E+00   2.12728582E+03   8.37472595E-01   1.60148773E-01   1.19930556E-03   5.29144763E-04   3.77135936E-04   6.02984844E-05   6.40385806E-05   1.96775361E-05  
  81               8.38651318E+00   2.16475623E+03   8.37247027E-01   1.60129083E-01   1.44473900E-03   5.29138049E-04   3.76956524E-04   6.02814999E-05   6.38804033E-05   1.95420966E-05  
  82               9.05240929E+00   2.20531447E+03   8.36962562E-01   1.60104261E-01   1.75423259E-03   5.29108283E-04   3.76762595E-04   6.02598884E-05   6.37040143E-05   1.93764908E-05  
  83               9.80707349E+00   2.24739476E+03   8.36620787E-01   1.60074449E-01   2.12604449E-03   5.29049219E-04   3.76564199E-04   6.02335130E-05   6.35110122E-05   1.91865673E-05  
  84               1.06601167E+01   2.29222330E+03   8.36194524E-01   1.60037065E-01   2.58757051E-03   5.28958090E-04   3.76370973E-04   6.02019693E-05   6.32978710E-05   1.89621164E-05  
  85               1.16222178E+01   2.33818620E+03   8.35683703E-01   1.59993043E-01   3.13402239E-03   5.28846330E-04   3.82477844E-04   6.01658544E-05   6.30667121E-05   1.87447011E-05  
  86               1.27047540E+01   2.38649510E+03   8.35071588E-01   1.59939675E-01   3.79970108E-03   5.28682301E-04   3.82356166E-04   6.01229866E-05   6.28140450E-05   1.84584416E-05  
  87               1.39210070E+01   2.43558250E+03   8.34358685E-01   1.59877528E-01   4.57503156E-03   5.28476765E-04   3.82180252E-04   6.00728632E-05   6.25419019E-05   1.81489193E-05  
  88               1.52863828E+01   2.48663052E+03   8.33507674E-01   1.59803345E-01   5.50058825E-03   5.28223259E-04   3.81955760E-04   6.00149721E-05   6.22465172E-05   1.78061244E-05  
  89               1.68179981E+01   2.53820514E+03   8.32532703E-01   1.59718364E-01   6.56096955E-03   5.27922171E-04   3.81694462E-04   5.99486795E-05   6.19300356E-05   1.74450469E-05  
  90               1.85350088E+01   2.59141948E+03   8.31391678E-01   1.59618912E-01   7.80195743E-03   5.27564057E-04   3.81385401E-04   5.98726544E-05   6.15886990E-05   1.70563184E-05  
  91               2.04589471E+01   2.64488720E+03   8.30108538E-01   1.59507081E-01   9.19749790E-03   5.27152446E-04   3.81044276E-04   5.97865246E-05   6.12250206E-05   1.66573170E-05  
  92               2.26140107E+01   2.69972963E+03   8.28635569E-01   1.59378710E-01   1.07994842E-02   5.26675486E-04   3.80658894E-04   5.96884998E-05   6.08350861E-05   1.62384162E-05  
  93               2.50271387E+01   2.75457892E+03   8.27010290E-01   1.59237074E-01   1.25670879E-02   5.26140519E-04   3.80250045E-04   5.95783877E-05   6.04219523E-05   1.58186599E-05  
  94               2.77281916E+01   2.81065398E+03   8.25175486E-01   1.59077184E-01   1.45625350E-02   5.25532405E-04   3.79803392E-04   5.94536368E-05   5.99813642E-05   1.53866460E-05  
  95               3.07499675E+01   2.86655998E+03   8.23185789E-01   1.58903806E-01   1.67263809E-02   5.24863058E-04   3.79346083E-04   5.93141086E-05   5.95171723E-05   1.49624617E-05  
  96               3.41281338E+01   2.92357590E+03   8.20973801E-01   1.58711066E-01   1.91319241E-02   5.24113828E-04   3.78861702E-04   5.91559998E-05   5.90249499E-05   1.45329997E-05  
  97               3.79015239E+01   2.98021030E+03   8.18617463E-01   1.58505761E-01   2.16943646E-02   5.23302748E-04   3.78385299E-04   5.89789720E-05   5.85097016E-05   1.41193905E-05  
  98               4.21122335E+01   3.03789014E+03   8.16032385E-01   1.58280533E-01   2.45054797E-02   5.22405826E-04   3.77895495E-04   5.87768062E-05   5.79665136E-05   1.37057019E-05  
  99               4.68017574E+01   3.09489305E+03   8.13330639E-01   1.58045158E-01   2.74433461E-02   5.21450174E-04   3.77437039E-04   5.85486741E-05   5.74023783E-05   1.33149396E-05  
  100              5.20122357E+01   3.15279067E+03   8.10406945E-01   1.57790455E-01   3.06224596E-02   5.20405678E-04   3.76980026E-04   5.82842420E-05   5.68122848E-05   1.29281927E-05  
  101              5.77890365E+01   3.20980579E+03   8.07399467E-01   1.57528472E-01   3.38925236E-02   5.19306271E-04   3.76574077E-04   5.79808533E-05   5.62043204E-05   1.25679898E-05  
