# ATMO chemical composition profiles
# Chemical abundances given as mole fraction for the 8 most abundant species
# Model Level      Pressure [Ba]    Temperature [K]  H2               He               H2O              CH4              H                NH3              N2               H2S             
  1                1.00000000E-05   5.63136059E+01   8.38113837E-01   1.60471490E-01   7.76163636E-04   5.26669360E-04   3.16312020E-109  4.63293783E-05   3.75699332E-05   2.29824264E-05  
  2                8.32601342E-05   7.00144998E+01   8.38113837E-01   1.60471490E-01   7.76163641E-04   5.26669364E-04   1.09621854E-109  4.63293786E-05   3.75699335E-05   2.29824264E-05  
  3                1.72980978E-04   7.68375219E+01   8.38113837E-01   1.60471490E-01   7.76163642E-04   5.26669364E-04   7.60530301E-110  4.63293787E-05   3.75699335E-05   2.29824264E-05  
  4                2.80155553E-04   8.38940829E+01   8.38113837E-01   1.60471490E-01   7.76163642E-04   5.26669365E-04   5.97607554E-110  4.63293787E-05   3.75699335E-05   2.29824264E-05  
  5                4.07537013E-04   9.01044722E+01   8.38113837E-01   1.60471490E-01   7.76163643E-04   5.26669365E-04   4.95486889E-110  4.63293787E-05   3.75699336E-05   2.29824264E-05  
  6                5.60210783E-04   9.59724005E+01   8.38113837E-01   1.60471490E-01   7.76163643E-04   5.26669365E-04   4.22610189E-110  4.63293787E-05   3.75699336E-05   2.29824264E-05  
  7                7.44075757E-04   1.01409409E+02   8.38109629E-01   1.60470684E-01   7.76161781E-04   5.26668102E-04   1.36926488E-108  4.63292676E-05   3.75698435E-05   2.29823110E-05  
  8                9.66168668E-04   1.06868373E+02   8.38098360E-01   1.60468527E-01   7.76160554E-04   5.26667269E-04   6.00584466E-103  4.63291943E-05   3.75697840E-05   2.29820020E-05  
  9                1.23508660E-03   1.11936397E+02   8.38032535E-01   1.60455923E-01   7.76098044E-04   5.26624853E-04   3.30617633E-98   4.63254631E-05   3.75667583E-05   2.29801970E-05  
  10               1.56133831E-03   1.17047176E+02   8.38113696E-01   1.60471463E-01   7.76257366E-04   5.26732961E-04   7.64650743E-94   4.63349730E-05   3.75744702E-05   2.29824225E-05  
  11               1.95760337E-03   1.21990602E+02   8.38113695E-01   1.60471463E-01   7.76258024E-04   5.26733408E-04   5.66940407E-90   4.63350123E-05   3.75745020E-05   2.29824225E-05  
  12               2.43900459E-03   1.27376233E+02   8.38113695E-01   1.60471463E-01   7.76258024E-04   5.26733408E-04   4.26656113E-86   4.63350123E-05   3.75745021E-05   2.29824225E-05  
  13               3.02371362E-03   1.32803442E+02   8.38113695E-01   1.60471463E-01   7.76258024E-04   5.26733408E-04   1.64715375E-82   4.63350123E-05   3.75745021E-05   2.29824225E-05  
  14               3.73407763E-03   1.38583616E+02   8.38113694E-01   1.60471462E-01   7.76258025E-04   5.26733408E-04   5.34951223E-79   4.63350124E-05   3.75745021E-05   2.29824224E-05  
  15               4.59735324E-03   1.44247517E+02   8.38113688E-01   1.60471461E-01   7.76258025E-04   5.26733408E-04   7.81806267E-76   4.63350124E-05   3.75745021E-05   2.29824223E-05  
  16               5.64654631E-03   1.50237989E+02   8.38113668E-01   1.60471458E-01   7.76258026E-04   5.26733409E-04   9.56699392E-73   4.63350125E-05   3.75745022E-05   2.29824218E-05  
  17               6.92160713E-03   1.56148118E+02   8.38113598E-01   1.60471444E-01   7.76258026E-04   5.26733409E-04   6.19355833E-70   4.63350124E-05   3.75745021E-05   2.29824198E-05  
  18               8.47136098E-03   1.62380858E+02   8.38113395E-01   1.60471405E-01   7.76258054E-04   5.26733428E-04   3.42542154E-67   4.63350141E-05   3.75745035E-05   2.29824143E-05  
  19               1.03552929E-02   1.68541149E+02   8.38112746E-01   1.60471281E-01   7.76258088E-04   5.26733451E-04   1.10505526E-64   4.63350161E-05   3.75745051E-05   2.29823965E-05  
  20               1.26450925E-02   1.75088094E+02   8.38111149E-01   1.60470975E-01   7.76258462E-04   5.26733705E-04   3.28212267E-62   4.63350385E-05   3.75745233E-05   2.29823527E-05  
  21               1.54274865E-02   1.81556074E+02   8.38088959E-01   1.60466727E-01   7.76258972E-04   5.26734051E-04   6.04044278E-60   4.63350689E-05   3.75745479E-05   2.29817442E-05  
  22               1.88068858E-02   1.88444608E+02   8.38113690E-01   1.60471462E-01   7.76261275E-04   5.26735614E-04   1.05327247E-57   4.63352064E-05   3.75746594E-05   2.29824224E-05  
  23               2.29086243E-02   1.95313045E+02   8.37973013E-01   1.60444527E-01   7.76284550E-04   5.26751407E-04   1.25160165E-55   4.63365957E-05   3.75757860E-05   2.29785647E-05  
  24               2.78840781E-02   2.02594201E+02   8.38113647E-01   1.60471453E-01   7.76290427E-04   5.26755395E-04   1.39211157E-53   4.63369465E-05   3.75760705E-05   2.29824212E-05  
  25               3.39171117E-02   2.09749274E+02   8.37626920E-01   1.60378261E-01   7.76414413E-04   5.26839526E-04   1.02960140E-51   4.63443472E-05   3.75820720E-05   2.29690743E-05  
  26               4.12268936E-02   2.17237491E+02   8.38113457E-01   1.60471417E-01   7.76417070E-04   5.26841329E-04   6.87110751E-50   4.63445058E-05   3.75822006E-05   2.29824159E-05  
  27               5.00802731E-02   2.24553551E+02   8.38112783E-01   1.60471288E-01   7.76866173E-04   5.27146070E-04   3.15077706E-48   4.63713129E-05   3.76039393E-05   2.29823975E-05  
  28               6.07982421E-02   2.32184159E+02   8.38112777E-01   1.60471287E-01   7.76870096E-04   5.27148732E-04   1.31579904E-46   4.63715470E-05   3.76041292E-05   2.29823973E-05  
  29               7.37655599E-02   2.39653213E+02   8.38112777E-01   1.60471287E-01   7.76870097E-04   5.27148733E-04   4.00579979E-45   4.63715471E-05   3.76041292E-05   2.29823973E-05  
  30               8.94563942E-02   2.47524381E+02   8.38112777E-01   1.60471287E-01   7.76870098E-04   5.27148734E-04   1.17258302E-43   4.63715472E-05   3.76041293E-05   2.29823973E-05  
  31               1.08439354E-01   2.55319789E+02   8.38112777E-01   1.60471287E-01   7.76870100E-04   5.27148735E-04   2.69057306E-42   4.63715473E-05   3.76041294E-05   2.29823973E-05  
  32               1.31396261E-01   2.63568286E+02   8.38112777E-01   1.60471287E-01   7.76870101E-04   5.27148736E-04   6.05557875E-41   4.63715474E-05   3.76041295E-05   2.29823973E-05  
  33               1.59151578E-01   2.71777402E+02   8.38112777E-01   1.60471287E-01   7.76870103E-04   5.27148737E-04   1.10714737E-39   4.63715475E-05   3.76041295E-05   2.29823973E-05  
  34               1.92705977E-01   2.80508940E+02   8.38112777E-01   1.60471287E-01   7.76870105E-04   5.27148738E-04   2.02245006E-38   4.63715476E-05   3.76041296E-05   2.29823973E-05  
  35               2.33271437E-01   2.89340761E+02   8.38112777E-01   1.60471287E-01   7.76870108E-04   5.27148740E-04   3.18334049E-37   4.63715477E-05   3.76041297E-05   2.29823973E-05  
  36               2.82313612E-01   2.98802615E+02   8.38112777E-01   1.60471287E-01   7.76870110E-04   5.27148742E-04   5.09785511E-36   4.63715479E-05   3.76041299E-05   2.29823973E-05  
  37               3.41585601E-01   3.08431036E+02   8.38112777E-01   1.60471287E-01   7.76870113E-04   5.27148743E-04   7.17354192E-35   4.63715481E-05   3.76041300E-05   2.29823973E-05  
  38               4.13174584E-01   3.18758005E+02   8.38112777E-01   1.60471287E-01   7.76870116E-04   5.27148746E-04   1.02547102E-33   4.63715483E-05   3.76041302E-05   2.29823973E-05  
  39               4.99566807E-01   3.29392934E+02   8.38112777E-01   1.60471287E-01   7.76870120E-04   5.27148748E-04   1.32989191E-32   4.63715485E-05   3.76041303E-05   2.29823973E-05  
  40               6.03725838E-01   3.40897465E+02   8.38112776E-01   1.60471287E-01   7.76870127E-04   5.27148753E-04   1.78022520E-31   4.63715489E-05   3.76041307E-05   2.29823973E-05  
  41               7.29155176E-01   3.52966071E+02   8.38112776E-01   1.60471287E-01   7.76870130E-04   5.27148755E-04   2.25472297E-30   4.63715491E-05   3.76041309E-05   2.29823973E-05  
  42               8.80033022E-01   3.66173981E+02   8.38112773E-01   1.60471286E-01   7.76870148E-04   5.27148767E-04   3.00500918E-29   4.63715502E-05   3.76041317E-05   2.29823972E-05  
  43               1.06138790E+00   3.80210561E+02   8.38112774E-01   1.60471286E-01   7.76870149E-04   5.27148768E-04   3.86866699E-28   4.63715502E-05   3.76041318E-05   2.29823971E-05  
  44               1.27908259E+00   3.95629978E+02   8.38112611E-01   1.60471254E-01   7.76870216E-04   5.27148814E-04   5.21413520E-27   4.63715542E-05   3.76041350E-05   2.29823927E-05  
  45               1.53969468E+00   4.12263090E+02   8.38112627E-01   1.60471239E-01   7.76869904E-04   5.27148602E-04   6.94288430E-26   4.63715356E-05   3.76041199E-05   2.29823904E-05  
  46               1.85049574E+00   4.30787471E+02   8.38112621E-01   1.60471237E-01   7.76874033E-04   5.27151404E-04   9.84906236E-25   4.63717820E-05   3.76043198E-05   2.29823902E-05  
  47               2.22034414E+00   4.50898967E+02   8.38112608E-01   1.60471234E-01   7.76874043E-04   5.27151410E-04   1.37243031E-23   4.63717826E-05   3.76043202E-05   2.29823897E-05  
  48               2.65915541E+00   4.72913675E+02   8.38112208E-01   1.60471166E-01   7.76874091E-04   5.27151443E-04   1.90231676E-22   4.63717855E-05   3.76043226E-05   2.29823800E-05  
  49               3.17745124E+00   4.96499381E+02   8.38108992E-01   1.60470902E-01   7.76875409E-04   5.27152337E-04   2.45681522E-21   4.63718642E-05   3.76043864E-05   2.29823421E-05  
  50               3.78656987E+00   5.22164881E+02   8.38109285E-01   1.60470608E-01   7.76875432E-04   5.27152353E-04   3.06340630E-20   4.63718655E-05   3.76043875E-05   2.29823001E-05  
  51               4.50188462E+00   5.49305733E+02   8.38109218E-01   1.60470559E-01   7.76940703E-04   5.27196643E-04   3.41394457E-19   4.63757616E-05   3.76075469E-05   2.29822931E-05  
  52               5.34121777E+00   5.76666605E+02   8.38109274E-01   1.60470503E-01   7.76940603E-04   5.27196575E-04   3.06879521E-18   4.63757556E-05   3.76075421E-05   2.29822850E-05  
  53               6.32245302E+00   6.05430278E+02   8.38109381E-01   1.60470396E-01   7.76940400E-04   5.27196437E-04   2.48978445E-17   4.63757435E-05   3.76075322E-05   2.29822698E-05  
  54               7.46357783E+00   6.33922717E+02   8.38109552E-01   1.60470226E-01   7.76940050E-04   5.27196199E-04   1.63339709E-16   4.63757226E-05   3.76075153E-05   2.29822453E-05  
  55               8.79017814E+00   6.63502912E+02   8.38109827E-01   1.60469952E-01   7.76939481E-04   5.27195814E-04   9.68817448E-16   4.63756886E-05   3.76074878E-05   2.29822061E-05  
  56               1.03321731E+01   6.92998406E+02   8.38110212E-01   1.60469567E-01   7.76938670E-04   5.27195263E-04   4.89072726E-15   4.63756403E-05   3.76074485E-05   2.29821511E-05  
  57               1.21186620E+01   7.24177658E+02   8.38110772E-01   1.60469007E-01   7.76937476E-04   5.27194453E-04   2.34601979E-14   4.63755690E-05   3.76073907E-05   2.29820708E-05  
  58               1.41780208E+01   7.56200425E+02   8.38111505E-01   1.60468267E-01   7.76935877E-04   5.27193368E-04   1.02414628E-13   4.63754735E-05   3.76073133E-05   2.29819647E-05  
  59               1.65466061E+01   7.91158744E+02   8.38112505E-01   1.60467233E-01   7.76933747E-04   5.27191923E-04   4.47750736E-13   4.63753464E-05   3.76072102E-05   2.29818166E-05  
  60               1.92824838E+01   8.28450710E+02   8.38113627E-01   1.60465897E-01   7.76931268E-04   5.27190240E-04   1.88345745E-12   4.63751984E-05   3.76070902E-05   2.29816250E-05  
  61               2.24414988E+01   8.65842924E+02   8.38114791E-01   1.60464475E-01   7.76929675E-04   5.27189159E-04   6.99346061E-12   4.63751033E-05   3.76070131E-05   2.29814207E-05  
  62               2.60706980E+01   9.05587893E+02   8.38116310E-01   1.60462937E-01   7.76931021E-04   5.27190073E-04   2.50481653E-11   4.63751836E-05   3.76070782E-05   2.29811987E-05  
  63               3.02056640E+01   9.44916279E+02   8.38117692E-01   1.60461497E-01   7.76931661E-04   5.27190507E-04   7.92988459E-11   4.63752219E-05   3.76071092E-05   2.29926251E-05  
  64               3.49077889E+01   9.86454861E+02   8.38119002E-01   1.60460017E-01   7.76928878E-04   5.27188619E-04   2.42476321E-10   4.63750558E-05   3.76069745E-05   2.30290650E-05  
  65               4.02599886E+01   1.02752847E+03   8.38119818E-01   1.60458690E-01   7.76927898E-04   5.27187954E-04   6.67022210E-10   4.63749973E-05   3.76069271E-05   2.31339909E-05  
  66               4.63329407E+01   1.07097878E+03   8.38119781E-01   1.60457267E-01   7.76931002E-04   5.27190060E-04   1.78860550E-09   4.63751825E-05   3.76070773E-05   2.34380504E-05  
  67               5.31844497E+01   1.11356353E+03   8.38119212E-01   1.60456103E-01   7.76951416E-04   5.27203911E-04   4.34515858E-09   4.63764011E-05   3.76080655E-05   2.42850286E-05  
  68               6.08723070E+01   1.15834360E+03   8.38120191E-01   1.60455107E-01   7.76948711E-04   5.27202067E-04   1.03044604E-08   4.63762400E-05   3.76079349E-05   2.42847647E-05  
  69               6.95235862E+01   1.20101372E+03   8.38120915E-01   1.60454332E-01   7.76946650E-04   5.27200607E-04   2.19672085E-08   4.63761204E-05   3.76078379E-05   2.42844698E-05  
  70               7.93043153E+01   1.24241689E+03   8.38121424E-01   1.60453691E-01   7.76944990E-04   5.27199092E-04   4.33530402E-08   4.63760435E-05   3.76077757E-05   2.42841056E-05  
  71               9.03505505E+01   1.28307687E+03   8.38121719E-01   1.60453115E-01   7.76942870E-04   5.27195643E-04   8.06600859E-08   4.63760376E-05   3.76077718E-05   2.42836298E-05  
  72               1.02770842E+02   1.32370265E+03   8.38121821E-01   1.60452536E-01   7.76934797E-04   5.27181422E-04   1.44002522E-07   4.63761107E-05   3.76078351E-05   2.42829838E-05  
  73               1.16649567E+02   1.36475711E+03   8.38121789E-01   1.60451908E-01   7.76900149E-04   5.27125462E-04   2.49356755E-07   4.63762436E-05   3.76079592E-05   2.42820925E-05  
  74               1.32087520E+02   1.40689692E+03   8.38121746E-01   1.60451185E-01   7.76776500E-04   5.26939510E-04   4.23555832E-07   4.63763953E-05   3.76081447E-05   2.42808369E-05  
  75               1.49364472E+02   1.45064431E+03   8.38121934E-01   1.60450363E-01   7.76404902E-04   5.26420380E-04   7.10449613E-07   4.63763712E-05   3.76083545E-05   2.42790299E-05  
  76               1.68709447E+02   1.49647506E+03   8.38122745E-01   1.60449447E-01   7.75499067E-04   5.25258999E-04   1.18261505E-06   4.63757505E-05   3.76086567E-05   2.42763107E-05  
  77               1.90262623E+02   1.54441956E+03   8.38124381E-01   1.60448415E-01   7.73800892E-04   5.23256536E-04   1.95171592E-06   4.63732966E-05   3.76093286E-05   2.42719023E-05  
  78               2.14084278E+02   1.59463386E+03   8.38126596E-01   1.60447126E-01   7.71247221E-04   5.20382720E-04   3.19553657E-06   4.63660011E-05   3.76113410E-05   2.42637937E-05  
  79               2.40186906E+02   1.64457542E+03   8.38128637E-01   1.60445616E-01   7.68172881E-04   5.16857575E-04   5.05476746E-06   4.63485092E-05   3.76162780E-05   2.42478688E-05  
  80               2.68621023E+02   1.69458345E+03   8.38114005E-01   1.60440740E-01   7.64884397E-04   5.12646193E-04   7.77678866E-06   4.63145795E-05   3.76242724E-05   2.42131710E-05  
  81               2.99601124E+02   1.74424329E+03   8.38097276E-01   1.60438673E-01   7.80358519E-04   5.07316042E-04   1.16203324E-05   4.62969143E-05   3.76486733E-05   2.33999650E-05  
  82               3.33384462E+02   1.79419681E+03   8.38098337E-01   1.60436362E-01   7.75398568E-04   5.01821750E-04   1.69987366E-05   4.62946409E-05   3.76359528E-05   2.34047328E-05  
  83               3.70200356E+02   1.84397714E+03   8.38097200E-01   1.60433670E-01   7.70283703E-04   4.95864873E-04   2.42896018E-05   4.64059631E-05   3.75695409E-05   2.34034587E-05  
  84               4.10217031E+02   1.89402127E+03   8.38091796E-01   1.60430410E-01   7.65987661E-04   4.89368804E-04   3.40841265E-05   4.66407035E-05   3.74349666E-05   2.33832812E-05  
  85               4.53533349E+02   1.94371403E+03   8.38076561E-01   1.60426071E-01   7.64789387E-04   4.82436061E-04   4.68258648E-05   4.70061383E-05   3.72275348E-05   2.33221508E-05  
  86               4.99878021E+02   1.99303690E+03   8.38041946E-01   1.60419586E-01   7.70625945E-04   4.74780433E-04   6.31165048E-05   4.74554306E-05   3.69713729E-05   2.31813304E-05  
  87               5.48128359E+02   2.04037976E+03   8.37979119E-01   1.60410243E-01   7.88255144E-04   4.66358311E-04   8.28149476E-05   4.79869341E-05   3.66696304E-05   2.29303528E-05  
  88               6.01382681E+02   2.08911960E+03   8.37884993E-01   1.60399951E-01   8.31834545E-04   4.55362563E-04   1.08041012E-04   4.85967000E-05   3.63236528E-05   2.24748015E-05  
  89               6.57716919E+02   2.13671628E+03   8.37861627E-01   1.60394827E-01   8.25266119E-04   4.48273222E-04   1.38265655E-04   4.92923580E-05   3.59310609E-05   2.24699683E-05  
  90               7.16255454E+02   2.18303931E+03   8.37836627E-01   1.60390124E-01   8.19056352E-04   4.41473680E-04   1.73847526E-04   5.00183431E-05   3.55197322E-05   2.24608977E-05  
  91               7.83779392E+02   2.23249152E+03   8.37802420E-01   1.60384616E-01   8.12828573E-04   4.34516778E-04   2.19393180E-04   5.08811694E-05   3.50313115E-05   2.24468530E-05  
  92               8.50853569E+02   2.27845861E+03   8.37751952E-01   1.60376864E-01   8.07342769E-04   4.28251547E-04   2.69700094E-04   5.17292756E-05   3.45481637E-05   2.24293142E-05  
  93               9.12984039E+02   2.31821838E+03   8.37708902E-01   1.60371213E-01   8.02977306E-04   4.23115176E-04   3.20015749E-04   5.25221947E-05   3.40972131E-05   2.24114596E-05  
  94               9.85649732E+02   2.36227734E+03   8.37648955E-01   1.60364538E-01   8.03018149E-04   4.17114118E-04   3.84017956E-04   5.34263594E-05   3.35807327E-05   2.23958954E-05  
  95               1.07039825E+03   2.41005526E+03   8.37580522E-01   1.60356833E-01   7.98760324E-04   4.11507312E-04   4.63915349E-04   5.44797895E-05   3.29787913E-05   2.23674912E-05  
  96               1.13986052E+03   2.44710630E+03   8.37489626E-01   1.60344564E-01   7.95700824E-04   4.07326388E-04   5.34157472E-04   5.53169936E-05   3.24958373E-05   2.23419621E-05  
  97               1.19244937E+03   2.47373306E+03   8.37440953E-01   1.60339750E-01   7.93744820E-04   4.04504962E-04   5.89310441E-04   5.59489914E-05   3.21333770E-05   2.23230295E-05  
  98               1.25455284E+03   2.50422050E+03   8.37380472E-01   1.60333629E-01   7.91615328E-04   4.01330627E-04   6.57714579E-04   5.66730576E-05   3.17157896E-05   2.22997783E-05  
  99               1.32755396E+03   2.53817748E+03   8.37306619E-01   1.60326385E-01   7.89555095E-04   3.98037781E-04   7.40490386E-04   5.75203560E-05   3.12280671E-05   2.22725528E-05  
  100              1.41298871E+03   2.57624946E+03   8.37215211E-01   1.60317599E-01   7.87457643E-04   3.94464469E-04   8.42357567E-04   5.84774262E-05   3.06742977E-05   2.22398663E-05  
  101              1.51257365E+03   2.61792061E+03   8.37104336E-01   1.60307230E-01   7.85599754E-04   3.90873445E-04   9.64972082E-04   5.95749111E-05   3.00399143E-05   2.22022165E-05  
