# ATMO chemical composition profiles
# Chemical abundances given as mole fraction for the 8 most abundant species
# Model Level      Pressure [Ba]    Temperature [K]  H2               He               H2O              CH4              NH3              H                N2               H2S             
  1                1.00000000E-05   3.96761077E+01   8.38101455E-01   1.60469119E-01   7.78783216E-04   5.29249281E-04   6.64893341E-05   3.16307184E-109  2.74977748E-05   2.29805740E-05  
  2                5.70686492E-05   5.13286754E+01   8.38101454E-01   1.60469119E-01   7.78783989E-04   5.29249807E-04   6.64894002E-05   1.32406791E-109  2.74978021E-05   2.29805739E-05  
  3                1.15131271E-04   5.54229517E+01   8.38101454E-01   1.60469119E-01   7.78784180E-04   5.29249937E-04   6.64894165E-05   9.32207100E-110  2.74978089E-05   2.29805739E-05  
  4                1.86676880E-04   5.92272084E+01   8.38101454E-01   1.60469119E-01   7.78784283E-04   5.29250006E-04   6.64894252E-05   7.32088844E-110  2.74978125E-05   2.29805739E-05  
  5                2.74798548E-04   6.19239142E+01   8.38101454E-01   1.60469119E-01   7.78784353E-04   5.29250054E-04   6.64894312E-05   6.03395182E-110  2.74978149E-05   2.29805739E-05  
  6                3.83298319E-04   6.52961123E+01   8.38101454E-01   1.60469119E-01   7.78784407E-04   5.29250091E-04   6.64894359E-05   5.10905523E-110  2.74978169E-05   2.29805739E-05  
  7                5.16857154E-04   6.76360533E+01   8.38101454E-01   1.60469119E-01   7.78784453E-04   5.29250122E-04   6.64894398E-05   4.39970735E-110  2.74978185E-05   2.29805739E-05  
  8                6.81204200E-04   7.07765534E+01   8.38101454E-01   1.60469119E-01   7.78784493E-04   5.29250149E-04   6.64894432E-05   3.83239616E-110  2.74978199E-05   2.29805739E-05  
  9                8.83090375E-04   7.29900211E+01   8.38101453E-01   1.60469119E-01   7.78784527E-04   5.29250172E-04   6.64894461E-05   3.36594085E-110  2.74978211E-05   2.29805739E-05  
  10               1.12984045E-03   7.64196775E+01   8.38101453E-01   1.60469119E-01   7.78784553E-04   5.29250190E-04   6.64894483E-05   2.97577777E-110  2.74978220E-05   2.29805739E-05  
  11               1.43000396E-03   7.90476132E+01   8.38101453E-01   1.60469119E-01   7.78784567E-04   5.29250199E-04   6.64894495E-05   2.64508989E-110  2.74978225E-05   2.29805739E-05  
  12               1.79399411E-03   8.28569550E+01   8.38101453E-01   1.60469119E-01   7.78784577E-04   5.29250206E-04   6.64894503E-05   2.36155763E-110  2.74978229E-05   2.29805739E-05  
  13               2.23472688E-03   8.56858324E+01   8.38101453E-01   1.60469119E-01   7.78784583E-04   5.29250210E-04   6.64894509E-05   2.11590824E-110  2.74978231E-05   2.29805739E-05  
  14               2.76866454E-03   8.97700370E+01   8.38101453E-01   1.60469119E-01   7.78784590E-04   5.29250215E-04   6.64894514E-05   1.90096397E-110  2.74978233E-05   2.29805739E-05  
  15               3.41610248E-03   9.27880630E+01   8.38101453E-01   1.60469119E-01   7.78784597E-04   5.29250220E-04   6.64894520E-05   1.71136880E-110  2.74978236E-05   2.29805739E-05  
  16               4.20153251E-03   9.72418422E+01   8.38101453E-01   1.60469119E-01   7.78784605E-04   5.29250225E-04   6.64894527E-05   1.54313951E-110  2.74978238E-05   2.29805739E-05  
  17               5.15442042E-03   1.00577955E+02   8.38101048E-01   1.60469041E-01   7.78784255E-04   5.29249987E-04   6.64894229E-05   6.22360593E-110  2.74978115E-05   2.29805628E-05  
  18               6.31021198E-03   1.05559872E+02   8.38100546E-01   1.60468945E-01   7.78785001E-04   5.29250495E-04   6.64894866E-05   1.14469358E-104  2.74978379E-05   2.29805490E-05  
  19               7.71243309E-03   1.09260277E+02   8.38086599E-01   1.60466274E-01   7.78780916E-04   5.29247718E-04   6.64891378E-05   4.42003354E-101  2.74976936E-05   2.29801666E-05  
  20               9.41395151E-03   1.14709492E+02   8.38101431E-01   1.60469114E-01   7.78799679E-04   5.29260469E-04   6.64907397E-05   3.33112135E-96   2.74983561E-05   2.29805733E-05  
  21               1.14781763E-02   1.18827886E+02   8.38015682E-01   1.60452696E-01   7.78777963E-04   5.29245711E-04   6.64888857E-05   7.93331835E-93   2.74975893E-05   2.29782221E-05  
  22               1.39815865E-02   1.24858870E+02   8.38101412E-01   1.60469111E-01   7.78812244E-04   5.29269008E-04   6.64918125E-05   2.87503169E-88   2.74987998E-05   2.29805728E-05  
  23               1.70169516E-02   1.29439871E+02   8.38101309E-01   1.60469091E-01   7.78880210E-04   5.29315197E-04   6.64976151E-05   4.22261948E-85   2.75011995E-05   2.29805699E-05  
  24               2.06968343E-02   1.36039868E+02   8.38101309E-01   1.60469091E-01   7.78880233E-04   5.29315213E-04   6.64976171E-05   6.73060594E-81   2.75012004E-05   2.29805699E-05  
  25               2.51568156E-02   1.41196673E+02   8.38101308E-01   1.60469091E-01   7.78880259E-04   5.29315231E-04   6.64976193E-05   6.71285968E-78   2.75012013E-05   2.29805699E-05  
  26               3.05606765E-02   1.48453891E+02   8.38101306E-01   1.60469090E-01   7.78880289E-04   5.29315251E-04   6.64976219E-05   5.09998856E-74   2.75012023E-05   2.29805699E-05  
  27               3.71064255E-02   1.54163103E+02   8.38101290E-01   1.60469087E-01   7.78880309E-04   5.29315264E-04   6.64976236E-05   3.10913605E-71   2.75012030E-05   2.29805694E-05  
  28               4.50346631E-02   1.61968526E+02   8.38101256E-01   1.60469081E-01   7.78880379E-04   5.29315312E-04   6.64976295E-05   9.86653750E-68   2.75012055E-05   2.29805685E-05  
  29               5.46368162E-02   1.68146939E+02   8.38101037E-01   1.60469039E-01   7.78880228E-04   5.29315209E-04   6.64976166E-05   3.34561301E-65   2.75012002E-05   2.29805625E-05  
  30               6.62632346E-02   1.76476112E+02   8.38100626E-01   1.60468960E-01   7.78880762E-04   5.29315572E-04   6.64976622E-05   4.63453353E-62   2.75012190E-05   2.29805512E-05  
  31               8.03362127E-02   1.83227601E+02   8.38098330E-01   1.60468521E-01   7.78878729E-04   5.29314190E-04   6.64974887E-05   9.83633023E-60   2.75011472E-05   2.29804883E-05  
  32               9.73685788E-02   1.92126022E+02   8.38094348E-01   1.60467758E-01   7.78884283E-04   5.29317965E-04   6.64979628E-05   6.59758665E-57   2.75013434E-05   2.29803791E-05  
  33               1.17967447E-01   1.99631961E+02   8.38026055E-01   1.60454682E-01   7.78866545E-04   5.29305910E-04   6.64964485E-05   9.97515135E-55   2.75007170E-05   2.29785065E-05  
  34               1.42863635E-01   2.08993731E+02   8.38101187E-01   1.60469067E-01   7.78960935E-04   5.29370056E-04   6.65045071E-05   3.19836495E-52   2.75040498E-05   2.29805666E-05  
  35               1.72947894E-01   2.16818903E+02   8.37952222E-01   1.60440546E-01   7.78806732E-04   5.29265263E-04   6.64913419E-05   2.65760228E-50   2.74986051E-05   2.29764820E-05  
  36               2.09310605E-01   2.26346144E+02   8.37680553E-01   1.60388530E-01   7.79100554E-04   5.29464940E-04   6.65164272E-05   3.87444437E-48   2.75089796E-05   2.29690329E-05  
  37               2.53275926E-01   2.34359185E+02   8.38101031E-01   1.60469038E-01   7.79064410E-04   5.29440377E-04   6.65133414E-05   1.83466977E-46   2.75077034E-05   2.29805623E-05  
  38               3.06458956E-01   2.43967179E+02   8.38100380E-01   1.60468913E-01   7.79494999E-04   5.29732998E-04   6.65501033E-05   1.35552327E-44   2.75229069E-05   2.29805445E-05  
  39               3.70843942E-01   2.52198933E+02   8.38100380E-01   1.60468913E-01   7.79495059E-04   5.29733039E-04   6.65501084E-05   4.09000288E-43   2.75229090E-05   2.29805445E-05  
  40               4.48870610E-01   2.62168155E+02   8.38100380E-01   1.60468913E-01   7.79495117E-04   5.29733079E-04   6.65501134E-05   1.92713889E-41   2.75229111E-05   2.29805445E-05  
  41               5.43459919E-01   2.71049945E+02   8.38100380E-01   1.60468913E-01   7.79495180E-04   5.29733121E-04   6.65501187E-05   4.62563870E-40   2.75229133E-05   2.29805445E-05  
  42               6.58094776E-01   2.81868568E+02   8.38100380E-01   1.60468913E-01   7.79495247E-04   5.29733167E-04   6.65501244E-05   1.71738950E-38   2.75229156E-05   2.29805445E-05  
  43               7.96913502E-01   2.91876162E+02   8.38100379E-01   1.60468913E-01   7.79495318E-04   5.29733215E-04   6.65501305E-05   3.78314380E-37   2.75229182E-05   2.29805445E-05  
  44               9.64937488E-01   3.04088871E+02   8.38100379E-01   1.60468913E-01   7.79495394E-04   5.29733267E-04   6.65501370E-05   1.26758264E-35   2.75229208E-05   2.29805444E-05  
  45               1.16824452E+00   3.15840689E+02   8.38100379E-01   1.60468913E-01   7.79495475E-04   5.29733322E-04   6.65501439E-05   2.85169925E-34   2.75229237E-05   2.29805444E-05  
  46               1.41396683E+00   3.30020725E+02   8.38100379E-01   1.60468913E-01   7.79495563E-04   5.29733382E-04   6.65501515E-05   9.19818095E-33   2.75229268E-05   2.29805444E-05  
  47               1.71032468E+00   3.44217793E+02   8.38100379E-01   1.60468913E-01   7.79495657E-04   5.29733446E-04   6.65501595E-05   2.22298544E-31   2.75229301E-05   2.29805444E-05  
  48               2.06710365E+00   3.61529117E+02   8.38100248E-01   1.60468888E-01   7.79495769E-04   5.29733521E-04   6.65501690E-05   7.80117386E-30   2.75229341E-05   2.29805408E-05  
  49               2.49617139E+00   3.79594085E+02   8.38100261E-01   1.60468875E-01   7.79495591E-04   5.29733400E-04   6.65501538E-05   2.25479327E-28   2.75229278E-05   2.29805391E-05  
  50               3.01067101E+00   4.01316953E+02   8.38100254E-01   1.60468874E-01   7.79499830E-04   5.29736281E-04   6.65505157E-05   8.71537790E-27   2.75230775E-05   2.29805389E-05  
  51               3.62437252E+00   4.24600656E+02   8.38100254E-01   1.60468874E-01   7.79499969E-04   5.29736376E-04   6.65505276E-05   2.88987849E-25   2.75230824E-05   2.29805389E-05  
  52               4.35399716E+00   4.48321496E+02   8.38100246E-01   1.60468872E-01   7.79500124E-04   5.29736481E-04   6.65505408E-05   7.00566801E-24   2.75230879E-05   2.29805386E-05  
  53               5.21913455E+00   4.73680666E+02   8.38099842E-01   1.60468801E-01   7.79500304E-04   5.29736604E-04   6.65505562E-05   1.48602889E-22   2.75230942E-05   2.29805284E-05  
  54               6.24037210E+00   4.99409957E+02   8.38096581E-01   1.60468538E-01   7.79502086E-04   5.29737814E-04   6.65507083E-05   2.38895589E-21   2.75231571E-05   2.29804908E-05  
  55               7.43971524E+00   5.26761593E+02   8.38096869E-01   1.60468251E-01   7.79502108E-04   5.29737829E-04   6.65507102E-05   3.39659146E-20   2.75231579E-05   2.29804496E-05  
  56               8.84722844E+00   5.54446630E+02   8.38096779E-01   1.60468222E-01   7.79567915E-04   5.29782551E-04   6.65563286E-05   3.80290593E-19   2.75254815E-05   2.29804455E-05  
  57               1.04979254E+01   5.83950872E+02   8.38096799E-01   1.60468202E-01   7.79568154E-04   5.29782713E-04   6.65563490E-05   3.87695469E-18   2.75254899E-05   2.29804426E-05  
  58               1.24267292E+01   6.10949055E+02   8.38096829E-01   1.60468171E-01   7.79568404E-04   5.29782883E-04   6.65563703E-05   2.63505946E-17   2.75254987E-05   2.29804382E-05  
  59               1.46669086E+01   6.39951146E+02   8.38096884E-01   1.60468116E-01   7.79568643E-04   5.29783046E-04   6.65563907E-05   1.72666247E-16   2.75255072E-05   2.29804303E-05  
  60               1.72619484E+01   6.68353558E+02   8.38096963E-01   1.60468036E-01   7.79568859E-04   5.29783192E-04   6.65564091E-05   9.23694290E-16   2.75255148E-05   2.29804188E-05  
  61               2.02689383E+01   7.00394161E+02   8.38097105E-01   1.60467892E-01   7.79569012E-04   5.29783297E-04   6.65564222E-05   5.22989958E-15   2.75255202E-05   2.29803983E-05  
  62               2.37400899E+01   7.33725005E+02   8.38097324E-01   1.60467672E-01   7.79569013E-04   5.29783297E-04   6.65564223E-05   2.70014016E-14   2.75255202E-05   2.29803667E-05  
  63               2.77269618E+01   7.68774181E+02   8.38097648E-01   1.60467339E-01   7.79568836E-04   5.29783177E-04   6.65564072E-05   1.30077375E-13   2.75255140E-05   2.29803190E-05  
  64               3.22951411E+01   8.03892787E+02   8.38098059E-01   1.60466898E-01   7.79568552E-04   5.29782984E-04   6.65563830E-05   5.45746877E-13   2.75255040E-05   2.29802558E-05  
  65               3.75597143E+01   8.41038563E+02   8.38098468E-01   1.60466273E-01   7.79568327E-04   5.29782831E-04   6.65563637E-05   2.18260465E-12   2.75254960E-05   2.29801660E-05  
  66               4.36282565E+01   8.78558055E+02   8.38098941E-01   1.60465531E-01   7.79569071E-04   5.29783337E-04   6.65564273E-05   7.82906455E-12   2.75255223E-05   2.29800590E-05  
  67               5.05821900E+01   9.18019835E+02   8.38099770E-01   1.60464680E-01   7.79572639E-04   5.29785761E-04   6.65567319E-05   2.67937323E-11   2.75256483E-05   2.29799356E-05  
  68               5.84731537E+01   9.57352171E+02   8.38100617E-01   1.60463782E-01   7.79575435E-04   5.29787661E-04   6.65569706E-05   8.22618642E-11   2.75257470E-05   2.29898071E-05  
  69               6.73757579E+01   9.98164768E+02   8.38101476E-01   1.60462794E-01   7.79574634E-04   5.29787117E-04   6.65569022E-05   2.39822652E-10   2.75257187E-05   2.30180792E-05  
  70               7.74490567E+01   1.03890013E+03   8.38102095E-01   1.60461807E-01   7.79575158E-04   5.29787473E-04   6.65569469E-05   6.39469931E-10   2.75257372E-05   2.30960622E-05  
  71               8.88288063E+01   1.08127904E+03   8.38101843E-01   1.60460651E-01   7.79578699E-04   5.29789880E-04   6.65572493E-05   1.63916229E-09   2.75258623E-05   2.33081923E-05  
  72               1.01615853E+02   1.12344896E+03   8.38100890E-01   1.60459609E-01   7.79602143E-04   5.29805811E-04   6.65592508E-05   3.88513069E-09   2.75266900E-05   2.42855788E-05  
  73               1.15905554E+02   1.16688726E+03   8.38101727E-01   1.60458756E-01   7.79600821E-04   5.29804907E-04   6.65591381E-05   8.84798431E-09   2.75266434E-05   2.42853599E-05  
  74               1.31848248E+02   1.21001089E+03   8.38102440E-01   1.60458002E-01   7.79599753E-04   5.29804142E-04   6.65590482E-05   1.88376150E-08   2.75266063E-05   2.42850998E-05  
  75               1.49720768E+02   1.25462003E+03   8.38103083E-01   1.60457266E-01   7.79598996E-04   5.29803382E-04   6.65589925E-05   3.89444197E-08   2.75265838E-05   2.42847485E-05  
  76               1.69772212E+02   1.29933502E+03   8.38103570E-01   1.60456601E-01   7.79598262E-04   5.29801513E-04   6.65589880E-05   7.65033347E-08   2.75265846E-05   2.42842782E-05  
  77               1.92192200E+02   1.34533227E+03   8.38103941E-01   1.60455939E-01   7.79594829E-04   5.29792637E-04   6.65590163E-05   1.46064853E-07   2.75266092E-05   2.42836064E-05  
  78               2.17132552E+02   1.39045876E+03   8.38104139E-01   1.60455352E-01   7.79577351E-04   5.29754149E-04   6.65590502E-05   2.63340284E-07   2.75266798E-05   2.42827011E-05  
  79               2.44817835E+02   1.43761118E+03   8.38104299E-01   1.60454708E-01   7.79507970E-04   5.29621184E-04   6.65589320E-05   4.68743013E-07   2.75268541E-05   2.42813637E-05  
  80               2.75590226E+02   1.48433534E+03   8.38104482E-01   1.60454122E-01   7.79296813E-04   5.29269214E-04   6.65582195E-05   7.98210298E-07   2.75273616E-05   2.42794912E-05  
  81               3.09982308E+02   1.53324245E+03   8.38104832E-01   1.60453490E-01   7.78825711E-04   5.28582658E-04   6.65556628E-05   1.34571481E-06   2.75289384E-05   2.42765565E-05  
  82               3.48350154E+02   1.58175861E+03   8.38105135E-01   1.60452886E-01   7.78104800E-04   5.27614800E-04   6.65482325E-05   2.18162370E-06   2.75334273E-05   2.42718756E-05  
  83               3.90851807E+02   1.63202715E+03   8.38105177E-01   1.60452144E-01   7.77125241E-04   5.26329303E-04   6.65291870E-05   3.49073520E-06   2.75445809E-05   2.42630585E-05  
  84               4.37465831E+02   1.68124376E+03   8.38087800E-01   1.60448134E-01   7.76187958E-04   5.24817293E-04   6.64914081E-05   5.36673405E-06   2.75640877E-05   2.42453912E-05  
  85               4.88027706E+02   1.73124979E+03   8.38067364E-01   1.60447195E-01   7.95423246E-04   5.22779268E-04   6.64697889E-05   8.10032891E-06   2.76035299E-05   2.34195331E-05  
  86               5.41960663E+02   1.77916264E+03   8.38066180E-01   1.60446227E-01   7.93653599E-04   5.20766976E-04   6.64626932E-05   1.17298154E-05   2.76009978E-05   2.34348998E-05  
  87               5.99577553E+02   1.82733789E+03   8.38063366E-01   1.60444982E-01   7.91847501E-04   5.18450686E-04   6.65349878E-05   1.66860737E-05   2.75558673E-05   2.34418316E-05  
  88               6.62224453E+02   1.87469725E+03   8.38058693E-01   1.60443570E-01   7.90171195E-04   5.15994497E-04   6.67937873E-05   2.31303567E-05   2.74132002E-05   2.34445222E-05  
  89               7.31431694E+02   1.92393445E+03   8.38049795E-01   1.60441628E-01   7.89312722E-04   5.13148123E-04   6.71420680E-05   3.19219106E-05   2.72245742E-05   2.34316768E-05  
  90               8.08987406E+02   1.97394402E+03   8.38030643E-01   1.60438557E-01   7.91298921E-04   5.10041312E-04   6.76858139E-05   4.34619303E-05   2.69346259E-05   2.33846802E-05  
  91               8.96519790E+02   2.02673249E+03   8.37993151E-01   1.60433688E-01   8.00424241E-04   5.06288615E-04   6.83150831E-05   5.91762752E-05   2.65973157E-05   2.32616952E-05  
  92               9.95313167E+02   2.08073575E+03   8.37921395E-01   1.60425555E-01   8.23767581E-04   5.01830787E-04   6.91319868E-05   7.96717101E-05   2.61608358E-05   2.30137777E-05  
  93               1.11234277E+03   2.13999662E+03   8.37814108E-01   1.60416238E-01   8.72031447E-04   4.95730146E-04   7.00925646E-05   1.08423112E-04   2.56451115E-05   2.25937994E-05  
  94               1.24230052E+03   2.19945261E+03   8.37784621E-01   1.60412351E-01   8.68317187E-04   4.91344163E-04   7.12276594E-05   1.44945069E-04   2.50386351E-05   2.25966265E-05  
  95               1.37752942E+03   2.25654667E+03   8.37748261E-01   1.60407941E-01   8.64852114E-04   4.87100764E-04   7.23794545E-05   1.88604199E-04   2.44198591E-05   2.25933796E-05  
  96               1.53599148E+03   2.31745849E+03   8.37687402E-01   1.60400204E-01   8.61429981E-04   4.82686438E-04   7.37254526E-05   2.45762868E-04   2.36945225E-05   2.25837593E-05  
  97               1.68673115E+03   2.37080135E+03   8.37627864E-01   1.60394631E-01   8.63445986E-04   4.78672012E-04   7.49661015E-05   3.06068693E-04   2.30241362E-05   2.25776848E-05  
  98               1.81750094E+03   2.41389137E+03   8.37577690E-01   1.60389592E-01   8.61628548E-04   4.75686861E-04   7.60129228E-05   3.62522338E-04   2.24567910E-05   2.25642634E-05  
  99               1.96957887E+03   2.46091781E+03   8.37514782E-01   1.60383463E-01   8.59797741E-04   4.72510040E-04   7.71859981E-05   4.32793564E-04   2.18187434E-05   2.25464834E-05  
  100              2.14575992E+03   2.51166670E+03   8.37404379E-01   1.60369904E-01   8.58054681E-04   4.69182955E-04   7.84883346E-05   5.19542411E-04   2.11056363E-05   2.25231171E-05  
  101              2.28551416E+03   2.54931455E+03   8.37338528E-01   1.60364144E-01   8.56990215E-04   4.66827639E-04   7.94862631E-05   5.91720793E-04   2.05599843E-05   2.25044546E-05  
