# ATMO chemical composition profiles
# Chemical abundances given as mole fraction for the 8 most abundant species
# Model Level      Pressure [Ba]    Temperature [K]  H2               He               H                H2O              CH4              CO               N2               H2S             
  1                1.00000000E-05   2.68315976E+02   8.38252561E-01   1.60494337E-01   4.02875410E-38   6.62158223E-04   4.18453970E-04   7.94765006E-05   5.52085212E-05   2.29859191E-05  
  2                8.96418287E-05   2.95908449E+02   8.38251353E-01   1.60495541E-01   1.21307093E-34   6.62160555E-04   4.18455444E-04   7.94767805E-05   5.52087156E-05   2.29860914E-05  
  3                1.83617180E-04   3.15681042E+02   8.38253487E-01   1.60493411E-01   2.18147388E-32   6.62158841E-04   4.18454361E-04   7.94765747E-05   5.52085727E-05   2.29857864E-05  
  4                2.97111455E-04   3.18713201E+02   8.38251880E-01   1.60495007E-01   3.78073708E-32   6.62164184E-04   4.18457738E-04   7.94772161E-05   5.52090182E-05   2.29860151E-05  
  5                4.35079851E-04   3.31772861E+02   8.38253456E-01   1.60493433E-01   7.98156713E-31   6.62163528E-04   4.18457323E-04   7.94771374E-05   5.52089635E-05   2.29857895E-05  
  6                6.03016846E-04   3.33188804E+02   8.38252100E-01   1.60494769E-01   9.48843773E-31   6.62168315E-04   4.18460348E-04   7.94777119E-05   5.52093626E-05   2.29859809E-05  
  7                8.07738354E-04   3.44817119E+02   8.38253583E-01   1.60493287E-01   1.16811597E-29   6.62167721E-04   4.18459973E-04   7.94776406E-05   5.52093131E-05   2.29857687E-05  
  8                1.05731016E-03   3.46107310E+02   8.38252418E-01   1.60494444E-01   1.35605729E-29   6.62172110E-04   4.18462746E-04   7.94781673E-05   5.52096790E-05   2.29859343E-05  
  9                1.36181823E-03   3.57112872E+02   8.38253813E-01   1.60493006E-01   1.23795489E-28   6.62171758E-04   4.18462524E-04   7.94781251E-05   5.52096497E-05   2.29857284E-05  
  10               1.73337234E-03   3.58320455E+02   8.38252701E-01   1.60494110E-01   1.40589547E-28   6.62176019E-04   4.18465217E-04   7.94786365E-05   5.52100049E-05   2.29858865E-05  
  11               2.18696102E-03   3.69005869E+02   8.38254076E-01   1.60492735E-01   1.04556067E-27   6.62175619E-04   4.18464964E-04   7.94785886E-05   5.52099716E-05   2.29856897E-05  
  12               2.74066462E-03   3.70167318E+02   8.38252968E-01   1.60493834E-01   1.16776139E-27   6.62180672E-04   4.18468157E-04   7.94791951E-05   5.52103929E-05   2.29858470E-05  
  13               3.41673740E-03   3.80727887E+02   8.38254282E-01   1.60492520E-01   7.49115631E-27   6.62180493E-04   4.18468044E-04   7.94791735E-05   5.52103779E-05   2.29856588E-05  
  14               4.24207602E-03   3.81975294E+02   8.38253197E-01   1.60493597E-01   8.42287799E-27   6.62184871E-04   4.18470811E-04   7.94796991E-05   5.52107430E-05   2.29858130E-05  
  15               5.24962830E-03   3.92626582E+02   8.38254337E-01   1.60492294E-01   4.89651038E-26   6.62184855E-04   4.18470800E-04   7.94796971E-05   5.52107416E-05   2.29856264E-05  
  16               6.47920610E-03   3.94033604E+02   8.38253290E-01   1.60493332E-01   5.59787822E-26   6.62189170E-04   4.18473527E-04   7.94802150E-05   5.52111014E-05   2.29857752E-05  
  17               7.97940422E-03   4.05044187E+02   8.38254579E-01   1.60492044E-01   3.09432822E-25   6.62189128E-04   4.18473501E-04   7.94802099E-05   5.52110979E-05   2.29855906E-05  
  18               9.80878785E-03   4.06841145E+02   8.38253575E-01   1.60493034E-01   3.71779355E-25   6.62196286E-04   4.18478025E-04   7.94810692E-05   5.52116948E-05   2.29857324E-05  
  19               1.20384330E-02   4.18414125E+02   8.38254921E-01   1.60491689E-01   2.00635248E-24   6.62196366E-04   4.18478075E-04   7.94810788E-05   5.52117014E-05   2.29855398E-05  
  20               1.47544029E-02   4.20615777E+02   8.38253962E-01   1.60492636E-01   2.51861556E-24   6.62200784E-04   4.18480867E-04   7.94816090E-05   5.52120697E-05   2.29856755E-05  
  21               1.80624455E-02   4.32572295E+02   8.38254765E-01   1.60491185E-01   1.28288753E-23   6.62200959E-04   4.18480977E-04   7.94816300E-05   5.52120843E-05   2.29854676E-05  
  22               2.20900379E-02   4.35058236E+02   8.38253841E-01   1.60492071E-01   1.64233308E-23   6.62205075E-04   4.18483578E-04   7.94821240E-05   5.52124275E-05   2.29855945E-05  
  23               2.69920606E-02   4.47429577E+02   8.38255164E-01   1.60490749E-01   7.91605996E-23   6.62205000E-04   4.18483531E-04   7.94821150E-05   5.52124212E-05   2.29854051E-05  
  24               3.29549946E-02   4.50412956E+02   8.38253866E-01   1.60491565E-01   1.05789764E-22   6.62221334E-04   4.18493853E-04   7.94840755E-05   5.52137831E-05   2.29855220E-05  
  25               4.02038961E-02   4.63557766E+02   8.38254979E-01   1.60490448E-01   5.02712821E-22   6.62223350E-04   4.18495128E-04   7.94843175E-05   5.52139512E-05   2.29853621E-05  
  26               4.90062377E-02   4.67405356E+02   8.38254197E-01   1.60491222E-01   7.26907354E-22   6.62227532E-04   4.18497771E-04   7.94848195E-05   5.52143000E-05   2.29854729E-05  
  27               5.96824643E-02   4.81856518E+02   8.38253420E-01   1.60489185E-01   3.57193715E-21   6.62231904E-04   4.18500533E-04   7.94853442E-05   5.52146644E-05   2.29851812E-05  
  28               7.26092569E-02   4.87308540E+02   8.38253128E-01   1.60489473E-01   5.97165275E-21   6.62234278E-04   4.18502034E-04   7.94856292E-05   5.52148624E-05   2.29852224E-05  
  29               8.82607727E-02   5.01519220E+02   8.38254525E-01   1.60488078E-01   2.50865439E-20   6.62233007E-04   4.18501231E-04   7.94854767E-05   5.52147564E-05   2.29850226E-05  
  30               1.07184690E-01   5.07851421E+02   8.38254031E-01   1.60488485E-01   4.38519295E-20   6.62280289E-04   4.18531111E-04   7.94911517E-05   5.52186986E-05   2.29850809E-05  
  31               1.30042949E-01   5.23207971E+02   8.38255510E-01   1.60487006E-01   1.82852721E-19   6.62280839E-04   4.18531458E-04   7.94912177E-05   5.52187445E-05   2.29848690E-05  
  32               1.57620989E-01   5.30778298E+02   8.38255236E-01   1.60487271E-01   3.40981760E-19   6.62285139E-04   4.18534176E-04   7.94917338E-05   5.52191030E-05   2.29849071E-05  
  33               1.90855882E-01   5.47455738E+02   8.38256787E-01   1.60485719E-01   1.40970544E-18   6.62285757E-04   4.18534566E-04   7.94918080E-05   5.52191545E-05   2.29846848E-05  
  34               2.30841325E-01   5.56560647E+02   8.38256700E-01   1.60485799E-01   2.82167965E-18   6.62289604E-04   4.18536997E-04   7.94922698E-05   5.52194753E-05   2.29846962E-05  
  35               2.78884227E-01   5.74934022E+02   8.38258331E-01   1.60484168E-01   1.16997447E-17   6.62290314E-04   4.18537446E-04   7.94923550E-05   5.52195345E-05   2.29844626E-05  
  36               3.36502218E-01   5.85832889E+02   8.38258436E-01   1.60484055E-01   2.50478388E-17   6.62294076E-04   4.18539823E-04   7.94928065E-05   5.52198481E-05   2.29844465E-05  
  37               4.05485855E-01   6.06011588E+02   8.38260072E-01   1.60482417E-01   1.02537225E-16   6.62295080E-04   4.18540458E-04   7.94929270E-05   5.52199318E-05   2.29842119E-05  
  38               4.87903831E-01   6.18954843E+02   8.38260350E-01   1.60482132E-01   2.32856350E-16   6.62298858E-04   4.18542845E-04   7.94933805E-05   5.52202468E-05   2.29841711E-05  
  39               5.86251550E-01   6.41248655E+02   8.38261939E-01   1.60480540E-01   9.39199681E-16   6.62300362E-04   4.18543796E-04   7.94935610E-05   5.52203722E-05   2.29839431E-05  
  40               7.03446118E-01   6.56591971E+02   8.38262355E-01   1.60480115E-01   2.25021053E-15   6.62304307E-04   4.18546289E-04   7.94940345E-05   5.52207011E-05   2.29838822E-05  
  41               8.42864093E-01   6.81266074E+02   8.38263826E-01   1.60478640E-01   8.86337891E-15   6.62306498E-04   4.18547674E-04   7.94942975E-05   5.52208839E-05   2.29836709E-05  
  42               1.00835428E+00   6.99442552E+02   8.38264322E-01   1.60478114E-01   2.22744672E-14   6.62310718E-04   4.18550340E-04   7.94948040E-05   5.52212357E-05   2.29835956E-05  
  43               1.20441509E+00   7.27148887E+02   8.38265654E-01   1.60476777E-01   8.64487547E-14   6.62313871E-04   4.18552333E-04   7.94951825E-05   5.52214986E-05   2.29834040E-05  
  44               1.43582438E+00   7.48862708E+02   8.38266152E-01   1.60476178E-01   2.28170908E-13   6.62318400E-04   4.18555195E-04   7.94957260E-05   5.52218762E-05   2.29833182E-05  
  45               1.70791497E+00   7.80056479E+02   8.38267173E-01   1.60474992E-01   8.64134421E-13   6.62322992E-04   4.18558097E-04   7.94962773E-05   5.52222591E-05   2.29831482E-05  
  46               2.02730664E+00   8.05682761E+02   8.38267519E-01   1.60474374E-01   2.34470903E-12   6.62331543E-04   4.18563501E-04   7.94973036E-05   5.52229720E-05   2.29830593E-05  
  47               2.40195752E+00   8.40708574E+02   8.38268450E-01   1.60473416E-01   8.52573263E-12   6.62340441E-04   4.18569124E-04   7.94983716E-05   5.52237139E-05   2.29829211E-05  
  48               2.83998208E+00   8.70472373E+02   8.38268928E-01   1.60472895E-01   2.31569996E-11   6.62345873E-04   4.18572557E-04   7.94990237E-05   5.52241668E-05   2.29887931E-05  
  49               3.34987046E+00   9.09227283E+02   8.38269591E-01   1.60472117E-01   7.86301812E-11   6.62351058E-04   4.18575834E-04   7.94996466E-05   5.52245991E-05   2.30125605E-05  
  50               3.94050845E+00   9.42524411E+02   8.38269734E-01   1.60471617E-01   2.04396437E-10   6.62357310E-04   4.18579785E-04   7.95004008E-05   5.52251204E-05   2.30722537E-05  
  51               4.62447047E+00   9.84308771E+02   8.38269170E-01   1.60470727E-01   6.28088203E-10   6.62365294E-04   4.18584830E-04   7.95013798E-05   5.52257861E-05   2.33010228E-05  
  52               5.41527083E+00   1.02048355E+03   8.38267889E-01   1.60470022E-01   1.51984663E-09   6.62378033E-04   4.18592880E-04   7.95030340E-05   5.52268482E-05   2.42871859E-05  
  53               6.32721995E+00   1.06463349E+03   8.38268875E-01   1.60469002E-01   4.17073465E-09   6.62397534E-04   4.18605203E-04   7.95059842E-05   5.52284742E-05   2.42869462E-05  
  54               7.37533116E+00   1.10262973E+03   8.38269962E-01   1.60467904E-01   9.19243233E-09   6.62401121E-04   4.18607460E-04   7.95095809E-05   5.52287745E-05   2.42866536E-05  
  55               8.58010955E+00   1.14812714E+03   8.38272171E-01   1.60465667E-01   2.23381469E-08   6.62402121E-04   4.18608012E-04   7.95230873E-05   5.52288663E-05   2.42860514E-05  
  56               9.96674935E+00   1.18734240E+03   8.38274666E-01   1.60463087E-01   4.48554855E-08   6.62401735E-04   4.18607102E-04   7.95804851E-05   5.52289065E-05   2.42852986E-05  
  57               1.15621033E+01   1.23410355E+03   8.38279346E-01   1.60458149E-01   9.81552790E-08   6.62392819E-04   4.18597509E-04   7.97865410E-05   5.52285934E-05   2.42838505E-05  
  58               1.33929961E+01   1.27443211E+03   8.38283875E-01   1.60452874E-01   1.81748341E-07   6.62358205E-04   4.18550743E-04   8.05049335E-05   5.52284227E-05   2.42821502E-05  
  59               1.54876202E+01   1.32221362E+03   8.38290988E-01   1.60443787E-01   3.62596888E-07   6.62204119E-04   4.18338334E-04   8.26172926E-05   5.52281975E-05   2.42791345E-05  
  60               1.78853851E+01   1.36310028E+03   8.38295521E-01   1.60435176E-01   6.21793805E-07   6.61541929E-04   4.17415411E-04   8.79619378E-05   5.52293660E-05   2.42758299E-05  
  61               2.06321419E+01   1.41126796E+03   8.38301923E-01   1.60422103E-01   1.13743187E-06   6.59282139E-04   4.14328458E-04   9.93624043E-05   5.52320178E-05   2.42702673E-05  
  62               2.37873451E+01   1.45218478E+03   8.38308614E-01   1.60412346E-01   1.81599512E-06   6.52977923E-04   4.06181697E-04   1.16046339E-04   5.52358179E-05   2.42642657E-05  
  63               2.74203233E+01   1.50082936E+03   8.38325824E-01   1.60400016E-01   3.09167322E-06   6.39234935E-04   3.89349650E-04   1.40185690E-04   5.52385199E-05   2.42528656E-05  
  64               3.15978243E+01   1.54218472E+03   8.38345725E-01   1.60393211E-01   4.66976252E-06   6.21820351E-04   3.70531945E-04   1.59806253E-04   5.52376400E-05   2.42366551E-05  
  65               3.64044173E+01   1.59199043E+03   8.38374696E-01   1.60383948E-01   7.53483613E-06   5.98555111E-04   3.44759818E-04   1.86140570E-04   5.52376590E-05   2.41216528E-05  
  66               4.18841550E+01   1.63477878E+03   8.38390511E-01   1.60377489E-01   1.09676393E-05   5.81108787E-04   3.27067372E-04   2.03614796E-04   5.52349987E-05   2.41086238E-05  
  67               4.80329170E+01   1.68693873E+03   8.38401815E-01   1.60366028E-01   1.71063806E-05   5.59773168E-04   3.00847684E-04   2.29746651E-04   5.52361301E-05   2.38475367E-05  
  68               5.47826735E+01   1.73322019E+03   8.38406328E-01   1.60358514E-01   2.46170644E-05   5.54688085E-04   2.79633128E-04   2.50823656E-04   5.52506180E-05   2.30132291E-05  
  69               6.20453426E+01   1.79058851E+03   8.38421195E-01   1.60347333E-01   3.82257006E-05   5.30359870E-04   2.51673570E-04   2.78578854E-04   5.52401135E-05   2.29213750E-05  
  70               6.97036872E+01   1.84609693E+03   8.38411596E-01   1.60334737E-01   5.69442978E-05   5.16479970E-04   2.25552732E-04   3.04466928E-04   5.52238285E-05   2.26936442E-05  
  71               7.74850958E+01   1.89731003E+03   8.38358884E-01   1.60318434E-01   8.04156736E-05   5.21155929E-04   2.00567921E-04   3.29211536E-04   5.51922314E-05   2.22363336E-05  
  72               8.49825051E+01   1.94331498E+03   8.38280768E-01   1.60302482E-01   1.07876983E-04   5.51547372E-04   1.74890064E-04   3.54687968E-04   5.51607984E-05   2.15393721E-05  
  73               9.18828323E+01   1.98239132E+03   8.38268952E-01   1.60296582E-01   1.36803376E-04   5.40331287E-04   1.63455308E-04   3.65917200E-04   5.50717087E-05   2.15097761E-05  
  74               9.96720779E+01   2.02429475E+03   8.38238186E-01   1.60288092E-01   1.74646454E-04   5.29400560E-04   1.52293235E-04   3.76829352E-04   5.49646236E-05   2.14750869E-05  
  75               1.06310898E+02   2.05741891E+03   8.38215486E-01   1.60282860E-01   2.10117325E-04   5.21834131E-04   1.44525438E-04   3.84386852E-04   5.48717841E-05   2.14471953E-05  
  76               1.11547542E+02   2.08290551E+03   8.38194039E-01   1.60278610E-01   2.41306349E-04   5.16325122E-04   1.38851124E-04   3.89888532E-04   5.47943621E-05   2.14237788E-05  
  77               1.17650836E+02   2.11071777E+03   8.38166082E-01   1.60273873E-01   2.79301132E-04   5.10986063E-04   1.33319026E-04   3.95219526E-04   5.47000923E-05   2.13981364E-05  
  78               1.24724181E+02   2.14218719E+03   8.38128668E-01   1.60268140E-01   3.28112805E-04   5.05260530E-04   1.27356581E-04   4.00939726E-04   5.45926960E-05   2.13663506E-05  
  79               1.32862890E+02   2.17594896E+03   8.38048849E-01   1.60255535E-01   3.87534271E-04   4.99909533E-04   1.21710003E-04   4.06285224E-04   5.44599482E-05   2.13305012E-05  
  80               1.39008532E+02   2.20095980E+03   8.38008225E-01   1.60250424E-01   4.37073896E-04   4.96087035E-04   1.17689981E-04   4.10084906E-04   5.43672543E-05   2.13017980E-05  
  81               1.43490729E+02   2.21804826E+03   8.37977744E-01   1.60246797E-01   4.73445354E-04   4.93804671E-04   1.15265644E-04   4.12349866E-04   5.42930650E-05   2.12823290E-05  
  82               1.48828979E+02   2.23858450E+03   8.37938010E-01   1.60242145E-01   5.20608092E-04   4.91014607E-04   1.12299579E-04   4.15118559E-04   5.42098382E-05   2.12568032E-05  
  83               1.55157572E+02   2.26137907E+03   8.37889827E-01   1.60236807E-01   5.76790688E-04   4.88325760E-04   1.09404207E-04   4.17781954E-04   5.41062189E-05   2.12285172E-05  
  84               1.62625012E+02   2.28805246E+03   8.37827587E-01   1.60230069E-01   6.48841396E-04   4.85230094E-04   1.06055692E-04   4.20846809E-04   5.39879987E-05   2.11925584E-05  
  85               1.71394941E+02   2.31731587E+03   8.37749912E-01   1.60221873E-01   7.35214778E-04   4.82328537E-04   1.02857447E-04   4.23710500E-04   5.38439821E-05   2.11522417E-05  
  86               1.81646887E+02   2.35072698E+03   8.37646322E-01   1.60211745E-01   8.44926259E-04   4.84066885E-04   9.85321772E-05   4.27667475E-04   5.36857146E-05   2.11217740E-05  
  87               1.93581106E+02   2.38687151E+03   8.37528657E-01   1.60200318E-01   9.76622218E-04   4.81380851E-04   9.52757420E-05   4.30456231E-04   5.34908272E-05   2.10660832E-05  
  88               2.07420683E+02   2.42726176E+03   8.37379772E-01   1.60186140E-01   1.14236202E-03   4.78623799E-04   9.18606114E-05   4.33310093E-04   5.32695533E-05   2.09983250E-05  
  89               2.23416209E+02   2.47035793E+03   8.37200215E-01   1.60169498E-01   1.34077075E-03   4.76323961E-04   8.88209361E-05   4.35692758E-04   5.30101704E-05   2.09224494E-05  
  90               2.41853195E+02   2.51765044E+03   8.36975693E-01   1.60148983E-01   1.58792286E-03   4.74122189E-04   8.57639174E-05   4.37966050E-04   5.27170871E-05   2.08320465E-05  
  91               2.63069503E+02   2.56751679E+03   8.36707193E-01   1.60124896E-01   1.88203050E-03   4.72501689E-04   8.31685093E-05   4.39645218E-04   5.23780047E-05   2.07318559E-05  
  92               2.87466933E+02   2.62152905E+03   8.36375221E-01   1.60095386E-01   2.24478548E-03   4.71131324E-04   8.06559011E-05   4.41068213E-04   5.19961550E-05   2.06148441E-05  
  93               3.15522919E+02   2.67799265E+03   8.35981950E-01   1.60060841E-01   2.67315822E-03   4.70459338E-04   7.86565859E-05   4.41793436E-04   5.15581942E-05   2.04869735E-05  
  94               3.47811753E+02   2.73863341E+03   8.35500764E-01   1.60018792E-01   3.19655518E-03   4.70178368E-04   7.67954062E-05   4.42140895E-04   5.10659974E-05   2.03404199E-05  
  95               3.85033437E+02   2.80167804E+03   8.34936271E-01   1.59969834E-01   3.80931977E-03   4.70720128E-04   7.54704799E-05   4.41693675E-04   5.05044858E-05   2.01828068E-05  
  96               4.28054223E+02   2.86905502E+03   8.34252437E-01   1.59910688E-01   4.55104668E-03   4.71814221E-04   7.43156139E-05   4.40741811E-04   4.98730706E-05   2.00054136E-05  
  97               4.77960677E+02   2.93912877E+03   8.33454816E-01   1.59842013E-01   5.41509510E-03   4.73862471E-04   7.36766746E-05   4.38904615E-04   4.91543790E-05   1.98167407E-05  
  98               5.36200221E+02   3.01412945E+03   8.32493247E-01   1.59759328E-01   6.45631993E-03   4.76660064E-04   7.32111873E-05   4.36412697E-04   4.83421525E-05   1.96067465E-05  
  99               6.04643172E+02   3.09229647E+03   8.31379073E-01   1.59663819E-01   7.66169652E-03   4.80662843E-04   7.32951316E-05   4.32830405E-04   4.74117024E-05   1.93863095E-05  
  100              6.85108491E+02   3.17569552E+03   8.30051730E-01   1.59550096E-01   9.09737636E-03   4.85671472E-04   7.35761793E-05   4.28373652E-04   4.63560316E-05   1.91447499E-05  
  101              7.79521691E+02   3.26166648E+03   8.28547782E-01   1.59421526E-01   1.07229877E-02   4.92074221E-04   7.44187568E-05   4.22641475E-04   4.51544042E-05   1.88969825E-05  
