# ATMO chemical composition profiles
# Chemical abundances given as mole fraction for the 8 most abundant species
# Model Level      Pressure [Ba]    Temperature [K]  H2               He               H2O              CH4              CO               H                N2               H2S             
  1                1.00000000E-05   1.80557721E+02   8.38299229E-01   1.60506978E-01   5.98012573E-04   3.56722206E-04   1.47598689E-04   1.07149564E-58   5.68513814E-05   2.29881488E-05  
  2                5.67735285E-04   2.10968648E+02   8.38299229E-01   1.60506978E-01   5.98012597E-04   3.56722220E-04   1.47598695E-04   1.63755605E-50   5.68513836E-05   2.29881488E-05  
  3                1.19308192E-03   2.29905688E+02   8.38299229E-01   1.60506978E-01   5.98012635E-04   3.56722243E-04   1.47598704E-04   3.07527424E-46   5.68513873E-05   2.29881488E-05  
  4                1.90507204E-03   2.46604406E+02   8.38299229E-01   1.60506978E-01   5.98012660E-04   3.56722258E-04   1.47598710E-04   5.41686918E-43   5.68513897E-05   2.29881488E-05  
  5                2.72489702E-03   2.55067266E+02   8.38299229E-01   1.60506978E-01   5.98012679E-04   3.56722269E-04   1.47598715E-04   1.53379129E-41   5.68513915E-05   2.29881488E-05  
  6                3.67410738E-03   2.66943276E+02   8.38299229E-01   1.60506978E-01   5.98012695E-04   3.56722279E-04   1.47598719E-04   1.27234972E-39   5.68513930E-05   2.29881487E-05  
  7                4.77536471E-03   2.73451584E+02   8.38299229E-01   1.60506978E-01   5.98012710E-04   3.56722287E-04   1.47598723E-04   1.15346517E-38   5.68513944E-05   2.29881487E-05  
  8                6.05514534E-03   2.83872478E+02   8.38299229E-01   1.60506978E-01   5.98012723E-04   3.56722295E-04   1.47598726E-04   3.45205033E-37   5.68513957E-05   2.29881487E-05  
  9                7.54353194E-03   2.89658492E+02   8.38299229E-01   1.60506978E-01   5.98012736E-04   3.56722303E-04   1.47598729E-04   1.95558660E-36   5.68513969E-05   2.29881487E-05  
  10               9.27644507E-03   2.99289424E+02   8.38299229E-01   1.60506978E-01   5.98012749E-04   3.56722310E-04   1.47598732E-04   3.24444677E-35   5.68513981E-05   2.29881487E-05  
  11               1.12948523E-02   3.04641372E+02   8.38299229E-01   1.60506978E-01   5.98012761E-04   3.56722318E-04   1.47598735E-04   1.37027380E-34   5.68513992E-05   2.29881487E-05  
  12               1.36467093E-02   3.14005049E+02   8.38299229E-01   1.60506977E-01   5.98012775E-04   3.56722326E-04   1.47598739E-04   1.62410989E-33   5.68514006E-05   2.29881486E-05  
  13               1.63873517E-02   3.19292432E+02   8.38299229E-01   1.60506977E-01   5.98012786E-04   3.56722333E-04   1.47598741E-04   5.91092628E-33   5.68514016E-05   2.29881486E-05  
  14               1.95814500E-02   3.28643791E+02   8.38299230E-01   1.60506976E-01   5.98012810E-04   3.56722347E-04   1.47598747E-04   5.60303192E-32   5.68514039E-05   2.29881484E-05  
  15               2.33029743E-02   3.34093738E+02   8.38299228E-01   1.60506975E-01   5.98012822E-04   3.56722354E-04   1.47598750E-04   1.88945080E-31   5.68514050E-05   2.29881483E-05  
  16               2.76379691E-02   3.43750597E+02   8.38299231E-01   1.60506973E-01   5.98012828E-04   3.56722358E-04   1.47598752E-04   1.57692161E-30   5.68514057E-05   2.29881480E-05  
  17               3.26860412E-02   3.49581746E+02   8.38299232E-01   1.60506972E-01   5.98012876E-04   3.56722386E-04   1.47598763E-04   5.18383328E-30   5.68514102E-05   2.29881479E-05  
  18               3.85644770E-02   3.59561100E+02   8.38299224E-01   1.60506966E-01   5.98012882E-04   3.56722390E-04   1.47598765E-04   3.83852034E-29   5.68514108E-05   2.29881469E-05  
  19               4.54072930E-02   3.65847959E+02   8.38299227E-01   1.60506962E-01   5.98012877E-04   3.56722387E-04   1.47598764E-04   1.24126847E-28   5.68514103E-05   2.29881465E-05  
  20               5.33697676E-02   3.76363868E+02   8.38299236E-01   1.60506954E-01   5.98013042E-04   3.56722485E-04   1.47598804E-04   8.51476704E-28   5.68514260E-05   2.29881452E-05  
  21               6.26302410E-02   3.83279502E+02   8.38299241E-01   1.60506948E-01   5.98013048E-04   3.56722489E-04   1.47598806E-04   2.77050551E-27   5.68514265E-05   2.29881445E-05  
  22               7.33949415E-02   3.94464785E+02   8.38299194E-01   1.60506918E-01   5.98012991E-04   3.56722455E-04   1.47598792E-04   1.78916353E-26   5.68514212E-05   2.29881401E-05  
  23               8.58973578E-02   4.02160431E+02   8.38299211E-01   1.60506899E-01   5.98013920E-04   3.56723009E-04   1.47599021E-04   5.92123408E-26   5.68515094E-05   2.29881374E-05  
  24               1.00403936E-01   4.14246118E+02   8.38299250E-01   1.60506860E-01   5.98013869E-04   3.56722979E-04   1.47599009E-04   3.69081611E-25   5.68515046E-05   2.29881319E-05  
  25               1.17216025E-01   4.22978019E+02   8.38299279E-01   1.60506831E-01   5.98013837E-04   3.56722960E-04   1.47599001E-04   1.26726320E-24   5.68515016E-05   2.29881277E-05  
  26               1.36687455E-01   4.36135899E+02   8.38298981E-01   1.60506674E-01   5.98013482E-04   3.56722748E-04   1.47598913E-04   7.66729006E-24   5.68514678E-05   2.29881051E-05  
  27               1.59216047E-01   4.46086799E+02   8.38299052E-01   1.60506562E-01   5.98018704E-04   3.56725863E-04   1.47600202E-04   2.73046911E-23   5.68519642E-05   2.29880892E-05  
  28               1.85249403E-01   4.60651234E+02   8.38298844E-01   1.60506319E-01   5.98018611E-04   3.56725807E-04   1.47600179E-04   1.63645394E-22   5.68519554E-05   2.29880543E-05  
  29               2.15274842E-01   4.72428566E+02   8.38298735E-01   1.60506426E-01   5.98019848E-04   3.56726545E-04   1.47600484E-04   6.31553284E-22   5.68520730E-05   2.29880697E-05  
  30               2.49841376E-01   4.89012898E+02   8.38296558E-01   1.60505472E-01   5.98020712E-04   3.56727061E-04   1.47600698E-04   3.88738923E-21   5.68521552E-05   2.29879330E-05  
  31               2.89566238E-01   5.02382444E+02   8.38297163E-01   1.60504781E-01   5.98064429E-04   3.56753139E-04   1.47611488E-04   1.51604724E-20   5.68563112E-05   2.29878341E-05  
  32               3.35179557E-01   5.19809116E+02   8.38298029E-01   1.60503919E-01   5.98062938E-04   3.56752249E-04   1.47611120E-04   8.19106059E-20   5.68561694E-05   2.29877106E-05  
  33               3.87485822E-01   5.34906361E+02   8.38298877E-01   1.60503073E-01   5.98061880E-04   3.56751618E-04   1.47610858E-04   3.19216801E-19   5.68560689E-05   2.29875895E-05  
  34               4.47397124E-01   5.54381608E+02   8.38300423E-01   1.60501533E-01   5.98059191E-04   3.56750014E-04   1.47610195E-04   1.68208777E-18   5.68558132E-05   2.29873688E-05  
  35               5.15925595E-01   5.71923428E+02   8.38301898E-01   1.60500063E-01   5.98056646E-04   3.56748496E-04   1.47609567E-04   6.75401743E-18   5.68555713E-05   2.29871584E-05  
  36               5.94175329E-01   5.93946171E+02   8.38304165E-01   1.60497804E-01   5.98052679E-04   3.56746129E-04   1.47608587E-04   3.49151141E-17   5.68551941E-05   2.29868347E-05  
  37               6.83301891E-01   6.14281678E+02   8.38306156E-01   1.60495820E-01   5.98049219E-04   3.56744066E-04   1.47607734E-04   1.42157778E-16   5.68548652E-05   2.29865506E-05  
  38               7.84555950E-01   6.39198298E+02   8.38308738E-01   1.60493246E-01   5.98044703E-04   3.56741372E-04   1.47606619E-04   7.11225946E-16   5.68544359E-05   2.29861820E-05  
  39               8.99413787E-01   6.62844514E+02   8.38310843E-01   1.60491147E-01   5.98041043E-04   3.56739188E-04   1.47605716E-04   2.91161274E-15   5.68540880E-05   2.29858814E-05  
  40               1.02954677E+00   6.91473322E+02   8.38313239E-01   1.60488755E-01   5.98036874E-04   3.56736702E-04   1.47604687E-04   1.42429072E-14   5.68536916E-05   2.29855388E-05  
  41               1.17667913E+00   7.18283086E+02   8.38314978E-01   1.60487003E-01   5.98033837E-04   3.56734890E-04   1.47603937E-04   5.57511261E-14   5.68534029E-05   2.29852878E-05  
  42               1.34270828E+00   7.48555012E+02   8.38316629E-01   1.60485303E-01   5.98031146E-04   3.56733285E-04   1.47603273E-04   2.32550157E-13   5.68531471E-05   2.29850442E-05  
  43               1.52963804E+00   7.76781091E+02   8.38317640E-01   1.60484084E-01   5.98029811E-04   3.56732488E-04   1.47602943E-04   7.90979568E-13   5.68530202E-05   2.29848695E-05  
  44               1.74010405E+00   8.08686853E+02   8.38318577E-01   1.60482904E-01   5.98031482E-04   3.56733485E-04   1.47603356E-04   2.86112423E-12   5.68531791E-05   2.29847000E-05  
  45               1.97716641E+00   8.38449519E+02   8.38319355E-01   1.60482109E-01   5.98033742E-04   3.56734833E-04   1.47603914E-04   8.62925411E-12   5.68533939E-05   2.29845853E-05  
  46               2.24402591E+00   8.72172663E+02   8.38320108E-01   1.60481321E-01   5.98032518E-04   3.56734103E-04   1.47603612E-04   2.76542183E-11   5.68532775E-05   2.29929428E-05  
  47               2.54380294E+00   9.03536729E+02   8.38320571E-01   1.60480741E-01   5.98031837E-04   3.56733697E-04   1.47603444E-04   7.50199871E-11   5.68532128E-05   2.30153442E-05  
  48               2.87954297E+00   9.38951877E+02   8.38320900E-01   1.60480075E-01   5.98031893E-04   3.56733730E-04   1.47603460E-04   2.14697370E-10   5.68532181E-05   2.30908403E-05  
  49               3.25495410E+00   9.71720031E+02   8.38320257E-01   1.60479333E-01   5.98033781E-04   3.56734856E-04   1.47603938E-04   5.26763462E-10   5.68533975E-05   2.32793243E-05  
  50               3.67434551E+00   1.00872663E+03   8.38319197E-01   1.60478350E-01   5.98051656E-04   3.56745519E-04   1.47608400E-04   1.35963389E-09   5.68550969E-05   2.42884489E-05  
  51               4.14291185E+00   1.04292784E+03   8.38320208E-01   1.60477350E-01   5.98049498E-04   3.56744231E-04   1.47608089E-04   3.05469446E-09   5.68548918E-05   2.42882365E-05  
  52               4.66629997E+00   1.08160462E+03   8.38322065E-01   1.60475506E-01   5.98045540E-04   3.56741867E-04   1.47607970E-04   7.20690914E-09   5.68545159E-05   2.42878378E-05  
  53               5.25089383E+00   1.11546190E+03   8.38324388E-01   1.60473189E-01   5.98040759E-04   3.56738990E-04   1.47610101E-04   1.44100490E-08   5.68540644E-05   2.42873190E-05  
  54               5.90418008E+00   1.15266361E+03   8.38328309E-01   1.60469259E-01   5.98032878E-04   3.56734146E-04   1.47619211E-04   2.95241266E-08   5.68533318E-05   2.42864326E-05  
  55               6.63483196E+00   1.18535628E+03   8.38332743E-01   1.60464782E-01   5.98023474E-04   3.56727748E-04   1.47652516E-04   5.29353865E-08   5.68525298E-05   2.42853782E-05  
  56               7.45241970E+00   1.22158442E+03   8.38339504E-01   1.60457899E-01   5.98006809E-04   3.56714372E-04   1.47750308E-04   9.78087176E-08   5.68513454E-05   2.42837232E-05  
  57               8.36896377E+00   1.25325066E+03   8.38346032E-01   1.60451081E-01   5.97977840E-04   3.56682560E-04   1.48021928E-04   1.60943488E-07   5.68502762E-05   2.42819553E-05  
  58               9.39749537E+00   1.28868924E+03   8.38354993E-01   1.60441482E-01   5.97902305E-04   3.56587079E-04   1.48690929E-04   2.74079935E-07   5.68489256E-05   2.42793546E-05  
  59               1.05514363E+01   1.31960709E+03   8.38362211E-01   1.60433045E-01   5.97692518E-04   3.56295856E-04   1.50226446E-04   4.21996588E-07   5.68481824E-05   2.42767664E-05  
  60               1.18446799E+01   1.35477200E+03   8.38371464E-01   1.60421674E-01   5.97119899E-04   3.55490399E-04   1.53422955E-04   6.76644217E-07   5.68476295E-05   2.42728377E-05  
  61               1.32920483E+01   1.38560050E+03   8.38377868E-01   1.60412454E-01   5.95660344E-04   3.53441806E-04   1.59350482E-04   9.94557470E-07   5.68483638E-05   2.42692963E-05  
  62               1.49130307E+01   1.42137308E+03   8.38387157E-01   1.60400354E-01   5.92366833E-04   3.48900132E-04   1.69392673E-04   1.53279366E-06   5.68496809E-05   2.42623529E-05  
  63               1.67363262E+01   1.45322894E+03   8.38396027E-01   1.60391509E-01   5.85914851E-04   3.40391568E-04   1.83382969E-04   2.19424194E-06   5.68515729E-05   2.42574639E-05  
  64               1.87973909E+01   1.49074712E+03   8.38412226E-01   1.60380718E-01   5.74654295E-04   3.26183120E-04   2.02254655E-04   3.30595215E-06   5.68529029E-05   2.42374148E-05  
  65               2.11315558E+01   1.52485139E+03   8.38429853E-01   1.60373717E-01   5.59461955E-04   3.08885105E-04   2.21190259E-04   4.67814136E-06   5.68523200E-05   2.42302563E-05  
  66               2.37716720E+01   1.56541196E+03   8.38455403E-01   1.60365027E-01   5.39610510E-04   2.86454650E-04   2.44280734E-04   6.98580797E-06   5.68523777E-05   2.41298214E-05  
  67               2.67331192E+01   1.60317956E+03   8.38474461E-01   1.60358236E-01   5.20775271E-04   2.67130528E-04   2.63563901E-04   9.90213492E-06   5.68500716E-05   2.41167533E-05  
  68               3.00138853E+01   1.64792408E+03   8.38485164E-01   1.60346985E-01   4.99900515E-04   2.42379432E-04   2.88218643E-04   1.47895169E-05   5.68512883E-05   2.39068716E-05  
  69               3.35822546E+01   1.69021393E+03   8.38493084E-01   1.60338939E-01   4.93566796E-04   2.18964354E-04   3.11548187E-04   2.11075190E-05   5.68716793E-05   2.28552246E-05  
  70               3.74125277E+01   1.73962941E+03   8.38511310E-01   1.60329622E-01   4.71160487E-04   1.94275074E-04   3.36085178E-04   3.15609810E-05   5.68695306E-05   2.27822012E-05  
  71               4.14307879E+01   1.78725974E+03   8.38512525E-01   1.60319954E-01   4.55671648E-04   1.72574381E-04   3.57642648E-04   4.54768595E-05   5.68686875E-05   2.26343552E-05  
  72               4.55507469E+01   1.83239397E+03   8.38489949E-01   1.60308954E-01   4.51590466E-04   1.52573808E-04   3.77494658E-04   6.30927387E-05   5.68737825E-05   2.23302626E-05  
  73               4.96205463E+01   1.87393293E+03   8.38432439E-01   1.60294918E-01   4.62909994E-04   1.33423793E-04   3.96499226E-04   8.40183557E-05   5.68835156E-05   2.18401544E-05  
  74               5.33303041E+01   1.90933240E+03   8.38362703E-01   1.60282721E-01   4.92247470E-04   1.15621532E-04   4.14192552E-04   1.06103962E-04   5.69062956E-05   2.12278097E-05  
  75               5.65346516E+01   1.93851790E+03   8.38352284E-01   1.60278666E-01   4.85062991E-04   1.08279966E-04   4.21437776E-04   1.27755566E-04   5.68678120E-05   2.12072585E-05  
  76               6.00782886E+01   1.96901879E+03   8.38336966E-01   1.60274400E-01   4.78297182E-04   1.01408232E-04   4.28192759E-04   1.54096456E-04   5.68228027E-05   2.11855121E-05  
  77               6.39858062E+01   2.00127492E+03   8.38304520E-01   1.60267611E-01   4.71794017E-04   9.47908341E-05   4.34669130E-04   1.86669706E-04   5.67732145E-05   2.11606888E-05  
  78               6.71818686E+01   2.02619878E+03   8.38283914E-01   1.60263892E-01   4.67311739E-04   9.02132263E-05   4.39138487E-04   2.15445840E-04   5.67377817E-05   2.11411497E-05  
  79               6.96261583E+01   2.04494543E+03   8.38266041E-01   1.60260951E-01   4.64111147E-04   8.69312134E-05   4.42335679E-04   2.39451360E-04   5.66938892E-05   2.11252906E-05  
  80               7.23953451E+01   2.06513270E+03   8.38244293E-01   1.60257707E-01   4.60972500E-04   8.37146831E-05   4.45455778E-04   2.67570014E-04   5.66482367E-05   2.11080234E-05  
  81               7.55240395E+01   2.08759048E+03   8.38216954E-01   1.60253891E-01   4.57646202E-04   8.02885328E-05   4.48770136E-04   3.02027793E-04   5.65970355E-05   2.10872425E-05  
  82               7.90428220E+01   2.11149830E+03   8.38183960E-01   1.60249652E-01   4.54478242E-04   7.70059146E-05   4.51927110E-04   3.42391194E-04   5.65367534E-05   2.10645255E-05  
  83               8.29840375E+01   2.13769139E+03   8.38112378E-01   1.60238825E-01   4.51195941E-04   7.35993098E-05   4.55169094E-04   3.91588344E-04   5.64675445E-05   2.10365977E-05  
  84               8.59247214E+01   2.15621997E+03   8.38080079E-01   1.60235169E-01   4.49139738E-04   7.14262909E-05   4.57234607E-04   4.29547830E-04   5.64278061E-05   2.10168248E-05  
  85               8.80610785E+01   2.16974256E+03   8.38054781E-01   1.60232321E-01   4.47625743E-04   6.98497187E-05   4.58730372E-04   4.59208938E-04   5.63858017E-05   2.10011192E-05  
  86               9.05185495E+01   2.18448940E+03   8.38025471E-01   1.60229140E-01   4.46144847E-04   6.82975035E-05   4.60190573E-04   4.93169527E-04   5.63424073E-05   2.09840614E-05  
  87               9.33367526E+01   2.20147345E+03   8.37989275E-01   1.60225263E-01   4.44440548E-04   6.65093021E-05   4.61870273E-04   5.34939232E-04   5.62945763E-05   2.09628919E-05  
  88               9.65584575E+01   2.21988813E+03   8.37947144E-01   1.60220898E-01   4.42792300E-04   6.47657195E-05   4.63490394E-04   5.83071201E-04   5.62375909E-05   2.09396186E-05  
  89               1.00229677E+02   2.24074093E+03   8.37895422E-01   1.60215620E-01   4.40964472E-04   6.28265702E-05   4.65285116E-04   6.41886953E-04   5.61741484E-05   2.09112283E-05  
  90               1.04399842E+02   2.26315231E+03   8.37835154E-01   1.60209645E-01   4.39234675E-04   6.09699986E-05   4.66977443E-04   7.09843927E-04   5.60996451E-05   2.08798543E-05  
  91               1.09122156E+02   2.28808270E+03   8.37761798E-01   1.60202484E-01   4.37395094E-04   5.89832064E-05   4.68773544E-04   7.92186498E-04   5.60167260E-05   2.08422911E-05  
  92               1.14453788E+02   2.31466360E+03   8.37674295E-01   1.60193948E-01   4.35691741E-04   5.71124838E-05   4.70426308E-04   8.87546395E-04   5.59205718E-05   2.08005500E-05  
  93               1.20455915E+02   2.34374033E+03   8.37564016E-01   1.60183942E-01   4.39194124E-04   5.45962030E-05   4.72725090E-04   1.00205620E-03   5.58200616E-05   2.07760069E-05  
  94               1.27195801E+02   2.37449935E+03   8.37443851E-01   1.60172841E-01   4.37754256E-04   5.28155393E-05   4.74225639E-04   1.13471095E-03   5.56985876E-05   2.07218284E-05  
  95               1.34747093E+02   2.40762322E+03   8.37300636E-01   1.60159755E-01   4.36361479E-04   5.10511585E-05   4.75668579E-04   1.29235664E-03   5.55635008E-05   2.06591903E-05  
  96               1.43189700E+02   2.44244300E+03   8.37134303E-01   1.60144744E-01   4.35159115E-04   4.94471765E-05   4.76907537E-04   1.47485378E-03   5.54110102E-05   2.05896374E-05  
  97               1.52612497E+02   2.47936224E+03   8.36938832E-01   1.60127253E-01   4.34082301E-04   4.79309242E-05   4.78007075E-04   1.68884710E-03   5.52414511E-05   2.05110122E-05  
  98               1.63112369E+02   2.51799916E+03   8.36712407E-01   1.60107158E-01   4.33205099E-04   4.65718398E-05   4.78892848E-04   1.93620024E-03   5.50521258E-05   2.04240555E-05  
  99               1.74804472E+02   2.55834627E+03   8.36450818E-01   1.60084094E-01   4.32535557E-04   4.53689176E-05   4.79558075E-04   2.22147863E-03   5.48414661E-05   2.03282872E-05  
  100              1.87819163E+02   2.60055492E+03   8.36147962E-01   1.60057521E-01   4.32060697E-04   4.42972244E-05   4.80017779E-04   2.55133855E-03   5.46082760E-05   2.02226017E-05  
  101              2.02308400E+02   2.64394713E+03   8.35805301E-01   1.60027615E-01   4.31887782E-04   4.34542307E-05   4.80168795E-04   2.92403192E-03   5.43482085E-05   2.01097544E-05  
