# ATMO chemical composition profiles
# Chemical abundances given as mole fraction for the 8 most abundant species
# Model Level      Pressure [Ba]    Temperature [K]  H2               He               H2O              CH4              N2               CO               NH3              H2S             
  1                1.00000000E-05   4.08033504E+01   8.38146473E-01   1.60477725E-01   7.59606531E-04   5.11281444E-04   4.87176064E-05   5.13403407E-06   2.37882614E-05   2.29826072E-05  
  2                1.74007629E-04   5.24618761E+01   8.38146473E-01   1.60477725E-01   7.59606537E-04   5.11281449E-04   4.87176068E-05   5.13403411E-06   2.37882616E-05   2.29826072E-05  
  3                3.67363122E-04   5.89993450E+01   8.38146473E-01   1.60477725E-01   7.59606540E-04   5.11281450E-04   4.87176070E-05   5.13403413E-06   2.37882617E-05   2.29826072E-05  
  4                5.95409447E-04   6.42656717E+01   8.38146473E-01   1.60477725E-01   7.59606542E-04   5.11281451E-04   4.87176071E-05   5.13403414E-06   2.37882617E-05   2.29826072E-05  
  5                8.64292903E-04   6.79583026E+01   8.38146473E-01   1.60477725E-01   7.59606543E-04   5.11281452E-04   4.87176071E-05   5.13403415E-06   2.37882617E-05   2.29826072E-05  
  6                1.18126793E-03   7.20309882E+01   8.38146473E-01   1.60477725E-01   7.59606544E-04   5.11281453E-04   4.87176072E-05   5.13403415E-06   2.37882618E-05   2.29826072E-05  
  7                1.55236919E-03   7.51817466E+01   8.38146473E-01   1.60477725E-01   7.59606544E-04   5.11281453E-04   4.87176072E-05   5.13403416E-06   2.37882618E-05   2.29826072E-05  
  8                1.98308668E-03   7.90626940E+01   8.38146473E-01   1.60477725E-01   7.59606545E-04   5.11281454E-04   4.87176073E-05   5.13403416E-06   2.37882618E-05   2.29826072E-05  
  9                2.48083460E-03   8.21125307E+01   8.38146473E-01   1.60477725E-01   7.59606546E-04   5.11281454E-04   4.87176073E-05   5.13403417E-06   2.37882618E-05   2.29826072E-05  
  10               3.05502726E-03   8.61285396E+01   8.38146473E-01   1.60477725E-01   7.59606547E-04   5.11281455E-04   4.87176074E-05   5.13403417E-06   2.37882619E-05   2.29826072E-05  
  11               3.71817182E-03   8.93630644E+01   8.38146473E-01   1.60477725E-01   7.59606547E-04   5.11281455E-04   4.87176074E-05   5.13403418E-06   2.37882619E-05   2.29826072E-05  
  12               4.48518601E-03   9.36673302E+01   8.38146473E-01   1.60477725E-01   7.59606547E-04   5.11281455E-04   4.87176074E-05   5.13403418E-06   2.37882619E-05   2.29826072E-05  
  13               5.37293005E-03   9.72099062E+01   8.38146473E-01   1.60477725E-01   7.59606547E-04   5.11281455E-04   4.87176074E-05   5.13403418E-06   2.37882619E-05   2.29826072E-05  
  14               6.40092781E-03   1.01980775E+02   8.38146135E-01   1.60477660E-01   7.59606548E-04   5.11281456E-04   4.87176075E-05   5.13403418E-06   2.37882619E-05   2.29825980E-05  
  15               7.59228048E-03   1.05922421E+02   8.38144687E-01   1.60477383E-01   7.59606855E-04   5.11281662E-04   4.87176271E-05   5.13403626E-06   2.37882715E-05   2.29825582E-05  
  16               8.97405892E-03   1.11193732E+02   8.38141458E-01   1.60476765E-01   7.59608283E-04   5.11282624E-04   4.87177187E-05   5.13404591E-06   2.37883162E-05   2.29824697E-05  
  17               1.05775164E-02   1.15652584E+02   8.38121812E-01   1.60473003E-01   7.59608588E-04   5.11282829E-04   4.87177383E-05   5.13404797E-06   2.37883258E-05   2.29819310E-05  
  18               1.24384492E-02   1.21654738E+02   8.38076300E-01   1.60464289E-01   7.59635402E-04   5.11300877E-04   4.87194580E-05   5.13422920E-06   2.37891655E-05   2.29806830E-05  
  19               1.45981300E-02   1.26856986E+02   8.38146365E-01   1.60477704E-01   7.59679048E-04   5.11330255E-04   4.87222573E-05   5.13452420E-06   2.37905324E-05   2.29826043E-05  
  20               1.71042528E-02   1.33689907E+02   8.38146435E-01   1.60477717E-01   7.59632140E-04   5.11298682E-04   4.87192488E-05   5.13420716E-06   2.37890634E-05   2.29826062E-05  
  21               2.00125177E-02   1.39627684E+02   8.38146333E-01   1.60477698E-01   7.59699581E-04   5.11344075E-04   4.87235742E-05   5.13466298E-06   2.37911754E-05   2.29826034E-05  
  22               2.33878991E-02   1.47266346E+02   8.38146331E-01   1.60477698E-01   7.59698955E-04   5.11343654E-04   4.87235340E-05   5.13465874E-06   2.37911558E-05   2.29826033E-05  
  23               2.73051413E-02   1.53935391E+02   8.38146305E-01   1.60477693E-01   7.59699655E-04   5.11344125E-04   4.87235789E-05   5.13466347E-06   2.37911777E-05   2.29826026E-05  
  24               3.18522975E-02   1.62239223E+02   8.38146223E-01   1.60477677E-01   7.59699686E-04   5.11344146E-04   4.87235809E-05   5.13466368E-06   2.37911787E-05   2.29826004E-05  
  25               3.71333416E-02   1.69412622E+02   8.38145725E-01   1.60477582E-01   7.59699774E-04   5.11344205E-04   4.87235865E-05   5.13466428E-06   2.37911814E-05   2.29825867E-05  
  26               4.32675059E-02   1.78272559E+02   8.38144364E-01   1.60477321E-01   7.59700300E-04   5.11344559E-04   4.87236203E-05   5.13466784E-06   2.37911979E-05   2.29825494E-05  
  27               5.03897862E-02   1.86042593E+02   8.38137265E-01   1.60475962E-01   7.59701858E-04   5.11345608E-04   4.87237202E-05   5.13467837E-06   2.37912467E-05   2.29823547E-05  
  28               5.86527025E-02   1.95625881E+02   8.38119466E-01   1.60472554E-01   7.59709712E-04   5.11350894E-04   4.87242239E-05   5.13473145E-06   2.37914926E-05   2.29818667E-05  
  29               6.82260954E-02   2.04333708E+02   8.38055353E-01   1.60460278E-01   7.59731196E-04   5.11365355E-04   4.87256018E-05   5.13487665E-06   2.37921654E-05   2.29801086E-05  
  30               7.93139673E-02   2.13999409E+02   8.37619949E-01   1.60376913E-01   7.59808894E-04   5.11417652E-04   4.87305850E-05   5.13540180E-06   2.37945987E-05   2.29681695E-05  
  31               9.21554240E-02   2.22300025E+02   8.38145602E-01   1.60477558E-01   7.60191201E-04   5.11674978E-04   4.87551044E-05   5.13798574E-06   2.38065712E-05   2.29825833E-05  
  32               1.07034591E-01   2.31312942E+02   8.38145448E-01   1.60477529E-01   7.60294261E-04   5.11744346E-04   4.87617141E-05   5.13868230E-06   2.38097987E-05   2.29825791E-05  
  33               1.24280315E-01   2.38994405E+02   8.38146154E-01   1.60477664E-01   7.59820430E-04   5.11425417E-04   4.87313249E-05   5.13547977E-06   2.37949600E-05   2.29825985E-05  
  34               1.44282396E-01   2.47667300E+02   8.38145444E-01   1.60477528E-01   7.60297300E-04   5.11746392E-04   4.87619091E-05   5.13870284E-06   2.38098939E-05   2.29825790E-05  
  35               1.67491302E-01   2.55463563E+02   8.38145442E-01   1.60477527E-01   7.60298484E-04   5.11747189E-04   4.87619850E-05   5.13871085E-06   2.38099310E-05   2.29825789E-05  
  36               1.94425881E-01   2.64720977E+02   8.38145448E-01   1.60477528E-01   7.60294640E-04   5.11744602E-04   4.87617385E-05   5.13868486E-06   2.38098106E-05   2.29825791E-05  
  37               2.25668874E-01   2.73464549E+02   8.38145442E-01   1.60477527E-01   7.60298521E-04   5.11747214E-04   4.87619874E-05   5.13871110E-06   2.38099321E-05   2.29825789E-05  
  38               2.61879319E-01   2.83866501E+02   8.38145442E-01   1.60477527E-01   7.60298523E-04   5.11747215E-04   4.87619875E-05   5.13871111E-06   2.38099322E-05   2.29825789E-05  
  39               3.03818968E-01   2.94045376E+02   8.38145442E-01   1.60477527E-01   7.60298525E-04   5.11747217E-04   4.87619876E-05   5.13871112E-06   2.38099322E-05   2.29825789E-05  
  40               3.52333214E-01   3.06507901E+02   8.38145442E-01   1.60477527E-01   7.60298527E-04   5.11747218E-04   4.87619877E-05   5.13871113E-06   2.38099323E-05   2.29825789E-05  
  41               4.08294396E-01   3.20564611E+02   8.38145442E-01   1.60477527E-01   7.60298529E-04   5.11747219E-04   4.87619879E-05   5.13871115E-06   2.38099324E-05   2.29825789E-05  
  42               4.72730044E-01   3.35163924E+02   8.38145441E-01   1.60477527E-01   7.60298531E-04   5.11747221E-04   4.87619880E-05   5.13871116E-06   2.38099324E-05   2.29825789E-05  
  43               5.46850337E-01   3.50256932E+02   8.38145441E-01   1.60477527E-01   7.60298533E-04   5.11747222E-04   4.87619882E-05   5.13871118E-06   2.38099325E-05   2.29825789E-05  
  44               6.32060956E-01   3.65935617E+02   8.38145436E-01   1.60477526E-01   7.60298538E-04   5.11747225E-04   4.87619884E-05   5.13871121E-06   2.38099326E-05   2.29825788E-05  
  45               7.29956932E-01   3.82151195E+02   8.38145437E-01   1.60477526E-01   7.60298539E-04   5.11747226E-04   4.87619886E-05   5.13871122E-06   2.38099327E-05   2.29825787E-05  
  46               8.42293168E-01   3.98998677E+02   8.38145077E-01   1.60477456E-01   7.60298581E-04   5.11747254E-04   4.87619912E-05   5.13871150E-06   2.38099340E-05   2.29825688E-05  
  47               9.71042205E-01   4.16414066E+02   8.38145113E-01   1.60477421E-01   7.60298055E-04   5.11746900E-04   4.87619575E-05   5.13870794E-06   2.38099175E-05   2.29825638E-05  
  48               1.11841912E+00   4.34494609E+02   8.38145106E-01   1.60477418E-01   7.60302997E-04   5.11750227E-04   4.87622744E-05   5.13874135E-06   2.38100723E-05   2.29825633E-05  
  49               1.28692545E+00   4.53169205E+02   8.38145086E-01   1.60477411E-01   7.60302997E-04   5.11750227E-04   4.87622745E-05   5.13874135E-06   2.38100723E-05   2.29825622E-05  
  50               1.47927477E+00   4.72533344E+02   8.38144693E-01   1.60477347E-01   7.60303121E-04   5.11750310E-04   4.87622824E-05   5.13874219E-06   2.38100762E-05   2.29825531E-05  
  51               1.69839766E+00   4.92495489E+02   8.38144414E-01   1.60477624E-01   7.60304474E-04   5.11751221E-04   4.87623692E-05   5.13875133E-06   2.38101185E-05   2.29825927E-05  
  52               1.94770835E+00   5.13164750E+02   8.38141726E-01   1.60477072E-01   7.60304514E-04   5.11751248E-04   4.87623718E-05   5.13875160E-06   2.38101198E-05   2.29825137E-05  
  53               2.23138006E+00   5.34478802E+02   8.38142045E-01   1.60476753E-01   7.60304464E-04   5.11751214E-04   4.87623685E-05   5.13875126E-06   2.38101182E-05   2.29824681E-05  
  54               2.55401088E+00   5.56567116E+02   8.38142056E-01   1.60476631E-01   7.60366697E-04   5.11793102E-04   4.87663598E-05   5.13917188E-06   2.38120671E-05   2.29824505E-05  
  55               2.92040663E+00   5.79329056E+02   8.38142235E-01   1.60476453E-01   7.60366385E-04   5.11792892E-04   4.87663398E-05   5.13916977E-06   2.38120574E-05   2.29824250E-05  
  56               3.33539441E+00   6.02855824E+02   8.38142527E-01   1.60476161E-01   7.60366368E-04   5.11792881E-04   4.87663388E-05   5.13916966E-06   2.38120568E-05   2.29823833E-05  
  57               3.80422628E+00   6.27011860E+02   8.38142976E-01   1.60475713E-01   7.60365481E-04   5.11792284E-04   4.87662819E-05   5.13916367E-06   2.38120291E-05   2.29823191E-05  
  58               4.33394363E+00   6.51954739E+02   8.38143634E-01   1.60475057E-01   7.60364146E-04   5.11791386E-04   4.87661963E-05   5.13915465E-06   2.38119873E-05   2.29822252E-05  
  59               4.93231796E+00   6.77592979E+02   8.38144532E-01   1.60474162E-01   7.60362270E-04   5.11790122E-04   4.87660759E-05   5.13914196E-06   2.38119285E-05   2.29820970E-05  
  60               5.60714089E+00   7.04052631E+02   8.38145685E-01   1.60473012E-01   7.60359806E-04   5.11788464E-04   4.87659179E-05   5.13912531E-06   2.38118513E-05   2.29819322E-05  
  61               6.36625487E+00   7.31172586E+02   8.38147056E-01   1.60471642E-01   7.60356770E-04   5.11786421E-04   4.87657232E-05   5.13910479E-06   2.38117563E-05   2.29817360E-05  
  62               7.21769154E+00   7.59045379E+02   8.38148586E-01   1.60470102E-01   7.60353317E-04   5.11784096E-04   4.87655017E-05   5.13908145E-06   2.38116481E-05   2.29815154E-05  
  63               8.17311127E+00   7.87576164E+02   8.38150174E-01   1.60468474E-01   7.60349693E-04   5.11781657E-04   4.87652693E-05   5.13905696E-06   2.38115347E-05   2.29812822E-05  
  64               9.24786003E+00   8.17014152E+02   8.38151656E-01   1.60466795E-01   7.60346278E-04   5.11779359E-04   4.87650503E-05   5.13903388E-06   2.38114277E-05   2.29810416E-05  
  65               1.04567886E+01   8.47238258E+02   8.38153042E-01   1.60465159E-01   7.60343816E-04   5.11777701E-04   4.87648924E-05   5.13901726E-06   2.38113506E-05   2.29808066E-05  
  66               1.18138443E+01   8.78369518E+02   8.38154544E-01   1.60463644E-01   7.60344731E-04   5.11778318E-04   4.87649511E-05   5.13902360E-06   2.38113793E-05   2.29805886E-05  
  67               1.33316388E+01   9.10163995E+02   8.38155901E-01   1.60462256E-01   7.60345829E-04   5.11779057E-04   4.87650215E-05   5.13903182E-06   2.38114136E-05   2.29873116E-05  
  68               1.50215604E+01   9.42673815E+02   8.38157091E-01   1.60460994E-01   7.60343139E-04   5.11777246E-04   4.87648490E-05   5.13901771E-06   2.38113294E-05   2.30045672E-05  
  69               1.69036739E+01   9.75773669E+02   8.38158031E-01   1.60459854E-01   7.60341216E-04   5.11775951E-04   4.87647256E-05   5.13902409E-06   2.38112692E-05   2.30496486E-05  
  70               1.90005489E+01   1.00967783E+03   8.38158595E-01   1.60458794E-01   7.60340962E-04   5.11775781E-04   4.87647094E-05   5.13910747E-06   2.38112612E-05   2.31636850E-05  
  71               2.13331279E+01   1.04418576E+03   8.38158266E-01   1.60457726E-01   7.60344389E-04   5.11778087E-04   4.87649291E-05   5.13947974E-06   2.38113685E-05   2.34345212E-05  
  72               2.39202180E+01   1.07940251E+03   8.38157478E-01   1.60456778E-01   7.60364439E-04   5.11791582E-04   4.87662151E-05   5.14095713E-06   2.38119965E-05   2.42851510E-05  
  73               2.67802275E+01   1.11505997E+03   8.38158207E-01   1.60456040E-01   7.60362355E-04   5.11790175E-04   4.87660818E-05   5.14577249E-06   2.38119314E-05   2.42849619E-05  
  74               2.99353377E+01   1.15130480E+03   8.38158900E-01   1.60455324E-01   7.60360184E-04   5.11788689E-04   4.87659446E-05   5.16189522E-06   2.38118644E-05   2.42847292E-05  
  75               3.34220850E+01   1.18804190E+03   8.38159568E-01   1.60454591E-01   7.60358009E-04   5.11787088E-04   4.87658168E-05   5.21183396E-06   2.38118020E-05   2.42844244E-05  
  76               3.72837168E+01   1.22557298E+03   8.38160221E-01   1.60453768E-01   7.60355720E-04   5.11784857E-04   4.87657295E-05   5.35401478E-06   2.38117593E-05   2.42840022E-05  
  77               4.15584638E+01   1.26370721E+03   8.38160794E-01   1.60452779E-01   7.60351889E-04   5.11779063E-04   4.87657654E-05   5.72344162E-06   2.38117766E-05   2.42834073E-05  
  78               4.62791219E+01   1.30257672E+03   8.38161165E-01   1.60451500E-01   7.60337960E-04   5.11756014E-04   4.87660949E-05   6.57572866E-06   2.38119367E-05   2.42825581E-05  
  79               5.14728283E+01   1.34186040E+03   8.38161165E-01   1.60449818E-01   7.60275724E-04   5.11661680E-04   4.87669280E-05   8.26577716E-06   2.38123402E-05   2.42813627E-05  
  80               5.71616405E+01   1.38162935E+03   8.38160864E-01   1.60447631E-01   7.60033367E-04   5.11322000E-04   4.87683010E-05   1.11015700E-05   2.38129986E-05   2.42796950E-05  
  81               6.33849548E+01   1.42166297E+03   8.38160877E-01   1.60444977E-01   7.59251438E-04   5.10288577E-04   4.87698807E-05   1.52015427E-05   2.38137280E-05   2.42774113E-05  
  82               7.02275366E+01   1.46240442E+03   8.38162511E-01   1.60441978E-01   7.57193131E-04   5.07719878E-04   4.87709518E-05   2.06473089E-05   2.38141154E-05   2.42742310E-05  
  83               7.77671619E+01   1.50374160E+03   8.38167285E-01   1.60438872E-01   7.52882311E-04   5.02692552E-04   4.87710792E-05   2.74837283E-05   2.38137704E-05   2.42696402E-05  
  84               8.60620353E+01   1.54585823E+03   8.38175510E-01   1.60435648E-01   7.45887200E-04   4.95047840E-04   4.87705132E-05   3.58184231E-05   2.38123678E-05   2.42623619E-05  
  85               9.51410292E+01   1.58833782E+03   8.38185191E-01   1.60432008E-01   7.36864994E-04   4.85466812E-04   4.87708302E-05   4.55369890E-05   2.38097188E-05   2.42495450E-05  
  86               1.05003096E+02   1.63113257E+03   8.38196324E-01   1.60428139E-01   7.27173558E-04   4.74361014E-04   4.87691951E-05   5.66291944E-05   2.38027969E-05   2.41833950E-05  
  87               1.15583944E+02   1.67354441E+03   8.38192527E-01   1.60420825E-01   7.15682272E-04   4.62364690E-04   4.87920813E-05   6.85385267E-05   2.38028522E-05   2.41737321E-05  
  88               1.26855856E+02   1.71560132E+03   8.38187907E-01   1.60415755E-01   7.21429623E-04   4.47877873E-04   4.87910925E-05   8.29357293E-05   2.37872865E-05   2.33027605E-05  
  89               1.38865072E+02   1.75715203E+03   8.38199742E-01   1.60410999E-01   7.08641444E-04   4.34586053E-04   4.87856194E-05   9.60965682E-05   2.37744157E-05   2.32969943E-05  
  90               1.51546618E+02   1.79816443E+03   8.38209031E-01   1.60405906E-01   6.96017876E-04   4.21111088E-04   4.87716376E-05   1.09418832E-04   2.37807730E-05   2.32821150E-05  
  91               1.64732808E+02   1.83788251E+03   8.38214492E-01   1.60400629E-01   6.84724365E-04   4.07907918E-04   4.87395191E-05   1.22446250E-04   2.38258505E-05   2.32510385E-05  
  92               1.78916987E+02   1.87800873E+03   8.38213043E-01   1.60394549E-01   6.75593472E-04   3.94280759E-04   4.86789989E-05   1.35864364E-04   2.39193761E-05   2.31852138E-05  
  93               1.93234216E+02   1.91585655E+03   8.38199479E-01   1.60387460E-01   6.71372712E-04   3.81001246E-04   4.85926293E-05   1.48914725E-04   2.40568355E-05   2.30642030E-05  
  94               2.07034735E+02   1.95041269E+03   8.38172760E-01   1.60379412E-01   6.73669033E-04   3.68010034E-04   4.84904225E-05   1.61668857E-04   2.42111702E-05   2.28758072E-05  
  95               2.22075790E+02   1.98589072E+03   8.38123316E-01   1.60368576E-01   6.85011504E-04   3.53423815E-04   4.83642640E-05   1.75983926E-04   2.44063675E-05   2.25848085E-05  
  96               2.38494459E+02   2.02260972E+03   8.38052301E-01   1.60356174E-01   7.12503386E-04   3.35819647E-04   4.82085743E-05   1.93292437E-04   2.46330568E-05   2.21429044E-05  
  97               2.53821386E+02   2.05493113E+03   8.38043647E-01   1.60351567E-01   7.03522320E-04   3.26540464E-04   4.80546396E-05   2.02280104E-04   2.48662775E-05   2.21274752E-05  
  98               2.67207713E+02   2.08204153E+03   8.38033564E-01   1.60347579E-01   6.96285477E-04   3.19034516E-04   4.79163704E-05   2.09519124E-04   2.50732101E-05   2.21128616E-05  
  99               2.82235381E+02   2.11104539E+03   8.38019533E-01   1.60343219E-01   6.88971350E-04   3.11409720E-04   4.77548965E-05   2.16834598E-04   2.53179038E-05   2.20959100E-05  
  100              2.99066617E+02   2.14222112E+03   8.38000556E-01   1.60338354E-01   6.81479444E-04   3.03554738E-04   4.75721104E-05   2.24328012E-04   2.55940824E-05   2.20757985E-05  
  101              3.17868932E+02   2.17524688E+03   8.37933047E-01   1.60324879E-01   6.74054651E-04   2.95728527E-04   4.73601993E-05   2.31709885E-04   2.59125836E-05   2.20516388E-05  
