# ATMO chemical composition profiles
# Chemical abundances given as mole fraction for the 8 most abundant species
# Model Level      Pressure [Ba]    Temperature [K]  H2               He               H                CO               H2O              N2               Mg               SiO             
  1                1.00000000E-05   3.43931147E+02   8.38493958E-01   1.60509759E-01   8.63086675E-29   5.29357348E-04   3.74948144E-04   6.06075353E-05   0.00000000E+00   0.00000000E+00  
  2                2.95539971E-05   4.13970423E+02   8.38494260E-01   1.60509011E-01   2.06254845E-23   5.29355823E-04   3.74947064E-04   6.06073606E-05   0.00000000E+00   0.00000000E+00  
  3                5.05321868E-05   4.43192900E+02   8.38494021E-01   1.60509249E-01   1.04272553E-21   5.29356675E-04   3.74947667E-04   6.06074582E-05   0.00000000E+00   0.00000000E+00  
  4                7.42423208E-05   4.62081136E+02   8.38494036E-01   1.60509234E-01   9.75839169E-21   5.29356646E-04   3.74947646E-04   6.06074549E-05   0.00000000E+00   0.00000000E+00  
  5                1.01336500E-04   4.79172857E+02   8.38494050E-01   1.60509221E-01   6.38307805E-20   5.29356505E-04   3.74947547E-04   6.06074387E-05   0.00000000E+00   0.00000000E+00  
  6                1.32459013E-04   4.91692036E+02   8.38494055E-01   1.60509217E-01   2.26511500E-19   5.29356380E-04   3.74947458E-04   6.06074244E-05   0.00000000E+00   0.00000000E+00  
  7                1.68324111E-04   5.04714174E+02   8.38494063E-01   1.60509210E-01   8.01511902E-19   5.29356096E-04   3.74947257E-04   6.06073919E-05   0.00000000E+00   0.00000000E+00  
  8                2.09727992E-04   5.14869365E+02   8.38494066E-01   1.60509207E-01   2.01268668E-18   5.29356448E-04   3.74947506E-04   6.06074321E-05   0.00000000E+00   0.00000000E+00  
  9                2.57601190E-04   5.26373960E+02   8.38494075E-01   1.60509200E-01   5.56559356E-18   5.29356249E-04   3.74947365E-04   6.06074094E-05   0.00000000E+00   0.00000000E+00  
  10               3.13015851E-04   5.35464997E+02   8.38494081E-01   1.60509197E-01   1.18268427E-17   5.29355303E-04   3.74946695E-04   6.06073011E-05   0.00000000E+00   0.00000000E+00  
  11               3.77212724E-04   5.46177597E+02   8.38494091E-01   1.60509186E-01   2.83324785E-17   5.29357142E-04   3.74947998E-04   6.06075117E-05   0.00000000E+00   0.00000000E+00  
  12               4.51625682E-04   5.54630416E+02   8.38494099E-01   1.60509178E-01   5.40964564E-17   5.29356873E-04   3.74947807E-04   6.06074808E-05   0.00000000E+00   0.00000000E+00  
  13               5.37916642E-04   5.64871602E+02   8.38494120E-01   1.60509159E-01   1.17529698E-16   5.29356334E-04   3.74947425E-04   6.06074191E-05   0.00000000E+00   0.00000000E+00  
  14               6.38003347E-04   5.73001190E+02   8.38494137E-01   1.60509145E-01   2.09538229E-16   5.29354976E-04   3.74946464E-04   6.06072637E-05   0.00000000E+00   0.00000000E+00  
  15               7.54096676E-04   5.83178578E+02   8.38494170E-01   1.60509109E-01   4.31006716E-16   5.29357357E-04   3.74948150E-04   6.06075362E-05   0.00000000E+00   0.00000000E+00  
  16               8.88739982E-04   5.91381615E+02   8.38494199E-01   1.60509078E-01   7.44461382E-16   5.29355886E-04   3.74947108E-04   6.06073678E-05   0.00000000E+00   0.00000000E+00  
  17               1.04486494E-03   6.01759224E+02   8.38494268E-01   1.60509010E-01   1.48433576E-15   5.29355256E-04   3.74946662E-04   6.06072957E-05   0.00000000E+00   0.00000000E+00  
  18               1.22584498E-03   6.10189736E+02   8.38494320E-01   1.60508948E-01   2.51500870E-15   5.29353483E-04   3.74945406E-04   6.06070927E-05   0.00000000E+00   0.00000000E+00  
  19               1.43555152E-03   6.20963171E+02   8.38494453E-01   1.60508812E-01   4.93051945E-15   5.29352660E-04   3.74944823E-04   6.06069985E-05   0.00000000E+00   0.00000000E+00  
  20               1.67847598E-03   6.29849402E+02   8.38494548E-01   1.60508683E-01   8.31825989E-15   5.29350443E-04   3.74943253E-04   6.06067446E-05   0.00000000E+00   0.00000000E+00  
  21               1.95988157E-03   6.41139026E+02   8.38494803E-01   1.60508413E-01   1.61335513E-14   5.29349161E-04   3.74942345E-04   6.06065979E-05   0.00000000E+00   0.00000000E+00  
  22               2.28581425E-03   6.50556922E+02   8.38494933E-01   1.60508136E-01   2.71608487E-14   5.29346358E-04   3.74940359E-04   6.06062770E-05   0.00000000E+00   0.00000000E+00  
  23               2.66321980E-03   6.62483031E+02   8.38495424E-01   1.60507591E-01   5.23630135E-14   5.29344378E-04   3.74938957E-04   6.06060503E-05   0.00000000E+00   0.00000000E+00  
  24               3.10003290E-03   6.72610919E+02   8.38495960E-01   1.60507065E-01   8.86216580E-14   5.29340536E-04   3.74936235E-04   6.06056103E-05   0.00000000E+00   0.00000000E+00  
  25               3.60531926E-03   6.85392224E+02   8.38496887E-01   1.60505931E-01   1.71327242E-13   5.29337201E-04   3.74933874E-04   6.06052286E-05   0.00000000E+00   0.00000000E+00  
  26               4.18937435E-03   6.96423784E+02   8.38498024E-01   1.60504804E-01   2.93284838E-13   5.29331831E-04   3.74930070E-04   6.06046137E-05   0.00000000E+00   0.00000000E+00  
  27               4.86385957E-03   7.10279383E+02   8.38500342E-01   1.60502501E-01   5.72075534E-13   5.29326325E-04   3.74926170E-04   6.06039833E-05   0.00000000E+00   0.00000000E+00  
  28               5.64184859E-03   7.22532554E+02   8.38502849E-01   1.60500010E-01   1.00068378E-12   5.29318847E-04   3.74920873E-04   6.06031271E-05   0.00000000E+00   0.00000000E+00  
  29               6.53798340E-03   7.37831887E+02   8.38507814E-01   1.60495063E-01   1.99081477E-12   5.29309237E-04   3.74914066E-04   6.06020268E-05   0.00000000E+00   0.00000000E+00  
  30               7.56847763E-03   7.51660353E+02   8.38513362E-01   1.60489525E-01   3.58695960E-12   5.29298659E-04   3.74906574E-04   6.06008157E-05   0.00000000E+00   0.00000000E+00  
  31               8.75166019E-03   7.68605063E+02   8.38523545E-01   1.60479349E-01   7.26916829E-12   5.29282115E-04   3.74894855E-04   6.05989216E-05   0.00000000E+00   0.00000000E+00  
  32               1.01093114E-02   7.84092384E+02   8.38534549E-01   1.60468314E-01   1.33879248E-11   5.29264888E-04   3.74882653E-04   6.05969492E-05   0.00000000E+00   0.00000000E+00  
  33               1.16657888E-02   8.02908157E+02   8.38552642E-01   1.60450117E-01   2.75841756E-11   5.29242658E-04   3.74866908E-04   6.05944041E-05   0.00000000E+00   0.00000000E+00  
  34               1.34475872E-02   8.20550782E+02   8.38570933E-01   1.60431519E-01   5.23723044E-11   5.29224389E-04   3.74853968E-04   6.05923124E-05   0.00000000E+00   0.00000000E+00  
  35               1.54837493E-02   8.41743098E+02   8.38596474E-01   1.60405276E-01   1.10424940E-10   5.29188612E-04   3.74828627E-04   6.05882162E-05   0.00000000E+00   0.00000000E+00  
  36               1.78051354E-02   8.61976899E+02   8.38619243E-01   1.60381242E-01   2.16363673E-10   5.29153790E-04   3.74803962E-04   6.05842294E-05   0.00000000E+00   0.00000000E+00  
  37               2.04435978E-02   8.86087897E+02   8.38646706E-01   1.60352730E-01   4.68169152E-10   5.29115957E-04   3.74777165E-04   6.05798977E-05   0.00000000E+00   0.00000000E+00  
  38               2.34307917E-02   9.09591629E+02   8.38669924E-01   1.60329583E-01   9.51456336E-10   5.29083418E-04   3.74754117E-04   6.05761722E-05   0.00000000E+00   0.00000000E+00  
  39               2.67982763E-02   9.37288158E+02   8.38693221E-01   1.60306354E-01   2.11628316E-09   5.29052782E-04   3.74732417E-04   6.05726646E-05   0.00000000E+00   4.24982078E-16  
  40               3.05871721E-02   9.64392492E+02   8.38709724E-01   1.60289900E-01   4.41037006E-09   5.29029923E-04   3.74716226E-04   6.05700474E-05   5.77942536E-16   3.03855685E-15  
  41               3.48423762E-02   9.95860171E+02   8.38723644E-01   1.60276018E-01   9.91560700E-09   5.29011482E-04   3.74703164E-04   6.05679362E-05   4.42957987E-15   2.59466009E-14  
  42               3.96048336E-02   1.02730540E+03   8.38732368E-01   1.60267313E-01   2.11535007E-08   5.28999211E-04   3.74694473E-04   6.05665312E-05   2.89734210E-14   1.87795148E-13  
  43               4.49041595E-02   1.06493209E+03   8.38738812E-01   1.60260863E-01   4.98658993E-08   5.28990346E-04   3.74688193E-04   6.05655162E-05   2.35502365E-13   1.70928252E-12  
  44               5.07553869E-02   1.10333102E+03   8.38742243E-01   1.60257378E-01   1.12552206E-07   5.28985058E-04   3.74684447E-04   6.05649107E-05   1.68150405E-12   1.35876048E-11  
  45               5.71965976E-02   1.14141530E+03   8.38743925E-01   1.60255562E-01   2.38511581E-07   5.28982026E-04   3.74682300E-04   6.05645636E-05   1.01638996E-11   9.06985772E-11  
  46               6.42940178E-02   1.18033683E+03   8.38744661E-01   1.60254543E-01   4.88410966E-07   5.28980211E-04   3.74681015E-04   6.05643558E-05   5.60485323E-11   5.49831553E-10  
  47               7.21253912E-02   1.21914644E+03   8.38744721E-01   1.60253958E-01   9.51524265E-07   5.28979137E-04   3.74680255E-04   6.05642328E-05   2.72774015E-10   2.92296047E-09  
  48               8.07645451E-02   1.25894673E+03   8.38744136E-01   1.60253558E-01   1.80554838E-06   5.28978675E-04   3.74679932E-04   6.05641800E-05   1.24042053E-09   1.44687774E-08  
  49               9.02814851E-02   1.29861762E+03   8.38742631E-01   1.60253217E-01   3.28081043E-06   5.28980408E-04   3.74681173E-04   6.05643784E-05   5.07058787E-09   6.40273440E-08  
  50               1.00744082E-01   1.33920952E+03   8.38739154E-01   1.60252743E-01   5.82332485E-06   5.28986973E-04   3.74685861E-04   6.05651300E-05   1.95116823E-08   2.65890817E-07  
  51               1.12213178E-01   1.37962844E+03   8.38732451E-01   1.60252116E-01   9.95088522E-06   5.29004581E-04   3.74698437E-04   6.05671460E-05   6.80690198E-08   9.96217319E-07  
  52               1.24762222E-01   1.42091314E+03   8.38710746E-01   1.60249143E-01   1.66571475E-05   5.29179392E-04   3.74822518E-04   6.05871608E-05   2.24177777E-07   3.51404484E-06  
  53               1.38459555E-01   1.46184738E+03   8.38699141E-01   1.60251169E-01   2.69214327E-05   5.29211923E-04   3.74846178E-04   6.05908857E-05   4.85439386E-07   1.85805765E-05  
  54               1.53251201E-01   1.50315761E+03   8.38677106E-01   1.60248968E-01   4.25318852E-05   5.29243661E-04   3.74869804E-04   6.05945201E-05   2.37573541E-06   1.95308855E-05  
  55               1.68972872E-01   1.54319202E+03   8.38641834E-01   1.60246280E-01   6.46019193E-05   5.29383389E-04   3.74970728E-04   6.06105194E-05   9.19578006E-06   2.27702393E-05  
  56               1.85290938E-01   1.58226942E+03   8.38564536E-01   1.60239553E-01   9.51392952E-05   5.29548223E-04   3.75090418E-04   6.06293938E-05   2.70427957E-05   3.12402014E-05  
  57               2.01447419E-01   1.61787426E+03   8.38486809E-01   1.60239676E-01   1.32998601E-04   5.30056695E-04   3.75455435E-04   6.06876145E-05   6.64809217E-05   5.02326991E-05  
  58               2.16369047E-01   1.64924072E+03   8.38446744E-01   1.60236164E-01   1.76488657E-04   5.30051588E-04   3.75455697E-04   6.06870348E-05   6.64584597E-05   5.03239688E-05  
  59               2.32946540E-01   1.68167901E+03   8.38364538E-01   1.60225898E-01   2.33580714E-04   5.30022448E-04   3.75437887E-04   6.06837039E-05   6.64314462E-05   5.04150038E-05  
  60               2.47808636E-01   1.70965141E+03   8.38307337E-01   1.60220816E-01   2.94902115E-04   5.30502704E-04   3.75780890E-04   6.07386986E-05   6.64091810E-05   5.04940496E-05  
  61               2.59930168E-01   1.73106401E+03   8.38256226E-01   1.60216345E-01   3.50440724E-04   5.30489101E-04   3.75773990E-04   6.07371496E-05   6.63912657E-05   5.05540336E-05  
  62               2.73387943E-01   1.75433527E+03   8.38191518E-01   1.60210688E-01   4.20763335E-04   5.30471675E-04   3.75764183E-04   6.07351618E-05   6.63711982E-05   5.06188857E-05  
  63               2.88274871E-01   1.77851506E+03   8.38113287E-01   1.60203849E-01   5.05787566E-04   5.30450407E-04   3.75751257E-04   6.07327324E-05   6.63492224E-05   5.06858268E-05  
  64               3.04673306E-01   1.80435742E+03   8.38015225E-01   1.60195280E-01   6.12371518E-04   5.30423549E-04   3.75733686E-04   6.07296598E-05   6.63248046E-05   5.07571117E-05  
  65               3.22635624E-01   1.83089055E+03   8.37897489E-01   1.60184992E-01   7.40328868E-04   5.30391236E-04   3.75711152E-04   6.07259574E-05   6.62982495E-05   5.08299297E-05  
  66               3.42152772E-01   1.85865814E+03   8.37752809E-01   1.60172359E-01   8.97577521E-04   5.30351666E-04   3.75681812E-04   6.07214159E-05   6.62691332E-05   5.09061386E-05  
  67               3.63133471E-01   1.88661895E+03   8.37582830E-01   1.60157514E-01   1.08240964E-03   5.30304626E-04   3.75644586E-04   6.07160058E-05   6.62379619E-05   5.09819789E-05  
  68               3.85844825E-01   1.91557526E+03   8.37377196E-01   1.60139558E-01   1.30603208E-03   5.30245208E-04   3.75594823E-04   6.07091568E-05   6.62039129E-05   5.10601379E-05  
  69               4.10811239E-01   1.94534891E+03   8.37131333E-01   1.60118092E-01   1.57341786E-03   5.30173712E-04   3.75531501E-04   6.07008934E-05   6.61665447E-05   5.11398100E-05  
  70               4.38223235E-01   1.97634705E+03   8.36833203E-01   1.60092067E-01   1.89766325E-03   5.30086447E-04   3.75450553E-04   6.06907792E-05   6.61251813E-05   5.12219803E-05  
  71               4.68288236E-01   2.00809462E+03   8.36478951E-01   1.60061147E-01   2.28296331E-03   5.29982381E-04   3.75349664E-04   6.06786775E-05   6.60797682E-05   5.13049042E-05  
  72               5.01239039E-01   2.04073022E+03   8.36057131E-01   1.60024334E-01   2.74176823E-03   5.29857987E-04   3.75224807E-04   6.06641601E-05   6.60297442E-05   5.13885557E-05  
  73               5.37331577E-01   2.07406851E+03   8.35559868E-01   1.59980941E-01   3.28264687E-03   5.29711220E-04   3.75073466E-04   6.06469629E-05   6.59747991E-05   5.14718236E-05  
  74               5.76854179E-01   2.10793189E+03   8.34979797E-01   1.59930328E-01   3.91360998E-03   5.29539812E-04   3.74894185E-04   6.06267911E-05   6.59146357E-05   5.15535102E-05  
  75               6.20119719E-01   2.14251136E+03   8.34301305E-01   1.59871131E-01   4.65163548E-03   5.29339581E-04   3.74686805E-04   6.06031298E-05   6.58485139E-05   5.16333478E-05  
  76               6.67477536E-01   2.17725645E+03   8.33526682E-01   1.59803552E-01   5.49422422E-03   5.29111154E-04   3.74460463E-04   6.05760183E-05   6.57766352E-05   5.17089057E-05  
  77               7.19304376E-01   2.21278832E+03   8.32627013E-01   1.59725066E-01   6.47280688E-03   5.28846334E-04   3.74230818E-04   6.05444991E-05   6.56976013E-05   5.17808143E-05  
  78               7.76020098E-01   2.24806331E+03   8.31624911E-01   1.59637643E-01   7.56273551E-03   5.28551608E-04   3.74057149E-04   6.05093183E-05   6.56125546E-05   5.18453836E-05  
  79               8.38078438E-01   2.28409977E+03   8.30474277E-01   1.59537248E-01   8.81401929E-03   5.28213065E-04   3.74074642E-04   6.04689205E-05   6.55193027E-05   5.19039050E-05  
  80               9.05974603E-01   2.31955239E+03   8.29219139E-01   1.59427482E-01   1.01762211E-02   5.27842444E-04   3.74732427E-04   6.04247446E-05   6.54198033E-05   5.19522780E-05  
  81               9.80204362E-01   2.35574186E+03   8.27792372E-01   1.59303801E-01   1.17217673E-02   5.27452697E-04   3.77562970E-04   6.03784640E-05   6.53115442E-05   5.20241150E-05  
  82               1.06136923E+00   2.39116875E+03   8.26272658E-01   1.59171183E-01   1.33739729E-02   5.27006555E-04   3.78066927E-04   6.03250575E-05   6.51971174E-05   5.20512862E-05  
  83               1.15017338E+00   2.42739842E+03   8.24563781E-01   1.59022141E-01   1.52326557E-02   5.26508794E-04   3.77724279E-04   6.02653661E-05   6.50726266E-05   5.20675746E-05  
  84               1.24733795E+00   2.46272692E+03   8.22767909E-01   1.58865537E-01   1.71861658E-02   5.25988080E-04   3.77129182E-04   6.02026933E-05   6.49423606E-05   5.20704246E-05  
  85               1.35361853E+00   2.49886255E+03   8.20767187E-01   1.58691079E-01   1.93625488E-02   5.25408315E-04   3.76413802E-04   6.01328563E-05   6.48012414E-05   5.20598185E-05  
  86               1.46983489E+00   2.53406370E+03   8.18690315E-01   1.58509986E-01   2.16217721E-02   5.24806960E-04   3.75653746E-04   6.00600369E-05   6.46545615E-05   5.20346278E-05  
  87               1.59688238E+00   2.56999714E+03   8.16403710E-01   1.58310611E-01   2.41091376E-02   5.24144531E-04   3.74811810E-04   5.99796512E-05   6.44967056E-05   5.19933995E-05  
  88               1.73571472E+00   2.60498600E+03   8.14056384E-01   1.58105946E-01   2.66625481E-02   5.23464623E-04   3.73937283E-04   5.98965612E-05   6.43336658E-05   5.19366544E-05  
  89               1.88736758E+00   2.64060121E+03   8.11503994E-01   1.57883406E-01   2.94390193E-02   5.22725064E-04   3.72979305E-04   5.98057935E-05   6.41595014E-05   5.18614178E-05  
  90               2.05293283E+00   2.67537812E+03   8.08898928E-01   1.57656277E-01   3.22727809E-02   5.21970101E-04   3.71991455E-04   5.97122746E-05   6.39802297E-05   5.17695865E-05  
  91               2.23359237E+00   2.71061313E+03   8.06106647E-01   1.57412828E-01   3.53101823E-02   5.21160666E-04   3.70923527E-04   5.96112513E-05   6.37904078E-05   5.16570521E-05  
  92               2.43059263E+00   2.74508788E+03   8.03274057E-01   1.57165869E-01   3.83914173E-02   5.20339241E-04   3.69829556E-04   5.95074134E-05   6.35957401E-05   5.15267505E-05  
  93               2.64528370E+00   2.77986624E+03   8.00278722E-01   1.56904724E-01   4.16496711E-02   5.19470379E-04   3.68662285E-04   5.93962410E-05   6.33913424E-05   5.13737924E-05  
  94               2.87907810E+00   2.81406381E+03   7.97242028E-01   1.56639976E-01   4.49528953E-02   5.18589112E-04   3.67467753E-04   5.92814709E-05   6.31818578E-05   5.12011677E-05  
  95               3.13350508E+00   2.84843674E+03   7.94068876E-01   1.56363333E-01   4.84045398E-02   5.17667929E-04   3.66208315E-04   5.91592597E-05   6.29635349E-05   5.10039656E-05  
  96               3.41016903E+00   2.88239022E+03   7.90851553E-01   1.56082841E-01   5.19042092E-02   5.16733427E-04   3.64919937E-04   5.90321849E-05   6.27398509E-05   5.07846511E-05  
  97               3.71083077E+00   2.91635216E+03   7.87534673E-01   1.55793672E-01   5.55121526E-02   5.15769563E-04   3.63580278E-04   5.88974518E-05   6.25086118E-05   5.05393374E-05  
  98               4.03734235E+00   2.95010352E+03   7.84159567E-01   1.55499429E-01   5.91834061E-02   5.14788209E-04   3.62205794E-04   5.87555454E-05   6.22713224E-05   5.02684857E-05  
  99               4.39172778E+00   2.98369963E+03   7.80726091E-01   1.55200098E-01   6.29181242E-02   5.13789258E-04   3.60796490E-04   5.86052473E-05   6.20278951E-05   4.99706145E-05  
  100              4.77610747E+00   3.01729908E+03   7.77213979E-01   1.54893912E-01   6.67383491E-02   5.12766789E-04   3.59343973E-04   5.84442519E-05   6.17775153E-05   4.96429312E-05  
  101              5.19274403E+00   3.05053987E+03   7.73695569E-01   1.54587179E-01   7.05653881E-02   5.11741598E-04   3.57878851E-04   5.82736661E-05   6.15228117E-05   4.92882540E-05  
