# ATMO chemical composition profiles
# Chemical abundances given as mole fraction for the 8 most abundant species
# Model Level      Pressure [Ba]    Temperature [K]  H2               He               H2O              CH4              H                CO               N2               NH3             
  1                1.00000000E-05   5.17950390E+01   8.38141273E-01   1.60476733E-01   7.62407093E-04   5.13789498E-04   3.16322373E-109  5.12305695E-06   4.78664659E-05   2.55357450E-05  
  2                3.00101875E-05   6.66333493E+01   8.38141273E-01   1.60476733E-01   7.62407100E-04   5.13789503E-04   1.82597806E-109  5.12305700E-06   4.78664664E-05   2.55357453E-05  
  3                5.47878652E-05   7.24342704E+01   8.38141273E-01   1.60476733E-01   7.62407105E-04   5.13789506E-04   1.35141184E-109  5.12305703E-06   4.78664667E-05   2.55357455E-05  
  4                8.52090692E-05   7.58988653E+01   8.38141273E-01   1.60476733E-01   7.62407109E-04   5.13789509E-04   1.08364492E-109  5.12305706E-06   4.78664670E-05   2.55357456E-05  
  5                1.22112092E-04   8.09358152E+01   8.38141273E-01   1.60476733E-01   7.62407111E-04   5.13789510E-04   9.05212568E-110  5.12305707E-06   4.78664671E-05   2.55357457E-05  
  6                1.66707463E-04   8.38746488E+01   8.38141273E-01   1.60476733E-01   7.62407113E-04   5.13789511E-04   7.74733596E-110  5.12305708E-06   4.78664672E-05   2.55357457E-05  
  7                2.20610985E-04   8.88885326E+01   8.38141273E-01   1.60476733E-01   7.62407114E-04   5.13789512E-04   6.73467036E-110  5.12305709E-06   4.78664673E-05   2.55357457E-05  
  8                2.85919321E-04   9.19134207E+01   8.38141273E-01   1.60476733E-01   7.62407114E-04   5.13789512E-04   5.91572747E-110  5.12305709E-06   4.78664673E-05   2.55357458E-05  
  9                3.65175763E-04   9.71200055E+01   8.38141273E-01   1.60476733E-01   7.62407115E-04   5.13789513E-04   5.23454499E-110  5.12305710E-06   4.78664673E-05   2.55357458E-05  
  10               4.61493362E-04   1.00171301E+02   8.38128360E-01   1.60474260E-01   7.62404276E-04   5.13787599E-04   7.26913380E-110  5.12303802E-06   4.78662891E-05   2.55356507E-05  
  11               5.78654245E-04   1.05703340E+02   8.38141272E-01   1.60476732E-01   7.62408023E-04   5.13790125E-04   5.28449395E-104  5.12306320E-06   4.78665244E-05   2.55357762E-05  
  12               7.21264878E-04   1.08977057E+02   8.38053192E-01   1.60459868E-01   7.62341884E-04   5.13745553E-04   7.77676424E-101  5.12261878E-06   4.78623719E-05   2.55335610E-05  
  13               8.95000256E-04   1.14977669E+02   8.38141135E-01   1.60476706E-01   7.62499808E-04   5.13851979E-04   1.83546291E-95   5.12367995E-06   4.78722869E-05   2.55388504E-05  
  14               1.10674502E-03   1.18671528E+02   8.38141136E-01   1.60476706E-01   7.62499129E-04   5.13851521E-04   1.91398594E-92   5.12367539E-06   4.78722443E-05   2.55388277E-05  
  15               1.36481095E-03   1.25337693E+02   8.38141135E-01   1.60476706E-01   7.62499816E-04   5.13851984E-04   2.04333148E-87   5.12368001E-06   4.78722874E-05   2.55388507E-05  
  16               1.67926885E-03   1.29462478E+02   8.38141135E-01   1.60476706E-01   7.62499817E-04   5.13851985E-04   1.39238996E-84   5.12368002E-06   4.78722875E-05   2.55388507E-05  
  17               2.06264498E-03   1.36476057E+02   8.38141134E-01   1.60476706E-01   7.62499818E-04   5.13851986E-04   3.93489666E-80   5.12368002E-06   4.78722875E-05   2.55388507E-05  
  18               2.53022133E-03   1.40775503E+02   8.38141126E-01   1.60476705E-01   7.62499817E-04   5.13851985E-04   1.21794104E-77   5.12368002E-06   4.78722875E-05   2.55388507E-05  
  19               3.10053734E-03   1.48317554E+02   8.38141116E-01   1.60476703E-01   7.62499809E-04   5.13851980E-04   1.36233780E-73   5.12367997E-06   4.78722870E-05   2.55388504E-05  
  20               3.79617562E-03   1.52996916E+02   8.38140728E-01   1.60476628E-01   7.62499774E-04   5.13851956E-04   2.67495252E-71   5.12367973E-06   4.78722848E-05   2.55388493E-05  
  21               4.64483059E-03   1.60946424E+02   8.38141135E-01   1.60476706E-01   7.62499926E-04   5.13852058E-04   1.10396476E-67   5.12368075E-06   4.78722943E-05   2.55388544E-05  
  22               5.68042916E-03   1.65861378E+02   8.38136779E-01   1.60475872E-01   7.62499330E-04   5.13851656E-04   1.22112931E-65   5.12367674E-06   4.78722569E-05   2.55388344E-05  
  23               6.94437301E-03   1.74231971E+02   8.38141133E-01   1.60476706E-01   7.62501189E-04   5.13852909E-04   2.12815096E-62   5.12368924E-06   4.78723736E-05   2.55388967E-05  
  24               8.48685349E-03   1.79442507E+02   8.38104358E-01   1.60469665E-01   7.62496346E-04   5.13849646E-04   1.49578335E-60   5.12365669E-06   4.78720695E-05   2.55387345E-05  
  25               1.03686188E-02   1.88224868E+02   8.38141199E-01   1.60476719E-01   7.62456779E-04   5.13822982E-04   1.20658332E-57   5.12339082E-06   4.78695854E-05   2.55374092E-05  
  26               1.26623420E-02   1.93939725E+02   8.38037030E-01   1.60456773E-01   7.62538294E-04   5.13877915E-04   6.52756591E-56   5.12393857E-06   4.78747032E-05   2.55401394E-05  
  27               1.54565933E-02   2.03252028E+02   8.37631486E-01   1.60379125E-01   7.62135885E-04   5.13606730E-04   2.83730114E-53   5.12123455E-06   4.78494386E-05   2.55266613E-05  
  28               1.88593662E-02   2.09329537E+02   8.38140240E-01   1.60476535E-01   7.63099896E-04   5.14256381E-04   1.07634956E-51   5.12771229E-06   4.79099624E-05   2.55589495E-05  
  29               2.30026506E-02   2.18874296E+02   8.38140239E-01   1.60476535E-01   7.63100924E-04   5.14257074E-04   2.26332803E-49   5.12771921E-06   4.79100270E-05   2.55589840E-05  
  30               2.80449806E-02   2.25146887E+02   8.38140245E-01   1.60476536E-01   7.63096887E-04   5.14254353E-04   5.72355978E-48   5.12769208E-06   4.79097735E-05   2.55588487E-05  
  31               3.41779050E-02   2.34746579E+02   8.38140239E-01   1.60476535E-01   7.63100967E-04   5.14257102E-04   6.00516221E-46   5.12771949E-06   4.79100297E-05   2.55589854E-05  
  32               4.16318192E-02   2.41147980E+02   8.38140239E-01   1.60476535E-01   7.63100970E-04   5.14257105E-04   1.04930527E-44   5.12771952E-06   4.79100299E-05   2.55589855E-05  
  33               5.06914812E-02   2.50983373E+02   8.38140239E-01   1.60476535E-01   7.63100974E-04   5.14257107E-04   6.69147735E-43   5.12771954E-06   4.79100301E-05   2.55589856E-05  
  34               6.16963302E-02   2.57843184E+02   8.38140239E-01   1.60476535E-01   7.63100978E-04   5.14257110E-04   9.73223137E-42   5.12771957E-06   4.79100303E-05   2.55589857E-05  
  35               7.50599588E-02   2.68070988E+02   8.38140239E-01   1.60476535E-01   7.63100982E-04   5.14257113E-04   4.25269343E-40   5.12771959E-06   4.79100306E-05   2.55589859E-05  
  36               9.12792100E-02   2.75409210E+02   8.38140239E-01   1.60476535E-01   7.63100986E-04   5.14257115E-04   5.21190053E-39   5.12771962E-06   4.79100309E-05   2.55589860E-05  
  37               1.10953829E-01   2.86190216E+02   8.38140239E-01   1.60476535E-01   7.63100991E-04   5.14257119E-04   1.70289902E-37   5.12771966E-06   4.79100312E-05   2.55589862E-05  
  38               1.34803674E-01   2.94258841E+02   8.38140239E-01   1.60476535E-01   7.63100996E-04   5.14257122E-04   1.90348013E-36   5.12771969E-06   4.79100315E-05   2.55589864E-05  
  39               1.63709291E-01   3.05787915E+02   8.38140239E-01   1.60476535E-01   7.63101002E-04   5.14257126E-04   4.96927497E-35   5.12771973E-06   4.79100318E-05   2.55589865E-05  
  40               1.98729671E-01   3.14783808E+02   8.38140238E-01   1.60476535E-01   7.63101007E-04   5.14257130E-04   5.23195416E-34   5.12771977E-06   4.79100322E-05   2.55589867E-05  
  41               2.41141984E-01   3.27337249E+02   8.38140238E-01   1.60476535E-01   7.63101017E-04   5.14257136E-04   1.16071037E-32   5.12771983E-06   4.79100328E-05   2.55589870E-05  
  42               2.92460306E-01   3.37553901E+02   8.38140238E-01   1.60476534E-01   7.63101023E-04   5.14257140E-04   1.19302382E-31   5.12771987E-06   4.79100332E-05   2.55589872E-05  
  43               3.54474052E-01   3.51495573E+02   8.38140238E-01   1.60476534E-01   7.63101044E-04   5.14257155E-04   2.36898926E-30   5.12772001E-06   4.79100345E-05   2.55589880E-05  
  44               4.29297133E-01   3.63476401E+02   8.38140234E-01   1.60476533E-01   7.63101049E-04   5.14257158E-04   2.52649870E-29   5.12772005E-06   4.79100348E-05   2.55589881E-05  
  45               5.19453610E-01   3.79487299E+02   8.38140234E-01   1.60476533E-01   7.63101124E-04   5.14257208E-04   4.84764881E-28   5.12772055E-06   4.79100395E-05   2.55589906E-05  
  46               6.27899576E-01   3.93736860E+02   8.38139979E-01   1.60476484E-01   7.63100949E-04   5.14257090E-04   5.40687327E-27   5.12771937E-06   4.79100285E-05   2.55589848E-05  
  47               7.58048686E-01   4.12283710E+02   8.38139998E-01   1.60476457E-01   7.63105197E-04   5.14259953E-04   9.92678460E-26   5.12774792E-06   4.79102953E-05   2.55591271E-05  
  48               9.13727970E-01   4.29671354E+02   8.38139998E-01   1.60476455E-01   7.63105227E-04   5.14259974E-04   1.19599820E-24   5.12774812E-06   4.79102972E-05   2.55591281E-05  
  49               1.09954306E+00   4.51857907E+02   8.38139974E-01   1.60476445E-01   7.63105225E-04   5.14259972E-04   2.20765522E-23   5.12774811E-06   4.79102970E-05   2.55591280E-05  
  50               1.32067661E+00   4.73156757E+02   8.38139586E-01   1.60476385E-01   7.63105147E-04   5.14259920E-04   2.77780033E-22   5.12774758E-06   4.79102921E-05   2.55591254E-05  
  51               1.58281142E+00   4.99540995E+02   8.38136497E-01   1.60476101E-01   7.63109229E-04   5.14262670E-04   4.80987780E-21   5.12777501E-06   4.79105484E-05   2.55592621E-05  
  52               1.89218339E+00   5.25297261E+02   8.38136740E-01   1.60475750E-01   7.63169606E-04   5.14303359E-04   5.85756412E-20   5.12818072E-06   4.79143391E-05   2.55612844E-05  
  53               2.25744370E+00   5.54236718E+02   8.38136889E-01   1.60475601E-01   7.63169917E-04   5.14303568E-04   7.39430249E-19   5.12818281E-06   4.79143586E-05   2.55612948E-05  
  54               2.68789729E+00   5.83369194E+02   8.38137174E-01   1.60475317E-01   7.63169319E-04   5.14303165E-04   7.32416270E-18   5.12817879E-06   4.79143210E-05   2.55612747E-05  
  55               3.19339276E+00   6.14829683E+02   8.38137729E-01   1.60474765E-01   7.63168125E-04   5.14302361E-04   6.83185938E-17   5.12817077E-06   4.79142461E-05   2.55612348E-05  
  56               3.78437817E+00   6.46178289E+02   8.38138596E-01   1.60473900E-01   7.63166239E-04   5.14301090E-04   5.06443880E-16   5.12815810E-06   4.79141277E-05   2.55611716E-05  
  57               4.47555966E+00   6.80023338E+02   8.38139968E-01   1.60472533E-01   7.63163233E-04   5.14299064E-04   3.58201704E-15   5.12813790E-06   4.79139390E-05   2.55610709E-05  
  58               5.28294742E+00   7.13776553E+02   8.38141671E-01   1.60470832E-01   7.63159463E-04   5.14296523E-04   2.08353804E-14   5.12811256E-06   4.79137022E-05   2.55609446E-05  
  59               6.22275082E+00   7.50157028E+02   8.38143799E-01   1.60468693E-01   7.63154744E-04   5.14293343E-04   1.16502076E-13   5.12808085E-06   4.79134060E-05   2.55607866E-05  
  60               7.31224189E+00   7.86196444E+02   8.38145866E-01   1.60466557E-01   7.63150281E-04   5.14290335E-04   5.44862274E-13   5.12805086E-06   4.79131258E-05   2.55606371E-05  
  61               8.57774441E+00   8.25082277E+02   8.38147934E-01   1.60464274E-01   7.63146546E-04   5.14287818E-04   2.47696738E-12   5.12802577E-06   4.79128913E-05   2.55605120E-05  
  62               1.00496691E+01   8.63755898E+02   8.38149702E-01   1.60462290E-01   7.63146977E-04   5.14288109E-04   9.70233408E-12   5.12802872E-06   4.79129183E-05   2.55605264E-05  
  63               1.17560982E+01   9.05469477E+02   8.38151553E-01   1.60460403E-01   7.63146940E-04   5.14288084E-04   3.71587547E-11   5.12802893E-06   4.79129160E-05   2.55605252E-05  
  64               1.37215551E+01   9.46564050E+02   8.38152946E-01   1.60458881E-01   7.63143941E-04   5.14286063E-04   1.23588108E-10   5.12801271E-06   4.79127277E-05   2.55604247E-05  
  65               1.59751393E+01   9.90528646E+02   8.38153966E-01   1.60457425E-01   7.63142474E-04   5.14285074E-04   4.00683308E-10   5.12803103E-06   4.79126356E-05   2.55603756E-05  
  66               1.85620215E+01   1.03373887E+03   8.38153801E-01   1.60456135E-01   7.63145338E-04   5.14287004E-04   1.14867433E-09   5.12823731E-06   4.79128154E-05   2.55604715E-05  
  67               2.15259617E+01   1.08005958E+03   8.38153137E-01   1.60454923E-01   7.63166027E-04   5.14300946E-04   3.23809915E-09   5.12943403E-06   4.79141144E-05   2.55611645E-05  
  68               2.49081892E+01   1.12534285E+03   8.38154010E-01   1.60454038E-01   7.63163463E-04   5.14299213E-04   8.16913383E-09   5.13498910E-06   4.79139539E-05   2.55610788E-05  
  69               2.87582652E+01   1.17153289E+03   8.38154866E-01   1.60453143E-01   7.63160849E-04   5.14297399E-04   1.94600911E-08   5.15997527E-06   4.79137939E-05   2.55609935E-05  
  70               3.31446476E+01   1.21259553E+03   8.38155476E-01   1.60452411E-01   7.63158662E-04   5.14295506E-04   3.93938195E-08   5.25640569E-06   4.79136912E-05   2.55609387E-05  
  71               3.81637286E+01   1.25606256E+03   8.38156120E-01   1.60451422E-01   7.63154666E-04   5.14290412E-04   7.90624503E-08   5.55350625E-06   4.79136420E-05   2.55609124E-05  
  72               4.39029707E+01   1.29558176E+03   8.38156317E-01   1.60450417E-01   7.63140245E-04   5.14268216E-04   1.41683252E-07   6.31356320E-06   4.79138127E-05   2.55610030E-05  
  73               5.04363573E+01   1.33891437E+03   8.38156286E-01   1.60448838E-01   7.63075626E-04   5.14173737E-04   2.59037734E-07   7.92744667E-06   4.79142858E-05   2.55612533E-05  
  74               5.78224247E+01   1.37955610E+03   8.38155854E-01   1.60447108E-01   7.62809810E-04   5.13807652E-04   4.37795306E-07   1.04965426E-05   4.79151031E-05   2.55616808E-05  
  75               6.61439151E+01   1.42523720E+03   8.38155936E-01   1.60444543E-01   7.61943625E-04   5.12670876E-04   7.66153433E-07   1.45842547E-05   4.79161775E-05   2.55622193E-05  
  76               7.55689400E+01   1.46931997E+03   8.38158072E-01   1.60442112E-01   7.59575222E-04   5.09776438E-04   1.26558438E-06   1.95372774E-05   4.79168692E-05   2.55624558E-05  
  77               8.62381955E+01   1.51916399E+03   8.38163882E-01   1.60438947E-01   7.54386663E-04   5.03846099E-04   2.16660062E-06   2.69158347E-05   4.79171021E-05   2.55620697E-05  
  78               9.82360701E+01   1.56794431E+03   8.38172640E-01   1.60435909E-01   7.46667323E-04   4.95605512E-04   3.53320252E-06   3.53395027E-05   4.79167375E-05   2.55601316E-05  
  79               1.11577525E+02   1.62273698E+03   8.38184647E-01   1.60431460E-01   7.35347457E-04   4.83613337E-04   5.94102084E-06   4.74082541E-05   4.79165001E-05   2.55540204E-05  
  80               1.26189107E+02   1.67683714E+03   8.38181506E-01   1.60423542E-01   7.23099221E-04   4.69937987E-04   9.57805466E-06   6.09834654E-05   4.79164036E-05   2.55396994E-05  
  81               1.42046436E+02   1.73092468E+03   8.38178487E-01   1.60417614E-01   7.26816264E-04   4.53167585E-04   1.49712756E-05   7.76291363E-05   4.79377040E-05   2.55279926E-05  
  82               1.59230984E+02   1.78368607E+03   8.38190529E-01   1.60411813E-01   7.11877436E-04   4.37498154E-04   2.24968079E-05   9.31222896E-05   4.79267072E-05   2.55201871E-05  
  83               1.77840873E+02   1.83664677E+03   8.38198165E-01   1.60405285E-01   6.97376642E-04   4.21040294E-04   3.30422706E-05   1.09357545E-04   4.78903843E-05   2.55613377E-05  
  84               1.97832617E+02   1.88811626E+03   8.38192882E-01   1.60397507E-01   6.86776137E-04   4.04789368E-04   4.69249711E-05   1.25338431E-04   4.78010249E-05   2.57063228E-05  
  85               2.18844769E+02   1.93857538E+03   8.38168555E-01   1.60387782E-01   6.84194729E-04   3.87636895E-04   6.49532011E-05   1.42168944E-04   4.76657412E-05   2.59068009E-05  
  86               2.40206944E+02   1.98535524E+03   8.38113334E-01   1.60375140E-01   6.95326015E-04   3.70133734E-04   8.63572299E-05   1.59320319E-04   4.74863423E-05   2.61814232E-05  
  87               2.63857262E+02   2.03407862E+03   8.38031880E-01   1.60360654E-01   7.25582417E-04   3.48862468E-04   1.14519727E-04   1.80187405E-04   4.72794039E-05   2.64959727E-05  
  88               2.87824039E+02   2.07927646E+03   8.38017563E-01   1.60354357E-01   7.13786562E-04   3.36626484E-04   1.46807156E-04   1.91990122E-04   4.70369889E-05   2.68702331E-05  
  89               3.11245636E+02   2.12121259E+03   8.37997834E-01   1.60348159E-01   7.03338713E-04   3.25717741E-04   1.83063686E-04   2.02441494E-04   4.68002995E-05   2.72307927E-05  
  90               3.38104883E+02   2.16559441E+03   8.37959068E-01   1.60339502E-01   6.93337145E-04   3.15170892E-04   2.28749749E-04   2.12436388E-04   4.65093092E-05   2.76821257E-05  
  91               3.63158981E+02   2.20493338E+03   8.37925904E-01   1.60333081E-01   6.84993024E-04   3.06277276E-04   2.76527935E-04   2.20788315E-04   4.62404091E-05   2.80957690E-05  
  92               3.85309252E+02   2.23742662E+03   8.37892521E-01   1.60327529E-01   6.78783159E-04   2.99564263E-04   3.21505729E-04   2.27010414E-04   4.59927278E-05   2.84822382E-05  
  93               4.11195231E+02   2.27400173E+03   8.37848228E-01   1.60320834E-01   6.72147405E-04   2.92280861E-04   3.78944879E-04   2.33691090E-04   4.57085807E-05   2.89202581E-05  
  94               4.41320738E+02   2.31373377E+03   8.37757623E-01   1.60306715E-01   6.65674423E-04   2.85113381E-04   4.49857766E-04   2.40119050E-04   4.53677540E-05   2.94471969E-05  
  95               4.65689514E+02   2.34448888E+03   8.37700470E-01   1.60300114E-01   6.65408925E-04   2.78997515E-04   5.11582785E-04   2.45649318E-04   4.50993135E-05   2.98659052E-05  
  96               4.84430656E+02   2.36700448E+03   8.37659183E-01   1.60295227E-01   6.62410536E-04   2.75427134E-04   5.60624842E-04   2.48751759E-04   4.48883908E-05   3.01951155E-05  
  97               5.06886279E+02   2.39327385E+03   8.37606612E-01   1.60289206E-01   6.59062164E-04   2.71384098E-04   6.22416468E-04   2.52218368E-04   4.46394408E-05   3.05809752E-05  
  98               5.33703353E+02   2.42315117E+03   8.37540769E-01   1.60282007E-01   6.55648786E-04   2.67143859E-04   6.98695395E-04   2.55761211E-04   4.43405050E-05   3.10467307E-05  
  99               5.65611869E+02   2.45713669E+03   8.37457680E-01   1.60273263E-01   6.52131116E-04   2.62635778E-04   7.93841514E-04   2.59419999E-04   4.39879091E-05   3.15951721E-05  
  100              6.03433155E+02   2.49531334E+03   8.37353407E-01   1.60262705E-01   6.48670762E-04   2.57995575E-04   9.11899295E-04   2.63031730E-04   4.35733297E-05   3.22401428E-05  
  101              6.48102311E+02   2.53751252E+03   8.37224032E-01   1.60250106E-01   6.45526751E-04   2.53457345E-04   1.05674306E-03   2.66336253E-04   4.30862086E-05   3.30011261E-05  
