# ATMO chemical composition profiles
# Chemical abundances given as mole fraction for the 8 most abundant species
# Model Level      Pressure [Ba]    Temperature [K]  H2               He               H2O              CH4              CO               N2               H2S              H               
  1                1.00000000E-05   4.50367523E+01   8.38296072E-01   1.60506374E-01   6.15744524E-04   3.76095482E-04   1.14353974E-04   5.67412715E-05   2.29869267E-05   3.16380670E-109 
  2                6.66450893E-05   5.64790897E+01   8.38296072E-01   1.60506374E-01   6.15744645E-04   3.76095556E-04   1.14353997E-04   5.67412827E-05   2.29869267E-05   1.22553541E-109 
  3                1.33123770E-04   6.33671901E+01   8.38296072E-01   1.60506374E-01   6.15744727E-04   3.76095606E-04   1.14354012E-04   5.67412903E-05   2.29869266E-05   8.67125858E-110 
  4                2.11145276E-04   6.84164605E+01   8.38296072E-01   1.60506374E-01   6.15744786E-04   3.76095642E-04   1.14354023E-04   5.67412957E-05   2.29869266E-05   6.88524276E-110 
  5                3.02691806E-04   7.26963365E+01   8.38296072E-01   1.60506374E-01   6.15744835E-04   3.76095672E-04   1.14354032E-04   5.67413002E-05   2.29869266E-05   5.75055299E-110 
  6                4.08811919E-04   7.67497927E+01   8.38296072E-01   1.60506374E-01   6.15744877E-04   3.76095698E-04   1.14354040E-04   5.67413041E-05   2.29869266E-05   4.94821050E-110 
  7                5.30522239E-04   8.05381570E+01   8.38296072E-01   1.60506374E-01   6.15744917E-04   3.76095722E-04   1.14354047E-04   5.67413078E-05   2.29869266E-05   4.34368322E-110 
  8                6.69591322E-04   8.43402236E+01   8.38296071E-01   1.60506374E-01   6.15744955E-04   3.76095746E-04   1.14354054E-04   5.67413113E-05   2.29869266E-05   3.86638443E-110 
  9                8.28517467E-04   8.80806781E+01   8.38296071E-01   1.60506374E-01   6.15744994E-04   3.76095769E-04   1.14354061E-04   5.67413149E-05   2.29869266E-05   3.47583464E-110 
  10               1.01059741E-03   9.19743155E+01   8.38296071E-01   1.60506374E-01   6.15745033E-04   3.76095793E-04   1.14354068E-04   5.67413184E-05   2.29869266E-05   3.14717470E-110 
  11               1.21950754E-03   9.58813875E+01   8.38296071E-01   1.60506374E-01   6.15745060E-04   3.76095809E-04   1.14354073E-04   5.67413209E-05   2.29869266E-05   2.86495429E-110 
  12               1.45941958E-03   1.00086011E+02   8.38295169E-01   1.60506201E-01   6.15745077E-04   3.76095820E-04   1.14354077E-04   5.67413225E-05   2.29869019E-05   3.27589304E-110 
  13               1.73518556E-03   1.04331187E+02   8.38292530E-01   1.60505696E-01   6.15740451E-04   3.76092994E-04   1.14353218E-04   5.67408962E-05   2.29868295E-05   1.19369505E-105 
  14               2.05246102E-03   1.08884585E+02   8.38283790E-01   1.60504022E-01   6.15748412E-04   3.76097857E-04   1.14354696E-04   5.67416299E-05   2.29865899E-05   3.76393746E-101 
  15               2.41780643E-03   1.13519258E+02   8.38211106E-01   1.60490105E-01   6.15688918E-04   3.76061518E-04   1.14343647E-04   5.67361474E-05   2.29845968E-05   6.07184583E-97  
  16               2.83866368E-03   1.18607475E+02   8.38295951E-01   1.60506351E-01   6.15820429E-04   3.76141845E-04   1.14368071E-04   5.67482663E-05   2.29869233E-05   1.06162743E-92  
  17               3.32355184E-03   1.23833838E+02   8.38295951E-01   1.60506351E-01   6.15820378E-04   3.76141814E-04   1.14368061E-04   5.67482616E-05   2.29869233E-05   1.04740327E-88  
  18               3.88218681E-03   1.29512411E+02   8.38295951E-01   1.60506351E-01   6.15820450E-04   3.76141857E-04   1.14368075E-04   5.67482682E-05   2.29869233E-05   9.89891711E-85  
  19               4.52579186E-03   1.35327652E+02   8.38295951E-01   1.60506351E-01   6.15819926E-04   3.76141537E-04   1.14367977E-04   5.67482199E-05   2.29869233E-05   5.24879538E-81  
  20               5.26729423E-03   1.41674133E+02   8.38295947E-01   1.60506350E-01   6.15820479E-04   3.76141876E-04   1.14368080E-04   5.67482709E-05   2.29869232E-05   2.73498012E-77  
  21               6.12149814E-03   1.48203212E+02   8.38295928E-01   1.60506346E-01   6.15820493E-04   3.76141884E-04   1.14368083E-04   5.67482721E-05   2.29869227E-05   8.46656486E-74  
  22               7.10576708E-03   1.55153141E+02   8.38295851E-01   1.60506331E-01   6.15820517E-04   3.76141899E-04   1.14368087E-04   5.67482744E-05   2.29869206E-05   2.09322071E-70  
  23               8.24052160E-03   1.62057021E+02   8.38295529E-01   1.60506270E-01   6.15820514E-04   3.76141896E-04   1.14368087E-04   5.67482740E-05   2.29869118E-05   2.51933433E-67  
  24               9.54994387E-03   1.69266872E+02   8.38294390E-01   1.60506052E-01   6.15820730E-04   3.76142029E-04   1.14368127E-04   5.67482940E-05   2.29868805E-05   2.23633144E-64  
  25               1.10614056E-02   1.76548202E+02   8.38290117E-01   1.60505233E-01   6.15818140E-04   3.76140447E-04   1.14367646E-04   5.67480553E-05   2.29867633E-05   1.20526112E-61  
  26               1.28055677E-02   1.84365851E+02   8.38275957E-01   1.60502522E-01   6.15826484E-04   3.76145543E-04   1.14369195E-04   5.67488242E-05   2.29863751E-05   5.94265793E-59  
  27               1.48165407E-02   1.92477839E+02   8.38217790E-01   1.60491385E-01   6.15798731E-04   3.76128591E-04   1.14364041E-04   5.67462667E-05   2.29847801E-05   2.16901366E-56  
  28               1.71315205E-02   2.01825744E+02   8.37746026E-01   1.60401058E-01   6.15898639E-04   3.76189615E-04   1.14382596E-04   5.67554734E-05   2.29718438E-05   1.08614481E-53  
  29               1.97940641E-02   2.10741438E+02   8.38295869E-01   1.60506335E-01   6.15872096E-04   3.76173403E-04   1.14377666E-04   5.67530274E-05   2.29869211E-05   2.42642522E-51  
  30               2.28561056E-02   2.20110256E+02   8.38295177E-01   1.60506202E-01   6.16305983E-04   3.76438420E-04   1.14458246E-04   5.67930104E-05   2.29869021E-05   4.44248339E-49  
  31               2.63798042E-02   2.28514055E+02   8.38295177E-01   1.60506202E-01   6.16305546E-04   3.76438153E-04   1.14458165E-04   5.67929701E-05   2.29869021E-05   3.27044380E-47  
  32               3.04376438E-02   2.37020159E+02   8.38295176E-01   1.60506202E-01   6.16306101E-04   3.76438492E-04   1.14458268E-04   5.67930213E-05   2.29869021E-05   1.85422394E-45  
  33               3.51156249E-02   2.44699099E+02   8.38295182E-01   1.60506203E-01   6.16302843E-04   3.76436502E-04   1.14457663E-04   5.67927210E-05   2.29869022E-05   5.52095378E-44  
  34               4.05097104E-02   2.52816758E+02   8.38295176E-01   1.60506202E-01   6.16306266E-04   3.76438593E-04   1.14458299E-04   5.67930365E-05   2.29869021E-05   1.59521204E-42  
  35               4.67276833E-02   2.60485605E+02   8.38295176E-01   1.60506202E-01   6.16306344E-04   3.76438641E-04   1.14458313E-04   5.67930437E-05   2.29869021E-05   3.13377751E-41  
  36               5.38953490E-02   2.68972782E+02   8.38295176E-01   1.60506202E-01   6.16306425E-04   3.76438690E-04   1.14458328E-04   5.67930511E-05   2.29869021E-05   6.96547169E-40  
  37               6.21530106E-02   2.77306483E+02   8.38295176E-01   1.60506202E-01   6.16306503E-04   3.76438738E-04   1.14458343E-04   5.67930583E-05   2.29869021E-05   1.21115949E-38  
  38               7.16589890E-02   2.86641090E+02   8.38295176E-01   1.60506202E-01   6.16306622E-04   3.76438810E-04   1.14458365E-04   5.67930692E-05   2.29869021E-05   2.44772424E-37  
  39               8.25940089E-02   2.95901755E+02   8.38295175E-01   1.60506202E-01   6.16306717E-04   3.76438869E-04   1.14458383E-04   5.67930780E-05   2.29869021E-05   3.98860422E-36  
  40               9.51626261E-02   3.06383971E+02   8.38295175E-01   1.60506202E-01   6.16306822E-04   3.76438932E-04   1.14458402E-04   5.67930877E-05   2.29869021E-05   7.70250223E-35  
  41               1.09590089E-01   3.17370971E+02   8.38295175E-01   1.60506202E-01   6.16306936E-04   3.76439002E-04   1.14458423E-04   5.67930982E-05   2.29869020E-05   1.38995433E-33  
  42               1.26110867E-01   3.31202059E+02   8.38295174E-01   1.60506202E-01   6.16307063E-04   3.76439080E-04   1.14458447E-04   5.67931099E-05   2.29869020E-05   4.09089821E-32  
  43               1.44984156E-01   3.45386485E+02   8.38295172E-01   1.60506201E-01   6.16307212E-04   3.76439170E-04   1.14458474E-04   5.67931236E-05   2.29869019E-05   9.88536074E-31  
  44               1.66537939E-01   3.60177856E+02   8.38295172E-01   1.60506200E-01   6.16307362E-04   3.76439262E-04   1.14458502E-04   5.67931374E-05   2.29869018E-05   2.09324007E-29  
  45               1.91147358E-01   3.75374940E+02   8.38294933E-01   1.60506154E-01   6.16307584E-04   3.76439398E-04   1.14458544E-04   5.67931579E-05   2.29868951E-05   3.74331385E-28  
  46               2.19224731E-01   3.91228789E+02   8.38294959E-01   1.60506128E-01   6.16307373E-04   3.76439269E-04   1.14458504E-04   5.67931384E-05   2.29868915E-05   5.96545157E-27  
  47               2.51227958E-01   4.07517293E+02   8.38294956E-01   1.60506121E-01   6.16312930E-04   3.76442663E-04   1.14459536E-04   5.67936506E-05   2.29868904E-05   8.17828541E-26  
  48               2.87654133E-01   4.24485630E+02   8.38294968E-01   1.60506108E-01   6.16313136E-04   3.76442789E-04   1.14459575E-04   5.67936695E-05   2.29868885E-05   1.00894843E-24  
  49               3.29069069E-01   4.41900257E+02   8.38294984E-01   1.60506077E-01   6.16313369E-04   3.76442932E-04   1.14459618E-04   5.67936910E-05   2.29868841E-05   1.08584831E-23  
  50               3.76112022E-01   4.60032170E+02   8.38294641E-01   1.60505949E-01   6.16313571E-04   3.76443055E-04   1.14459656E-04   5.67937096E-05   2.29868659E-05   1.06342485E-22  
  51               4.29480692E-01   4.78631758E+02   8.38291615E-01   1.60505586E-01   6.16314828E-04   3.76443822E-04   1.14459889E-04   5.67938254E-05   2.29868138E-05   9.21206105E-22  
  52               4.89963194E-01   4.97978713E+02   8.38292119E-01   1.60505081E-01   6.16314827E-04   3.76443822E-04   1.14459889E-04   5.67938253E-05   2.29867415E-05   7.32713067E-21  
  53               5.58428280E-01   5.17802456E+02   8.38292454E-01   1.60504654E-01   6.16363728E-04   3.76473690E-04   1.14468970E-04   5.67983316E-05   2.29866804E-05   5.21287161E-20  
  54               6.35914052E-01   5.38417492E+02   8.38293154E-01   1.60503956E-01   6.16362855E-04   3.76473157E-04   1.14468808E-04   5.67982512E-05   2.29865804E-05   3.43763412E-19  
  55               7.23560686E-01   5.59553263E+02   8.38294224E-01   1.60502887E-01   6.16361773E-04   3.76472497E-04   1.14468607E-04   5.67981515E-05   2.29864274E-05   2.05432743E-18  
  56               8.22594339E-01   5.81525400E+02   8.38295748E-01   1.60501369E-01   6.16359444E-04   3.76471074E-04   1.14468175E-04   5.67979369E-05   2.29862099E-05   1.14701840E-17  
  57               9.34377447E-01   6.04028001E+02   8.38297662E-01   1.60499460E-01   6.16356397E-04   3.76469213E-04   1.14467609E-04   5.67976561E-05   2.29859365E-05   5.85326496E-17  
  58               1.06043884E+00   6.27390605E+02   8.38299887E-01   1.60497242E-01   6.16352825E-04   3.76467031E-04   1.14466946E-04   5.67973269E-05   2.29856189E-05   2.80642358E-16  
  59               1.20252187E+00   6.51303887E+02   8.38302206E-01   1.60494930E-01   6.16349121E-04   3.76464769E-04   1.14466258E-04   5.67969856E-05   2.29852877E-05   1.24052221E-15  
  60               1.36260430E+00   6.76129653E+02   8.38304509E-01   1.60492633E-01   6.16345531E-04   3.76462576E-04   1.14465591E-04   5.67966548E-05   2.29849587E-05   5.18784317E-15  
  61               1.54270858E+00   7.01525644E+02   8.38306627E-01   1.60490516E-01   6.16342358E-04   3.76460638E-04   1.14465002E-04   5.67963624E-05   2.29846555E-05   2.01550321E-14  
  62               1.74491371E+00   7.27815873E+02   8.38308534E-01   1.60488598E-01   6.16339731E-04   3.76459034E-04   1.14464514E-04   5.67961203E-05   2.29843808E-05   7.42690619E-14  
  63               1.97165713E+00   7.54643510E+02   8.38310150E-01   1.60486938E-01   6.16337867E-04   3.76457895E-04   1.14464168E-04   5.67959485E-05   2.29841431E-05   2.55493963E-13  
  64               2.22577250E+00   7.82375482E+02   8.38311413E-01   1.60485474E-01   6.16337035E-04   3.76457386E-04   1.14464013E-04   5.67958718E-05   2.29839331E-05   8.37436163E-13  
  65               2.51076074E+00   8.10705279E+02   8.38312400E-01   1.60484228E-01   6.16339766E-04   3.76459055E-04   1.14464520E-04   5.67961235E-05   2.29837543E-05   2.58510936E-12  
  66               2.83017443E+00   8.40002945E+02   8.38313417E-01   1.60483195E-01   6.16343145E-04   3.76461118E-04   1.14465148E-04   5.67964348E-05   2.29836057E-05   7.64859426E-12  
  67               3.18751618E+00   8.69885822E+02   8.38314258E-01   1.60482331E-01   6.16343229E-04   3.76461170E-04   1.14465164E-04   5.67964426E-05   2.29890238E-05   2.14129533E-11  
  68               3.58624118E+00   9.00659352E+02   8.38314941E-01   1.60481580E-01   6.16343855E-04   3.76461552E-04   1.14465281E-04   5.67965003E-05   2.30035932E-05   5.74987407E-11  
  69               4.03043980E+00   9.31941262E+02   8.38315417E-01   1.60480916E-01   6.16345360E-04   3.76462472E-04   1.14465564E-04   5.67966390E-05   2.30435268E-05   1.46544029E-10  
  70               4.52498185E+00   9.64097253E+02   8.38315587E-01   1.60480263E-01   6.16348814E-04   3.76464581E-04   1.14466221E-04   5.67969573E-05   2.31503930E-05   3.59507114E-10  
  71               5.07531491E+00   9.96776245E+02   8.38314941E-01   1.60479493E-01   6.16357255E-04   3.76469737E-04   1.14467854E-04   5.67977351E-05   2.34169706E-05   8.41993344E-10  
  72               5.68686163E+00   1.03031970E+03   8.38313991E-01   1.60478687E-01   6.16370351E-04   3.76477735E-04   1.14470548E-04   5.67989419E-05   2.42884835E-05   1.90483837E-09  
  73               6.36517972E+00   1.06432918E+03   8.38314829E-01   1.60477853E-01   6.16370006E-04   3.76477524E-04   1.14471461E-04   5.67989104E-05   2.42882873E-05   4.12871641E-09  
  74               7.11609791E+00   1.09913254E+03   8.38316006E-01   1.60476677E-01   6.16368636E-04   3.76476676E-04   1.14474663E-04   5.67987854E-05   2.42879927E-05   8.66251205E-09  
  75               7.94699442E+00   1.13437389E+03   8.38317708E-01   1.60474963E-01   6.16365897E-04   3.76474940E-04   1.14485791E-04   5.67985404E-05   2.42875466E-05   1.74867518E-08  
  76               8.86743450E+00   1.17047995E+03   8.38320230E-01   1.60472395E-01   6.16361007E-04   3.76471606E-04   1.14521976E-04   5.67981311E-05   2.42868623E-05   3.43363942E-08  
  77               9.88755306E+00   1.20713473E+03   8.38323831E-01   1.60468661E-01   6.16352385E-04   3.76464568E-04   1.14632805E-04   5.67975472E-05   2.42858436E-05   6.52590541E-08  
  78               1.10173020E+01   1.24467896E+03   8.38328817E-01   1.60463322E-01   6.16334147E-04   3.76445099E-04   1.14952348E-04   5.67968564E-05   2.42843470E-05   1.21004169E-07  
  79               1.22664416E+01   1.28273636E+03   8.38335173E-01   1.60456094E-01   6.16281742E-04   3.76376819E-04   1.15820433E-04   5.67963389E-05   2.42822387E-05   2.17738397E-07  
  80               1.36448478E+01   1.32157911E+03   8.38342675E-01   1.60446637E-01   6.16098180E-04   3.76120957E-04   1.18009424E-04   5.67965422E-05   2.42793229E-05   3.82566686E-07  
  81               1.51641744E+01   1.36088080E+03   8.38350516E-01   1.60434997E-01   6.15449982E-04   3.75213368E-04   1.23032998E-04   5.67981685E-05   2.42754223E-05   6.53883531E-07  
  82               1.68455978E+01   1.40111847E+03   8.38358463E-01   1.60421250E-01   6.13383789E-04   3.72368420E-04   1.33216810E-04   5.68011611E-05   2.42701769E-05   1.09603760E-06  
  83               1.87242868E+01   1.44239530E+03   8.38368130E-01   1.60406275E-01   6.07729372E-04   3.64813293E-04   1.50867656E-04   5.68037297E-05   2.42629625E-05   1.80421548E-06  
  84               2.08448993E+01   1.48540689E+03   8.38384870E-01   1.60391437E-01   5.95022457E-04   3.48679329E-04   1.76400556E-04   5.68034811E-05   2.42518612E-05   2.94124051E-06  
  85               2.32482512E+01   1.53007059E+03   8.38412714E-01   1.60378359E-01   5.72960752E-04   3.22852354E-04   2.06892845E-04   5.68015441E-05   2.42310592E-05   4.73828326E-06  
  86               2.59463660E+01   1.57619984E+03   8.38447018E-01   1.60366903E-01   5.44681430E-04   2.92179303E-04   2.38492849E-04   5.68025504E-05   2.41823010E-05   7.52690662E-06  
  87               2.89022833E+01   1.62248996E+03   8.38476241E-01   1.60356005E-01   5.17087850E-04   2.62285785E-04   2.68385660E-04   5.68230001E-05   2.40574845E-05   1.16453804E-05  
  88               3.20571762E+01   1.66803626E+03   8.38490237E-01   1.60344330E-01   4.94649075E-04   2.34722527E-04   2.95834432E-04   5.68223019E-05   2.37478882E-05   1.74515882E-05  
  89               3.53119185E+01   1.71135635E+03   8.38501412E-01   1.60335190E-01   4.84154349E-04   2.08849347E-04   3.21577802E-04   5.68277871E-05   2.28313552E-05   2.51012702E-05  
  90               3.84743669E+01   1.75059076E+03   8.38512778E-01   1.60327880E-01   4.67690119E-04   1.89976520E-04   3.40356790E-04   5.68396638E-05   2.27609127E-05   3.43192591E-05  
  91               4.18485425E+01   1.78964773E+03   8.38513146E-01   1.60320168E-01   4.55983484E-04   1.72454307E-04   3.57755819E-04   5.68584766E-05   2.26277342E-05   4.61771977E-05  
  92               4.49692321E+01   1.82366481E+03   8.38497548E-01   1.60311983E-01   4.52060496E-04   1.57459469E-04   3.72641860E-04   5.69070408E-05   2.24129244E-05   5.91435741E-05  
  93               4.77562300E+01   1.85243952E+03   8.38469809E-01   1.60303731E-01   4.55576308E-04   1.44518774E-04   3.85480844E-04   5.68956538E-05   2.21293436E-05   7.23602774E-05  
  94               5.08196988E+01   1.88262094E+03   8.38421368E-01   1.60293156E-01   4.68214752E-04   1.30371705E-04   3.99525262E-04   5.68788433E-05   2.17244976E-05   8.87789965E-05  
  95               5.41856298E+01   1.91406343E+03   8.38362553E-01   1.60282847E-01   4.91987493E-04   1.15357537E-04   4.14439610E-04   5.68532963E-05   2.12298656E-05   1.09042109E-04  
  96               5.71049523E+01   1.94015724E+03   8.38347189E-01   1.60278139E-01   4.85666608E-04   1.08880599E-04   4.20826233E-04   5.68371674E-05   2.12115470E-05   1.28634485E-04  
  97               5.95098530E+01   1.96081003E+03   8.38337241E-01   1.60275261E-01   4.81011490E-04   1.04152542E-04   4.25474249E-04   5.68116709E-05   2.11968690E-05   1.46109047E-04  
  98               6.22095077E+01   1.98327999E+03   8.38323976E-01   1.60272058E-01   4.76283653E-04   9.93439188E-05   4.30192708E-04   5.67795160E-05   2.11802925E-05   1.67292908E-04  
  99               6.52284537E+01   2.00741355E+03   8.38306694E-01   1.60268532E-01   4.71612724E-04   9.45831429E-05   4.34851753E-04   5.67398657E-05   2.11619020E-05   1.92756295E-04  
  100              6.85897823E+01   2.03331508E+03   8.38284467E-01   1.60264599E-01   4.66991345E-04   8.98605475E-05   4.39459249E-04   5.66933487E-05   2.11410630E-05   2.23518062E-04  
  101              7.23412460E+01   2.06095002E+03   8.38216064E-01   1.60252526E-01   4.62492718E-04   8.52630744E-05   4.43899137E-04   5.66465101E-05   2.11166229E-05   2.60570337E-04  
