# ATMO chemical composition profiles
# Chemical abundances given as mole fraction for the 8 most abundant species
# Model Level      Pressure [Ba]    Temperature [K]  H2               He               CO               H2O              H                N2               CH4              H2S             
  1                1.00000000E-05   1.18371407E+02   8.38490531E-01   1.60543576E-01   4.77217726E-04   3.20746162E-04   1.15423928E-91   5.97289679E-05   7.48291612E-05   2.29933575E-05  
  2                1.09184112E-04   1.58078714E+02   8.38365177E-01   1.60519575E-01   4.76858249E-04   3.20504551E-04   3.79916345E-68   5.96839755E-05   7.47727942E-05   2.29899200E-05  
  3                2.13982027E-04   1.77556446E+02   8.37971304E-01   1.60444161E-01   4.77301792E-04   3.20802664E-04   2.00681513E-60   5.97394897E-05   7.48423430E-05   2.29791191E-05  
  4                3.30683337E-04   1.94496999E+02   8.38493548E-01   1.60544154E-01   4.77599009E-04   3.21002428E-04   5.94804795E-55   5.97766896E-05   7.48889475E-05   2.29934402E-05  
  5                4.62823529E-04   2.04000820E+02   8.38493548E-01   1.60544154E-01   4.77598756E-04   3.21002259E-04   2.63244890E-52   5.97766580E-05   7.48889079E-05   2.29934402E-05  
  6                6.13802691E-04   2.15716904E+02   8.38493549E-01   1.60544154E-01   4.77598503E-04   3.21002089E-04   2.41133818E-49   5.97766263E-05   7.48888682E-05   2.29934403E-05  
  7                7.86911489E-04   2.22722741E+02   8.38493549E-01   1.60544154E-01   4.77598251E-04   3.21001919E-04   9.65210696E-48   5.97765948E-05   7.48888287E-05   2.29934403E-05  
  8                9.85885412E-04   2.32758284E+02   8.38493550E-01   1.60544154E-01   4.77597995E-04   3.21001747E-04   1.36502109E-45   5.97765628E-05   7.48887886E-05   2.29934403E-05  
  9                1.21491502E-03   2.38566570E+02   8.38493550E-01   1.60544154E-01   4.77597730E-04   3.21001569E-04   1.89897868E-44   5.97765296E-05   7.48887470E-05   2.29934403E-05  
  10               1.47895001E-03   2.47692347E+02   8.38493551E-01   1.60544154E-01   4.77597453E-04   3.21001383E-04   9.80202387E-43   5.97764949E-05   7.48887036E-05   2.29934403E-05  
  11               1.78352015E-03   2.53153030E+02   8.38493551E-01   1.60544154E-01   4.77597164E-04   3.21001189E-04   8.72578553E-42   5.97764588E-05   7.48886583E-05   2.29934403E-05  
  12               2.13513151E-03   2.61949239E+02   8.38493552E-01   1.60544154E-01   4.77596862E-04   3.21000985E-04   2.57163030E-40   5.97764209E-05   7.48886109E-05   2.29934403E-05  
  13               2.54115610E-03   2.67306318E+02   8.38493552E-01   1.60544154E-01   4.77596546E-04   3.21000773E-04   1.74840991E-39   5.97763813E-05   7.48885613E-05   2.29934403E-05  
  14               3.01023536E-03   2.75993869E+02   8.38493553E-01   1.60544154E-01   4.77596214E-04   3.21000550E-04   3.51224099E-38   5.97763399E-05   7.48885094E-05   2.29934403E-05  
  15               3.55224286E-03   2.81378120E+02   8.38493553E-01   1.60544154E-01   4.77595868E-04   3.21000317E-04   1.98880074E-37   5.97762965E-05   7.48884550E-05   2.29934403E-05  
  16               4.17883752E-03   2.89925608E+02   8.38493554E-01   1.60544154E-01   4.77595505E-04   3.21000074E-04   2.85656424E-36   5.97762511E-05   7.48883981E-05   2.29934403E-05  
  17               4.90340191E-03   2.95205805E+02   8.38493555E-01   1.60544154E-01   4.77595127E-04   3.20999819E-04   1.32874714E-35   5.97762037E-05   7.48883388E-05   2.29934403E-05  
  18               5.74145817E-03   3.03781953E+02   8.38493556E-01   1.60544154E-01   4.77594730E-04   3.20999553E-04   1.50689441E-34   5.97761541E-05   7.48882767E-05   2.29934402E-05  
  19               6.71073497E-03   3.09249386E+02   8.38493557E-01   1.60544153E-01   4.77594321E-04   3.20999278E-04   6.41229495E-34   5.97761029E-05   7.48882125E-05   2.29934402E-05  
  20               7.83187999E-03   3.18058221E+02   8.38493560E-01   1.60544151E-01   4.77593888E-04   3.20998987E-04   6.21754509E-33   5.97760487E-05   7.48881446E-05   2.29934399E-05  
  21               9.12848351E-03   3.23811290E+02   8.38493561E-01   1.60544150E-01   4.77593454E-04   3.20998695E-04   2.49338368E-32   5.97759944E-05   7.48880765E-05   2.29934397E-05  
  22               1.06278817E-02   3.32949568E+02   8.38493567E-01   1.60544145E-01   4.77592981E-04   3.20998377E-04   2.13640728E-31   5.97759351E-05   7.48880023E-05   2.29934390E-05  
  23               1.23611355E-02   3.39173267E+02   8.38493568E-01   1.60544141E-01   4.77592487E-04   3.20998045E-04   8.41528168E-31   5.97758734E-05   7.48879249E-05   2.29934384E-05  
  24               1.43645955E-02   3.48734382E+02   8.38493580E-01   1.60544129E-01   4.77592033E-04   3.20997740E-04   6.51673536E-30   5.97758165E-05   7.48878537E-05   2.29934366E-05  
  25               1.66801475E-02   3.55385247E+02   8.38493591E-01   1.60544119E-01   4.77591492E-04   3.20997377E-04   2.47479686E-29   5.97757489E-05   7.48877689E-05   2.29934353E-05  
  26               1.93560989E-02   3.65465236E+02   8.38493590E-01   1.60544086E-01   4.77590882E-04   3.20996966E-04   1.76386522E-28   5.97756725E-05   7.48876732E-05   2.29934306E-05  
  27               2.24469857E-02   3.72821894E+02   8.38493617E-01   1.60544060E-01   4.77590725E-04   3.20996861E-04   6.76551273E-28   5.97756528E-05   7.48876486E-05   2.29934268E-05  
  28               2.60152558E-02   3.83756356E+02   8.38493685E-01   1.60543993E-01   4.77590024E-04   3.20996390E-04   4.68210361E-27   5.97755651E-05   7.48875387E-05   2.29934173E-05  
  29               3.01320000E-02   3.92050568E+02   8.38493747E-01   1.60543932E-01   4.77589352E-04   3.20995938E-04   1.85286091E-26   5.97754810E-05   7.48874333E-05   2.29934085E-05  
  30               3.48785666E-02   4.03949018E+02   8.38493549E-01   1.60543701E-01   4.77588308E-04   3.20995236E-04   1.24152860E-25   5.97753503E-05   7.48872696E-05   2.29933754E-05  
  31               4.03456049E-02   4.13416334E+02   8.38493740E-01   1.60543504E-01   4.77590761E-04   3.20996885E-04   5.12684311E-25   5.97756573E-05   7.48876543E-05   2.29933472E-05  
  32               4.66348729E-02   4.26772485E+02   8.38494148E-01   1.60543097E-01   4.77589430E-04   3.20995990E-04   3.49384153E-24   5.97754907E-05   7.48874456E-05   2.29932890E-05  
  33               5.38612213E-02   4.38092589E+02   8.38494574E-01   1.60542645E-01   4.77587999E-04   3.20995028E-04   1.59967080E-23   5.97753116E-05   7.48872211E-05   2.29932242E-05  
  34               6.21544064E-02   4.53625515E+02   8.38495221E-01   1.60541552E-01   4.77584734E-04   3.20992834E-04   1.16574158E-22   5.97749030E-05   7.48867092E-05   2.29930676E-05  
  35               7.16515209E-02   4.67763948E+02   8.38493408E-01   1.60540082E-01   4.77624176E-04   3.21019344E-04   6.27887842E-22   5.97798396E-05   7.48928938E-05   2.29928571E-05  
  36               8.25067857E-02   4.85718957E+02   8.38495911E-01   1.60537591E-01   4.77618537E-04   3.21015554E-04   4.69460322E-21   5.97791338E-05   7.48920096E-05   2.29925003E-05  
  37               9.48916008E-02   5.02115292E+02   8.38498169E-01   1.60535341E-01   4.77614449E-04   3.21012806E-04   2.57598923E-20   5.97786221E-05   7.48913686E-05   2.29921781E-05  
  38               1.08983322E-01   5.23326878E+02   8.38501564E-01   1.60531958E-01   4.77608691E-04   3.21008936E-04   2.02100339E-19   5.97779014E-05   7.48904657E-05   2.29916936E-05  
  39               1.24967646E-01   5.45244622E+02   8.38504855E-01   1.60528679E-01   4.77603078E-04   3.21005164E-04   1.43309222E-18   5.97771989E-05   7.48895856E-05   2.29912239E-05  
  40               1.43094137E-01   5.67745405E+02   8.38507731E-01   1.60525814E-01   4.77597905E-04   3.21001686E-04   9.13088758E-18   5.97765515E-05   7.48887744E-05   2.29908136E-05  
  41               1.63628494E-01   5.91014004E+02   8.38510122E-01   1.60523431E-01   4.77593370E-04   3.20998639E-04   5.33630187E-17   5.97759839E-05   7.48880634E-05   2.29904723E-05  
  42               1.86852890E-01   6.14874898E+02   8.38512022E-01   1.60521540E-01   4.77589331E-04   3.20995924E-04   2.83444600E-16   5.97754784E-05   7.48874300E-05   2.29902014E-05  
  43               2.13075935E-01   6.39508033E+02   8.38513518E-01   1.60520049E-01   4.77585697E-04   3.20993481E-04   1.39271311E-15   5.97750235E-05   7.48868602E-05   2.29899879E-05  
  44               2.42699388E-01   6.64777090E+02   8.38514674E-01   1.60518895E-01   4.77582267E-04   3.20991176E-04   6.29695926E-15   5.97745943E-05   7.48863224E-05   2.29898227E-05  
  45               2.76157918E-01   6.90915932E+02   8.38515567E-01   1.60517990E-01   4.77578970E-04   3.20988960E-04   2.66692285E-14   5.97741816E-05   7.48858055E-05   2.29896931E-05  
  46               3.13900022E-01   7.17720829E+02   8.38516221E-01   1.60517282E-01   4.77575816E-04   3.20986840E-04   1.04886818E-13   5.97737868E-05   7.48853108E-05   2.29895916E-05  
  47               3.56385631E-01   7.45383310E+02   8.38516608E-01   1.60516697E-01   4.77573110E-04   3.20985021E-04   3.88243051E-13   5.97734481E-05   7.48848865E-05   2.29895077E-05  
  48               4.04094461E-01   7.73647045E+02   8.38516847E-01   1.60516218E-01   4.77571986E-04   3.20984266E-04   1.34010800E-12   5.97733075E-05   7.48847103E-05   2.29894387E-05  
  49               4.57691369E-01   8.02791623E+02   8.38517219E-01   1.60515841E-01   4.77570560E-04   3.20983308E-04   4.38296459E-12   5.97731290E-05   7.48844867E-05   2.29893839E-05  
  50               5.17931615E-01   8.32622207E+02   8.38517561E-01   1.60515477E-01   4.77566272E-04   3.20980425E-04   1.35045920E-11   5.97725923E-05   7.48838143E-05   2.29954499E-05  
  51               5.85558432E-01   8.63388304E+02   8.38517925E-01   1.60515027E-01   4.77561837E-04   3.20977444E-04   3.96867794E-11   5.97720371E-05   7.48831188E-05   2.30143404E-05  
  52               6.61290978E-01   8.94782047E+02   8.38518354E-01   1.60514319E-01   4.77557510E-04   3.20974537E-04   1.10269054E-10   5.97714957E-05   7.48824405E-05   2.30728731E-05  
  53               7.45814385E-01   9.26996984E+02   8.38518866E-01   1.60513001E-01   4.77553716E-04   3.20971987E-04   2.92495070E-10   5.97710208E-05   7.48818455E-05   2.32457542E-05  
  54               8.39913386E-01   9.59717709E+02   8.38519773E-01   1.60510565E-01   4.77561475E-04   3.20977200E-04   7.35547493E-10   5.97719917E-05   7.48830619E-05   2.37149678E-05  
  55               9.44705423E-01   9.93259431E+02   8.38522915E-01   1.60506293E-01   4.77550555E-04   3.20969859E-04   1.77527567E-09   5.97706247E-05   7.48813492E-05   2.42926428E-05  
  56               1.06138904E+00   1.02737772E+03   8.38530157E-01   1.60499087E-01   4.77534831E-04   3.20959284E-04   4.09422365E-09   5.97686553E-05   7.48788817E-05   2.42914586E-05  
  57               1.19114372E+00   1.06232726E+03   8.38541749E-01   1.60487549E-01   4.77513011E-04   3.20944590E-04   9.10438669E-09   5.97659194E-05   7.48754520E-05   2.42895497E-05  
  58               1.33514716E+00   1.09780068E+03   8.38558274E-01   1.60471091E-01   4.77483497E-04   3.20924646E-04   1.94200683E-08   5.97622070E-05   7.48707872E-05   2.42867875E-05  
  59               1.49459127E+00   1.13400125E+03   8.38579460E-01   1.60449969E-01   4.77448132E-04   3.20900479E-04   4.00190223E-08   5.97577169E-05   7.48650776E-05   2.42831474E-05  
  60               1.67097927E+00   1.17068616E+03   8.38603530E-01   1.60425943E-01   4.77408650E-04   3.20872496E-04   7.94344958E-08   5.97525602E-05   7.48581520E-05   2.42788108E-05  
  61               1.86625646E+00   1.20812987E+03   8.38628573E-01   1.60400899E-01   4.77371981E-04   3.20842716E-04   1.53018277E-07   5.97472748E-05   7.48491936E-05   2.42739309E-05  
  62               2.08259855E+00   1.24619399E+03   8.38652499E-01   1.60376901E-01   4.77346711E-04   3.20808296E-04   2.85772180E-07   5.97419784E-05   7.48319348E-05   2.42686411E-05  
  63               2.32219909E+00   1.28505835E+03   8.38674128E-01   1.60355091E-01   4.77356574E-04   3.20759390E-04   5.19857885E-07   5.97370857E-05   7.47825038E-05   2.42628215E-05  
  64               2.58799613E+00   1.32023960E+03   8.38689802E-01   1.60339188E-01   4.77452260E-04   3.20663114E-04   8.60609074E-07   5.97329814E-05   7.46224648E-05   2.42571080E-05  
  65               2.88298092E+00   1.35762338E+03   8.38704160E-01   1.60324582E-01   4.77718936E-04   3.20442640E-04   1.43029502E-06   5.97291976E-05   7.41643739E-05   2.42494288E-05  
  66               3.21028365E+00   1.39252987E+03   8.38714840E-01   1.60313959E-01   4.78300147E-04   3.19967941E-04   2.22998571E-06   5.97259234E-05   7.30299772E-05   2.42392043E-05  
  67               3.57412552E+00   1.43065552E+03   8.38725228E-01   1.60304065E-01   4.79394164E-04   3.19058269E-04   3.54223752E-06   5.97228302E-05   7.06304098E-05   2.42187258E-05  
  68               3.97986826E+00   1.46715956E+03   8.38733576E-01   1.60296983E-01   4.81254883E-04   3.17547776E-04   5.36927559E-06   5.97201944E-05   6.62559026E-05   2.41771247E-05  
  69               4.43307581E+00   1.50767164E+03   8.38740503E-01   1.60290237E-01   4.84177061E-04   3.15411343E-04   8.34621797E-06   5.97179116E-05   5.93203847E-05   2.40637741E-05  
  70               4.93777300E+00   1.54737936E+03   8.38732941E-01   1.60283115E-01   4.88356958E-04   3.13307947E-04   1.25324100E-05   5.97181550E-05   5.03664494E-05   2.37911068E-05  
  71               5.49310896E+00   1.59178020E+03   8.38734758E-01   1.60280288E-01   4.93996969E-04   3.12974786E-04   1.93579212E-05   5.97366251E-05   3.97038178E-05   2.20738069E-05  
  72               6.09059035E+00   1.63641107E+03   8.38729971E-01   1.60276058E-01   4.99863885E-04   3.11481014E-04   2.92468999E-05   5.97380091E-05   3.15213444E-05   2.20244243E-05  
  73               6.71046731E+00   1.67969824E+03   8.38710985E-01   1.60271192E-01   5.05429823E-04   3.13164783E-04   4.27090872E-05   5.97434610E-05   2.51931184E-05   2.18840982E-05  
  74               7.33209100E+00   1.71953761E+03   8.38673113E-01   1.60265362E-01   5.10237418E-04   3.23142572E-04   5.94108510E-05   5.97613368E-05   2.02235626E-05   2.15805227E-05  
  75               7.92336213E+00   1.75547729E+03   8.38602495E-01   1.60256175E-01   5.14187229E-04   3.44604213E-04   7.89675148E-05   5.97890497E-05   1.61202180E-05   2.11194035E-05  
  76               8.45319662E+00   1.78544334E+03   8.38517071E-01   1.60250070E-01   5.17616612E-04   3.80904252E-04   9.91346462E-05   5.98463106E-05   1.23925405E-05   2.03679690E-05  
  77               8.90716080E+00   1.81038143E+03   8.38494212E-01   1.60246944E-01   5.19130826E-04   3.86542254E-04   1.19115435E-04   5.98473032E-05   1.11882294E-05   2.03768527E-05  
  78               9.40927752E+00   1.83632755E+03   8.38472294E-01   1.60244479E-01   5.20149769E-04   3.86705274E-04   1.43304737E-04   5.98454406E-05   1.01421421E-05   2.03829417E-05  
  79               9.83465876E+00   1.85782776E+03   8.38441482E-01   1.60240361E-01   5.20963325E-04   3.86156018E-04   1.66393053E-04   5.98597896E-05   9.36481867E-06   2.03845443E-05  
  80               1.01725942E+01   1.87400577E+03   8.38424407E-01   1.60238657E-01   5.21502639E-04   3.85600035E-04   1.85667798E-04   5.98578033E-05   8.84730491E-06   2.03842636E-05  
  81               1.05527756E+01   1.89213403E+03   8.38403168E-01   1.60236576E-01   5.22032785E-04   3.85035490E-04   2.09521017E-04   5.98555242E-05   8.30433147E-06   2.03816642E-05  
  82               1.09817347E+01   1.91152713E+03   8.38377935E-01   1.60234161E-01   5.22526027E-04   3.84489256E-04   2.37685266E-04   5.98527417E-05   7.78995273E-06   2.03766817E-05  
  83               1.14636522E+01   1.93298242E+03   8.38346672E-01   1.60231226E-01   5.22918545E-04   3.83935306E-04   2.72513195E-04   5.98472985E-05   7.26658213E-06   2.03678494E-05  
  84               1.18111856E+01   1.94767028E+03   8.38322839E-01   1.60228991E-01   5.23379464E-04   3.83684746E-04   2.98593927E-04   5.98972210E-05   6.94718828E-06   2.03601067E-05  
  85               1.20512872E+01   1.95791862E+03   8.38274620E-01   1.60221517E-01   5.23534572E-04   3.83394252E-04   3.18062112E-04   5.98937873E-05   6.72906912E-06   2.03527733E-05  
  86               1.23251172E+01   1.96903080E+03   8.38254493E-01   1.60219691E-01   5.23730320E-04   3.83163035E-04   3.40228918E-04   5.98902290E-05   6.51371032E-06   2.03450400E-05  
  87               1.26381445E+01   1.98184460E+03   8.38229749E-01   1.60217434E-01   5.23951045E-04   3.82910604E-04   3.67463039E-04   5.98863555E-05   6.27128897E-06   2.03346161E-05  
  88               1.29948944E+01   1.99577288E+03   8.38201091E-01   1.60214839E-01   5.24176124E-04   3.82669597E-04   3.98916567E-04   5.98816322E-05   6.03173906E-06   2.03222339E-05  
  89               1.33998326E+01   2.01153073E+03   8.38166152E-01   1.60211685E-01   5.24415255E-04   3.82393527E-04   4.37245306E-04   5.98760602E-05   5.77202602E-06   2.03059532E-05  
  90               1.38576150E+01   2.02854438E+03   8.38125440E-01   1.60208035E-01   5.24648239E-04   3.82159606E-04   4.81774953E-04   5.98691278E-05   5.51828982E-06   2.02866975E-05  
  91               1.43755522E+01   2.04751987E+03   8.38076059E-01   1.60203625E-01   5.24887251E-04   3.81869420E-04   5.35837858E-04   5.98607041E-05   5.25261609E-06   2.02618415E-05  
  92               1.49596456E+01   2.06795556E+03   8.38018062E-01   1.60198468E-01   5.25114146E-04   3.81582949E-04   5.99259001E-04   5.98503926E-05   4.99616738E-06   2.02319607E-05  
  93               1.56162277E+01   2.09035187E+03   8.37948114E-01   1.60192271E-01   5.25338015E-04   3.81290318E-04   6.75679786E-04   5.98379200E-05   4.73667964E-06   2.01949994E-05  
  94               1.63519582E+01   2.11429865E+03   8.37865685E-01   1.60184992E-01   5.25544280E-04   3.81006641E-04   7.65654429E-04   5.98228791E-05   4.48956026E-06   2.01509597E-05  
  95               1.71738776E+01   2.14009559E+03   8.37767205E-01   1.60176318E-01   5.25737330E-04   3.80725235E-04   8.73076600E-04   5.98051063E-05   4.24853145E-06   2.00979179E-05  
  96               1.80894169E+01   2.16750252E+03   8.37650929E-01   1.60166100E-01   5.25908996E-04   3.80453775E-04   9.99830337E-04   5.97843003E-05   4.02128433E-06   2.00353973E-05  
  97               1.91065061E+01   2.19652323E+03   8.37513709E-01   1.60154065E-01   5.26057781E-04   3.80192224E-04   1.14934031E-03   5.97603417E-05   3.80806866E-06   1.99622031E-05  
  98               2.02335890E+01   2.22721341E+03   8.37351506E-01   1.60139860E-01   5.26183246E-04   3.79938907E-04   1.32599924E-03   5.97330225E-05   3.60779658E-06   1.98768575E-05  
  99               2.14797955E+01   2.25917100E+03   8.37162941E-01   1.60123368E-01   5.26277567E-04   3.79701728E-04   1.53129618E-03   5.97019405E-05   3.42765498E-06   1.97798372E-05  
  100              2.28549765E+01   2.29274101E+03   8.36939126E-01   1.60103605E-01   5.26344597E-04   3.79470749E-04   1.77275434E-03   5.96669576E-05   3.26009795E-06   1.96684757E-05  
  101              2.43693452E+01   2.32722124E+03   8.36676829E-01   1.60081228E-01   5.26433051E-04   3.85396662E-04   2.04920089E-03   5.96306646E-05   3.06591059E-06   1.95786587E-05  
