# ATMO chemical composition profiles
# Chemical abundances given as mole fraction for the 8 most abundant species
# Model Level      Pressure [Ba]    Temperature [K]  H2               He               H                CO               H2O              N2               Mg               SiO             
  1                1.00000000E-05   2.96109302E+02   8.38484914E-01   1.60518574E-01   3.85787062E-34   5.29340198E-04   3.74937086E-04   6.05725008E-05   0.00000000E+00   0.00000000E+00  
  2                1.79074522E-05   3.61387124E+02   8.38493938E-01   1.60509563E-01   2.57697772E-27   5.29334073E-04   3.74932747E-04   6.05717998E-05   0.00000000E+00   0.00000000E+00  
  3                2.65214605E-05   3.87642307E+02   8.38494274E-01   1.60509224E-01   2.91344524E-25   5.29333712E-04   3.74932491E-04   6.05717585E-05   0.00000000E+00   0.00000000E+00  
  4                3.64681603E-05   4.04540717E+02   8.38494317E-01   1.60509126E-01   4.22289726E-24   5.29333646E-04   3.74932445E-04   6.05717511E-05   0.00000000E+00   0.00000000E+00  
  5                4.81005430E-05   4.18684043E+02   8.38493973E-01   1.60509044E-01   3.30618703E-23   5.29333780E-04   3.74932540E-04   6.05717664E-05   0.00000000E+00   0.00000000E+00  
  6                6.17853025E-05   4.29785254E+02   8.38493720E-01   1.60509295E-01   1.47879555E-22   5.29334750E-04   3.74933227E-04   6.05718774E-05   0.00000000E+00   0.00000000E+00  
  7                7.79429141E-05   4.40653547E+02   8.38493738E-01   1.60509277E-01   5.96228423E-22   5.29334883E-04   3.74933320E-04   6.05718925E-05   0.00000000E+00   0.00000000E+00  
  8                9.70568319E-05   4.49997782E+02   8.38493748E-01   1.60509267E-01   1.84746209E-21   5.29335018E-04   3.74933416E-04   6.05719080E-05   0.00000000E+00   0.00000000E+00  
  9                1.19692093E-04   4.59956559E+02   8.38493759E-01   1.60509255E-01   5.90647054E-21   5.29335179E-04   3.74933531E-04   6.05719265E-05   0.00000000E+00   0.00000000E+00  
  10               1.46512267E-04   4.68851338E+02   8.38493765E-01   1.60509249E-01   1.58221627E-20   5.29335350E-04   3.74933651E-04   6.05719460E-05   0.00000000E+00   0.00000000E+00  
  11               1.78302373E-04   4.78545739E+02   8.38493774E-01   1.60509240E-01   4.47750374E-20   5.29335560E-04   3.74933800E-04   6.05719701E-05   0.00000000E+00   0.00000000E+00  
  12               2.15993204E-04   4.87191228E+02   8.38493777E-01   1.60509236E-01   1.08099339E-19   5.29335814E-04   3.74933980E-04   6.05719991E-05   0.00000000E+00   0.00000000E+00  
  13               2.60692631E-04   4.96583348E+02   8.38493783E-01   1.60509230E-01   2.73794810E-19   5.29336027E-04   3.74934131E-04   6.05720235E-05   0.00000000E+00   0.00000000E+00  
  14               3.13717864E-04   5.04863719E+02   8.38493785E-01   1.60509228E-01   5.96258731E-19   5.29336179E-04   3.74934238E-04   6.05720408E-05   0.00000000E+00   0.00000000E+00  
  15               3.76634545E-04   5.13967900E+02   8.38493788E-01   1.60509224E-01   1.37283926E-18   5.29336630E-04   3.74934558E-04   6.05720925E-05   0.00000000E+00   0.00000000E+00  
  16               4.51314538E-04   5.22102009E+02   8.38493789E-01   1.60509223E-01   2.79012468E-18   5.29336858E-04   3.74934719E-04   6.05721185E-05   0.00000000E+00   0.00000000E+00  
  17               5.39980400E-04   5.31212159E+02   8.38493792E-01   1.60509220E-01   6.06867855E-18   5.29336984E-04   3.74934809E-04   6.05721330E-05   0.00000000E+00   0.00000000E+00  
  18               6.45265582E-04   5.39405716E+02   8.38493792E-01   1.60509219E-01   1.18081114E-17   5.29337837E-04   3.74935413E-04   6.05722306E-05   0.00000000E+00   0.00000000E+00  
  19               7.70292321E-04   5.48641581E+02   8.38493795E-01   1.60509216E-01   2.46339456E-17   5.29338182E-04   3.74935657E-04   6.05722701E-05   0.00000000E+00   0.00000000E+00  
  20               9.18760930E-04   5.56959735E+02   8.38493796E-01   1.60509214E-01   4.62848636E-17   5.29338188E-04   3.74935662E-04   6.05722708E-05   0.00000000E+00   0.00000000E+00  
  21               1.09505902E-03   5.66334363E+02   8.38493797E-01   1.60509209E-01   9.29484728E-17   5.29340717E-04   3.74937453E-04   6.05725601E-05   0.00000000E+00   0.00000000E+00  
  22               1.30438357E-03   5.74768268E+02   8.38493798E-01   1.60509206E-01   1.68865014E-16   5.29341645E-04   3.74938110E-04   6.05726663E-05   0.00000000E+00   0.00000000E+00  
  23               1.55287100E-03   5.84392794E+02   8.38493805E-01   1.60509197E-01   3.30007159E-16   5.29341693E-04   3.74938144E-04   6.05726718E-05   0.00000000E+00   0.00000000E+00  
  24               1.84775860E-03   5.93156378E+02   8.38493812E-01   1.60509191E-01   5.90191513E-16   5.29341732E-04   3.74938172E-04   6.05726763E-05   0.00000000E+00   0.00000000E+00  
  25               2.19756873E-03   6.03233629E+02   8.38493822E-01   1.60509175E-01   1.13955574E-15   5.29341620E-04   3.74938093E-04   6.05726635E-05   0.00000000E+00   0.00000000E+00  
  26               2.61230742E-03   6.12549653E+02   8.38493834E-01   1.60509158E-01   2.03596713E-15   5.29344456E-04   3.74940101E-04   6.05729880E-05   0.00000000E+00   0.00000000E+00  
  27               3.10369694E-03   6.23357585E+02   8.38493850E-01   1.60509123E-01   3.94947452E-15   5.29344361E-04   3.74940034E-04   6.05729771E-05   0.00000000E+00   0.00000000E+00  
  28               3.68566242E-03   6.33514330E+02   8.38493887E-01   1.60509087E-01   7.15809466E-15   5.29344198E-04   3.74939919E-04   6.05729585E-05   0.00000000E+00   0.00000000E+00  
  29               4.37475626E-03   6.45114149E+02   8.38493906E-01   1.60509011E-01   1.39272251E-14   5.29343923E-04   3.74939724E-04   6.05729270E-05   0.00000000E+00   0.00000000E+00  
  30               5.19041406E-03   6.56073879E+02   8.38493987E-01   1.60508931E-01   2.53813938E-14   5.29343512E-04   3.74939432E-04   6.05728799E-05   0.00000000E+00   0.00000000E+00  
  31               6.15533984E-03   6.68666636E+02   8.38493972E-01   1.60508755E-01   4.98530305E-14   5.29342898E-04   3.74938998E-04   6.05728098E-05   0.00000000E+00   0.00000000E+00  
  32               7.29595722E-03   6.80798673E+02   8.38494160E-01   1.60508570E-01   9.27789037E-14   5.29341993E-04   3.74938357E-04   6.05727062E-05   0.00000000E+00   0.00000000E+00  
  33               8.64295595E-03   6.94675000E+02   8.38494290E-01   1.60508197E-01   1.85529713E-13   5.29340746E-04   3.74937474E-04   6.05725635E-05   0.00000000E+00   0.00000000E+00  
  34               1.02317821E-02   7.08164159E+02   8.38494737E-01   1.60507754E-01   3.52802673E-13   5.29338891E-04   3.74936160E-04   6.05723512E-05   0.00000000E+00   0.00000000E+00  
  35               1.21029783E-02   7.23701293E+02   8.38495561E-01   1.60506936E-01   7.24965262E-13   5.29336197E-04   3.74934252E-04   6.05720430E-05   0.00000000E+00   0.00000000E+00  
  36               1.43024832E-02   7.39206827E+02   8.38496744E-01   1.60505758E-01   1.43916011E-12   5.29332491E-04   3.74931626E-04   6.05716188E-05   0.00000000E+00   0.00000000E+00  
  37               1.68821967E-02   7.56925148E+02   8.38498926E-01   1.60503580E-01   3.07068700E-12   5.29326990E-04   3.74927730E-04   6.05709893E-05   0.00000000E+00   0.00000000E+00  
  38               1.99023029E-02   7.74630897E+02   8.38502120E-01   1.60500379E-01   6.30750070E-12   5.29319625E-04   3.74922513E-04   6.05701466E-05   0.00000000E+00   0.00000000E+00  
  39               2.34346088E-02   7.94788244E+02   8.38507895E-01   1.60494570E-01   1.38763358E-11   5.29308713E-04   3.74914784E-04   6.05688979E-05   0.00000000E+00   0.00000000E+00  
  40               2.75590371E-02   8.15384126E+02   8.38516430E-01   1.60485913E-01   2.97914275E-11   5.29294605E-04   3.74904791E-04   6.05672835E-05   0.00000000E+00   0.00000000E+00  
  41               3.23632121E-02   8.38752990E+02   8.38530710E-01   1.60471268E-01   6.82394988E-11   5.29283705E-04   3.74897071E-04   6.05660362E-05   0.00000000E+00   0.00000000E+00  
  42               3.79422972E-02   8.62700410E+02   8.38549174E-01   1.60451506E-01   1.52111448E-10   5.29251266E-04   3.74874094E-04   6.05623242E-05   0.00000000E+00   0.00000000E+00  
  43               4.43968557E-02   8.89719654E+02   8.38575155E-01   1.60423743E-01   3.59200068E-10   5.29209020E-04   3.74844170E-04   6.05574900E-05   0.00000000E+00   0.00000000E+00  
  44               5.18270408E-02   9.17771308E+02   8.38605907E-01   1.60393089E-01   8.30805592E-10   5.29163421E-04   3.74811872E-04   6.05522721E-05   0.00000000E+00   0.00000000E+00  
  45               6.03393901E-02   9.49207980E+02   8.38639793E-01   1.60359308E-01   2.01663476E-09   5.29114999E-04   3.74777575E-04   6.05467312E-05   0.00000000E+00   3.53592886E-16  
  46               7.00740416E-02   9.81659625E+02   8.38669355E-01   1.60329839E-01   4.74286567E-09   5.29072852E-04   3.74747721E-04   6.05419083E-05   6.38865284E-16   3.56720289E-15  
  47               8.11728712E-02   1.01779018E+03   8.38695321E-01   1.60303954E-01   1.15841073E-08   5.29036412E-04   3.74721910E-04   6.05377384E-05   6.25635368E-15   3.93544388E-14  
  48               9.37638195E-02   1.05546355E+03   8.38714154E-01   1.60285176E-01   2.75424008E-08   5.29009744E-04   3.74703021E-04   6.05346868E-05   5.57531009E-14   3.93603885E-13  
  49               1.07937286E-01   1.09867501E+03   8.38728191E-01   1.60271155E-01   6.96328622E-08   5.28990038E-04   3.74689063E-04   6.05324318E-05   5.59356340E-13   4.46330490E-12  
  50               1.23766954E-01   1.14213003E+03   8.38736035E-01   1.60263241E-01   1.64543203E-07   5.28978492E-04   3.74680886E-04   6.05311107E-05   4.57850134E-12   4.09302410E-11  
  51               1.41458031E-01   1.18604477E+03   8.38740191E-01   1.60258869E-01   3.67366620E-07   5.28971785E-04   3.74676137E-04   6.05303431E-05   3.17965774E-11   3.16116079E-10  
  52               1.61259257E-01   1.23050792E+03   8.38742152E-01   1.60256442E-01   7.80002885E-07   5.28968032E-04   3.74673489E-04   6.05299136E-05   1.92300555E-10   2.11234260E-09  
  53               1.83408238E-01   1.27547359E+03   8.38742623E-01   1.60255037E-01   1.58035343E-06   5.28966059E-04   3.74672134E-04   6.05296877E-05   1.02814959E-09   1.24031737E-08  
  54               2.08132740E-01   1.32114745E+03   8.38741618E-01   1.60254108E-01   3.07734572E-06   5.28966082E-04   3.74672310E-04   6.05296900E-05   4.96116853E-09   6.53910784E-08  
  55               2.35649708E-01   1.36724781E+03   8.38738048E-01   1.60253254E-01   5.75293977E-06   5.28973551E-04   3.74678139E-04   6.05305443E-05   2.15753492E-08   3.09076455E-07  
  56               2.66202150E-01   1.41390659E+03   8.38729904E-01   1.60252217E-01   1.03792141E-05   5.28988125E-04   3.74690081E-04   6.05322116E-05   8.53101334E-08   1.32215073E-06  
  57               3.00104175E-01   1.46073410E+03   8.38708475E-01   1.60249519E-01   1.80302719E-05   5.29172512E-04   3.74825066E-04   6.05533113E-05   3.04099505E-07   5.07410102E-06  
  58               3.37423638E-01   1.50787477E+03   8.38694016E-01   1.60250861E-01   3.03230998E-05   5.29190276E-04   3.74848419E-04   6.05553465E-05   9.10352381E-07   1.88618724E-05  
  59               3.77731761E-01   1.55411728E+03   8.38664656E-01   1.60248009E-01   4.88774187E-05   5.29277724E-04   3.74930830E-04   6.05653618E-05   4.60361352E-06   2.06558193E-05  
  60               4.19649459E-01   1.59850549E+03   8.38616316E-01   1.60244807E-01   7.52263479E-05   5.29432063E-04   3.75074972E-04   6.05830412E-05   1.69791281E-05   2.65344298E-05  
  61               4.60333698E-01   1.63811217E+03   8.38536211E-01   1.60239956E-01   1.08213803E-04   5.30008759E-04   3.75532039E-04   6.06490637E-05   4.23750752E-05   3.87149792E-05  
  62               4.95695895E-01   1.67055539E+03   8.38477722E-01   1.60239082E-01   1.43827132E-04   5.30018211E-04   3.75607613E-04   6.06501910E-05   6.62783590E-05   5.03537628E-05  
  63               5.35439742E-01   1.70461493E+03   8.38433886E-01   1.60235238E-01   1.91442850E-04   5.29983530E-04   3.75634811E-04   6.06462776E-05   6.62406505E-05   5.04439452E-05  
  64               5.68542000E-01   1.73170369E+03   8.38358958E-01   1.60225388E-01   2.38340089E-04   5.30485247E-04   3.76025953E-04   6.07037513E-05   6.62069539E-05   5.05124338E-05  
  65               5.93411117E-01   1.75102289E+03   8.38323011E-01   1.60222242E-01   2.77370677E-04   5.30473377E-04   3.76054603E-04   6.07024505E-05   6.61838326E-05   5.05619800E-05  
  66               6.21746657E-01   1.77249415E+03   8.38277306E-01   1.60218242E-01   3.27010542E-04   5.30458471E-04   3.76082086E-04   6.07007928E-05   6.61575109E-05   5.06165047E-05  
  67               6.53874232E-01   1.79559670E+03   8.38220772E-01   1.60213296E-01   3.88423292E-04   5.30440240E-04   3.76107013E-04   6.06987374E-05   6.61280495E-05   5.06745338E-05  
  68               6.90106206E-01   1.82079856E+03   8.38149138E-01   1.60207032E-01   4.66252280E-04   5.30417480E-04   3.76126915E-04   6.06961355E-05   6.60949127E-05   5.07372241E-05  
  69               7.30707471E-01   1.84745236E+03   8.38060927E-01   1.60199322E-01   5.62101704E-04   5.30389908E-04   3.76139449E-04   6.06929395E-05   6.60582530E-05   5.08028212E-05  
  70               7.75833398E-01   1.87588710E+03   8.37950602E-01   1.60189683E-01   6.81983492E-04   5.30356317E-04   3.76140985E-04   6.06889919E-05   6.60176496E-05   5.08721659E-05  
  71               8.25655815E-01   1.90535595E+03   8.37816751E-01   1.60177997E-01   8.27456621E-04   5.30316046E-04   3.76127973E-04   6.06841906E-05   6.59733910E-05   5.09433638E-05  
  72               8.80994774E-01   1.93658524E+03   8.37650049E-01   1.60163441E-01   1.00872887E-03   5.30265296E-04   3.76092702E-04   6.06780593E-05   6.59244073E-05   5.10175839E-05  
  73               9.42861895E-01   1.96917154E+03   8.37445916E-01   1.60145621E-01   1.23073083E-03   5.30204034E-04   3.76030437E-04   6.06705456E-05   6.58703351E-05   5.10939089E-05  
  74               1.01188323E+00   2.00357495E+03   8.37192070E-01   1.60123466E-01   1.50682404E-03   5.30128746E-04   3.75936115E-04   6.06612075E-05   6.58102710E-05   5.11732486E-05  
  75               1.08875296E+00   2.03909276E+03   8.36884519E-01   1.60096628E-01   1.84135408E-03   5.30038436E-04   3.75808072E-04   6.06498927E-05   6.57442494E-05   5.12534290E-05  
  76               1.17424421E+00   2.07618516E+03   8.36507125E-01   1.60063700E-01   2.25187269E-03   5.29928334E-04   3.75643476E-04   6.06360179E-05   6.56712122E-05   5.13351042E-05  
  77               1.26921526E+00   2.11415127E+03   8.36055852E-01   1.60024330E-01   2.74276808E-03   5.29797283E-04   3.75443849E-04   6.06194161E-05   6.55911997E-05   5.14158489E-05  
  78               1.37462293E+00   2.15343538E+03   8.35510775E-01   1.59976781E-01   3.33571113E-03   5.29639182E-04   3.75207673E-04   6.05993470E-05   6.55030131E-05   5.14958974E-05  
  79               1.49152956E+00   2.19336202E+03   8.34868844E-01   1.59920786E-01   4.03401560E-03   5.29452859E-04   3.74938823E-04   6.05756291E-05   6.54067246E-05   5.15725827E-05  
  80               1.62111702E+00   2.23434334E+03   8.34107146E-01   1.59854347E-01   4.86259372E-03   5.29230711E-04   3.74642087E-04   6.05473401E-05   6.53010380E-05   5.16455921E-05  
  81               1.76468605E+00   2.27569062E+03   8.33226649E-01   1.59777545E-01   5.82034570E-03   5.28969444E-04   3.74373386E-04   6.05141920E-05   6.51861948E-05   5.17119764E-05  
  82               1.92355945E+00   2.31775665E+03   8.32201712E-01   1.59687898E-01   6.93257408E-03   5.28685195E-04   3.74574581E-04   6.04794608E-05   6.50607866E-05   5.17707122E-05  
  83               2.09936639E+00   2.35997054E+03   8.31033928E-01   1.59586628E-01   8.19440406E-03   5.28343662E-04   3.79673783E-04   6.04360691E-05   6.49254508E-05   5.18542866E-05  
  84               2.29404631E+00   2.40278421E+03   8.29708401E-01   1.59470997E-01   9.63588003E-03   5.27957663E-04   3.79651998E-04   6.03869502E-05   6.47784915E-05   5.18906442E-05  
  85               2.50956765E+00   2.44560588E+03   8.28230548E-01   1.59342123E-01   1.12434340E-02   5.27527874E-04   3.79160197E-04   6.03322416E-05   6.46205428E-05   5.19127394E-05  
  86               2.74806968E+00   2.48884782E+03   8.26572571E-01   1.59197549E-01   1.30469484E-02   5.27045487E-04   3.78575230E-04   6.02707986E-05   6.44501314E-05   5.19188421E-05  
  87               3.01192279E+00   2.53199211E+03   8.24752998E-01   1.59038890E-01   1.50262448E-02   5.26515730E-04   3.77925459E-04   6.02030703E-05   6.42680633E-05   5.19064365E-05  
  88               3.30371877E+00   2.57543729E+03   8.22744192E-01   1.58863737E-01   1.72113806E-02   5.25930572E-04   3.77202181E-04   6.01280034E-05   6.40729005E-05   5.18732596E-05  
  89               3.62630644E+00   2.61863701E+03   8.20577180E-01   1.58674795E-01   1.95686030E-02   5.25298880E-04   3.76416440E-04   6.00464030E-05   6.38659287E-05   5.18171516E-05  
  90               3.98280883E+00   2.66211153E+03   8.18215188E-01   1.58468857E-01   2.21379088E-02   5.24609983E-04   3.75554561E-04   5.99568100E-05   6.36453143E-05   5.17351219E-05  
  91               4.37659318E+00   2.70526512E+03   8.15703479E-01   1.58249872E-01   2.48700579E-02   5.23876827E-04   3.74632727E-04   5.98603790E-05   6.34129043E-05   5.16255095E-05  
  92               4.81128332E+00   2.74860770E+03   8.13003222E-01   1.58014453E-01   2.78072856E-02   5.23088130E-04   3.73636033E-04   5.97553861E-05   6.31668457E-05   5.14845116E-05  
  93               5.29076428E+00   2.79155749E+03   8.10170405E-01   1.57767482E-01   3.08886853E-02   5.22259904E-04   3.72585161E-04   5.96431460E-05   6.29093900E-05   5.13111698E-05  
  94               5.81917625E+00   2.83475022E+03   8.07149369E-01   1.57504106E-01   3.41747964E-02   5.21375993E-04   3.71458659E-04   5.95210159E-05   6.26380683E-05   5.11001414E-05  
  95               6.40094871E+00   2.87751746E+03   8.04014616E-01   1.57230821E-01   3.75845718E-02   5.20457718E-04   3.70284911E-04   5.93905964E-05   6.23558764E-05   5.08516160E-05  
  96               7.04083629E+00   2.92052347E+03   8.00700514E-01   1.56941904E-01   4.11893997E-02   5.19486013E-04   3.69038510E-04   5.92482839E-05   6.20600313E-05   5.05587588E-05  
  97               7.74400546E+00   2.96306620E+03   7.97296880E-01   1.56645187E-01   4.48915732E-02   5.18486580E-04   3.67754663E-04   5.90956676E-05   6.17540772E-05   5.02232766E-05  
  98               8.51605637E+00   3.00590156E+03   7.93718998E-01   1.56333282E-01   4.87832386E-02   5.17434803E-04   3.66400253E-04   5.89274014E-05   6.14345356E-05   4.98361383E-05  
  99               9.36294371E+00   3.04822965E+03   7.90080018E-01   1.56016055E-01   5.27413072E-02   5.16363067E-04   3.65020643E-04   5.87451021E-05   6.11058158E-05   4.94016310E-05  
  100              1.02907264E+01   3.09085444E+03   7.86278772E-01   1.55684685E-01   5.68758190E-02   5.15241969E-04   3.63575598E-04   5.85411052E-05   6.07639763E-05   4.89087119E-05  
  101              1.13059805E+01   3.13293480E+03   7.82445300E-01   1.55350510E-01   6.10453145E-02   5.14108721E-04   3.62118220E-04   5.83165523E-05   6.04140467E-05   4.83646700E-05  
