# ATMO chemical composition profiles
# Chemical abundances given as mole fraction for the 8 most abundant species
# Model Level      Pressure [Ba]    Temperature [K]  H2               He               H2O              CO               CH4              H                N2               H2S             
  1                1.00000000E-05   9.03497726E+01   8.38404526E-01   1.60527140E-01   4.50030145E-04   3.14170797E-04   2.14473732E-04   3.16440820E-109  5.86329570E-05   2.29891692E-05  
  2                1.25472146E-04   1.16695823E+02   8.38404518E-01   1.60527138E-01   4.50030287E-04   3.14170896E-04   2.14473800E-04   1.38014084E-93   5.86329755E-05   2.29891689E-05  
  3                2.48816456E-04   1.38979008E+02   8.38404363E-01   1.60527108E-01   4.50030580E-04   3.14171100E-04   2.14473939E-04   3.54138801E-78   5.86330136E-05   2.29891647E-05  
  4                3.86440488E-04   1.51014862E+02   8.38401413E-01   1.60526544E-01   4.50029136E-04   3.14170093E-04   2.14473251E-04   8.93986819E-72   5.86328255E-05   2.29890838E-05  
  5                5.43290833E-04   1.64363641E+02   8.38394387E-01   1.60525198E-01   4.50028323E-04   3.14169524E-04   2.14472863E-04   9.41085625E-66   5.86327195E-05   2.29888912E-05  
  6                7.23640572E-04   1.72229647E+02   8.38218292E-01   1.60491482E-01   4.49947703E-04   3.14113243E-04   2.14434442E-04   1.15425200E-62   5.86222158E-05   2.29840626E-05  
  7                9.32112832E-04   1.82891748E+02   8.38404313E-01   1.60527099E-01   4.50139781E-04   3.14247335E-04   2.14525982E-04   7.03164830E-59   5.86472411E-05   2.29891633E-05  
  8                1.17359358E-03   1.89093995E+02   8.37948572E-01   1.60439839E-01   4.49889809E-04   3.14072826E-04   2.14406851E-04   6.78731430E-57   5.86146730E-05   2.29766668E-05  
  9                1.45385302E-03   1.98753167E+02   8.38403837E-01   1.60527008E-01   4.50385039E-04   3.14418552E-04   2.14642866E-04   5.04062794E-54   5.86791950E-05   2.29891503E-05  
  10               1.77947574E-03   2.04404095E+02   8.38403831E-01   1.60527007E-01   4.50387818E-04   3.14420492E-04   2.14644190E-04   1.72852534E-52   5.86795570E-05   2.29891501E-05  
  11               2.15806628E-03   2.13598293E+02   8.38403831E-01   1.60527007E-01   4.50388185E-04   3.14420748E-04   2.14644365E-04   3.86359904E-50   5.86796048E-05   2.29891501E-05  
  12               2.59845564E-03   2.19033923E+02   8.38403830E-01   1.60527006E-01   4.50388551E-04   3.14421004E-04   2.14644540E-04   7.34912837E-49   5.86796525E-05   2.29891501E-05  
  13               3.11088119E-03   2.28022353E+02   8.38403829E-01   1.60527006E-01   4.50388932E-04   3.14421270E-04   2.14644721E-04   7.44113958E-47   5.86797021E-05   2.29891501E-05  
  14               3.70706324E-03   2.33362319E+02   8.38403829E-01   1.60527006E-01   4.50389297E-04   3.14421524E-04   2.14644895E-04   9.41589289E-46   5.86797496E-05   2.29891501E-05  
  15               4.40104397E-03   2.42025324E+02   8.38403828E-01   1.60527006E-01   4.50389699E-04   3.14421805E-04   2.14645087E-04   4.78454327E-44   5.86798021E-05   2.29891500E-05  
  16               5.20897586E-03   2.47199785E+02   8.38403827E-01   1.60527006E-01   4.50390090E-04   3.14422078E-04   2.14645273E-04   4.23071792E-43   5.86798531E-05   2.29891500E-05  
  17               6.14981039E-03   2.55758829E+02   8.38403826E-01   1.60527006E-01   4.50390484E-04   3.14422353E-04   2.14645461E-04   1.34776245E-41   5.86799043E-05   2.29891500E-05  
  18               7.24542509E-03   2.60939277E+02   8.38403826E-01   1.60527006E-01   4.50390872E-04   3.14422624E-04   2.14645646E-04   9.47961061E-41   5.86799549E-05   2.29891500E-05  
  19               8.52150347E-03   2.69508966E+02   8.38403825E-01   1.60527005E-01   4.50391248E-04   3.14422887E-04   2.14645825E-04   2.12651969E-39   5.86800039E-05   2.29891499E-05  
  20               1.00074217E-02   2.74860567E+02   8.38403824E-01   1.60527005E-01   4.50391644E-04   3.14423163E-04   2.14646013E-04   1.30224320E-38   5.86800554E-05   2.29891499E-05  
  21               1.17372635E-02   2.83749787E+02   8.38403823E-01   1.60527005E-01   4.50392061E-04   3.14423454E-04   2.14646212E-04   2.38272853E-37   5.86801098E-05   2.29891499E-05  
  22               1.37503466E-02   2.89473236E+02   8.38403822E-01   1.60527005E-01   4.50392500E-04   3.14423761E-04   2.14646422E-04   1.36713693E-36   5.86801670E-05   2.29891499E-05  
  23               1.60931332E-02   2.98605638E+02   8.38403822E-01   1.60527005E-01   4.50392964E-04   3.14424085E-04   2.14646643E-04   2.01579899E-35   5.86802275E-05   2.29891498E-05  
  24               1.88188769E-02   3.04649198E+02   8.38403821E-01   1.60527004E-01   4.50393454E-04   3.14424427E-04   2.14646876E-04   1.06405809E-34   5.86802913E-05   2.29891498E-05  
  25               2.19894613E-02   3.14155274E+02   8.38403820E-01   1.60527004E-01   4.50393972E-04   3.14424788E-04   2.14647123E-04   1.33175212E-33   5.86803587E-05   2.29891498E-05  
  26               2.56753020E-02   3.20759037E+02   8.38403818E-01   1.60527004E-01   4.50394521E-04   3.14425171E-04   2.14647385E-04   6.87633368E-33   5.86804303E-05   2.29891497E-05  
  27               2.99587021E-02   3.30840771E+02   8.38403818E-01   1.60527003E-01   4.50395097E-04   3.14425574E-04   2.14647659E-04   7.69861663E-32   5.86805054E-05   2.29891496E-05  
  28               3.49337146E-02   3.38064792E+02   8.38403816E-01   1.60527002E-01   4.50395716E-04   3.14426005E-04   2.14647954E-04   3.88355628E-31   5.86805860E-05   2.29891494E-05  
  29               4.07092707E-02   3.48787474E+02   8.38403816E-01   1.60527000E-01   4.50396356E-04   3.14426452E-04   2.14648259E-04   3.91526123E-30   5.86806694E-05   2.29891491E-05  
  30               4.74105350E-02   3.56780916E+02   8.38403807E-01   1.60526996E-01   4.50397062E-04   3.14426945E-04   2.14648596E-04   1.95971472E-29   5.86807614E-05   2.29891486E-05  
  31               5.51825798E-02   3.68370345E+02   8.38403812E-01   1.60526990E-01   4.50397754E-04   3.14427429E-04   2.14648926E-04   1.84123314E-28   5.86808515E-05   2.29891477E-05  
  32               6.41905268E-02   3.77391766E+02   8.38403815E-01   1.60526984E-01   4.50398866E-04   3.14428205E-04   2.14649456E-04   9.39124498E-28   5.86809965E-05   2.29891469E-05  
  33               7.46226029E-02   3.90157026E+02   8.38403648E-01   1.60526934E-01   4.50399649E-04   3.14428751E-04   2.14649828E-04   8.50259718E-27   5.86810984E-05   2.29891397E-05  
  34               8.66871349E-02   4.00674012E+02   8.38403682E-01   1.60526897E-01   4.50400376E-04   3.14429259E-04   2.14650175E-04   4.62527794E-26   5.86811931E-05   2.29891345E-05  
  35               1.00616407E-01   4.15166473E+02   8.38403732E-01   1.60526846E-01   4.50401057E-04   3.14429734E-04   2.14650499E-04   4.24474493E-25   5.86812818E-05   2.29891271E-05  
  36               1.16668350E-01   4.27635669E+02   8.38403788E-01   1.60526776E-01   4.50405836E-04   3.14433071E-04   2.14652777E-04   2.50141487E-24   5.86819045E-05   2.29891171E-05  
  37               1.35144543E-01   4.44191583E+02   8.38403937E-01   1.60526597E-01   4.50406627E-04   3.14433623E-04   2.14653154E-04   2.30424270E-23   5.86820076E-05   2.29890914E-05  
  38               1.56369380E-01   4.59204049E+02   8.38400901E-01   1.60525730E-01   4.50407313E-04   3.14434102E-04   2.14653481E-04   1.48766559E-22   5.86820970E-05   2.29889674E-05  
  39               1.80679070E-01   4.79314026E+02   8.38401554E-01   1.60525074E-01   4.50408559E-04   3.14434971E-04   2.14654075E-04   1.53626360E-21   5.86822592E-05   2.29888734E-05  
  40               2.08370378E-01   5.00253650E+02   8.38402699E-01   1.60523847E-01   4.50444234E-04   3.14459877E-04   2.14671077E-04   1.42962703E-20   5.86869073E-05   2.29886977E-05  
  41               2.39876440E-01   5.21782750E+02   8.38404590E-01   1.60521959E-01   4.50443061E-04   3.14459058E-04   2.14670518E-04   1.17331117E-19   5.86867544E-05   2.29884273E-05  
  42               2.75714075E-01   5.44016033E+02   8.38407127E-01   1.60519427E-01   4.50441222E-04   3.14457774E-04   2.14669641E-04   8.64787753E-19   5.86865148E-05   2.29880646E-05  
  43               3.16460645E-01   5.66906191E+02   8.38410045E-01   1.60516515E-01   4.50438793E-04   3.14456078E-04   2.14668484E-04   5.73066689E-18   5.86861983E-05   2.29876476E-05  
  44               3.62735623E-01   5.90551572E+02   8.38413022E-01   1.60513543E-01   4.50436574E-04   3.14454529E-04   2.14667426E-04   3.46034322E-17   5.86859092E-05   2.29872221E-05  
  45               4.15202395E-01   6.14866337E+02   8.38415775E-01   1.60510795E-01   4.50434602E-04   3.14453152E-04   2.14666486E-04   1.90012772E-16   5.86856523E-05   2.29868285E-05  
  46               4.74614123E-01   6.39956528E+02   8.38418179E-01   1.60508394E-01   4.50433454E-04   3.14452351E-04   2.14665939E-04   9.60530767E-16   5.86855028E-05   2.29864846E-05  
  47               5.41923820E-01   6.65775726E+02   8.38420187E-01   1.60506385E-01   4.50432909E-04   3.14451971E-04   2.14665680E-04   4.47309166E-15   5.86854318E-05   2.29861969E-05  
  48               6.18144442E-01   6.92456762E+02   8.38421829E-01   1.60504733E-01   4.50433315E-04   3.14452254E-04   2.14665873E-04   1.94122607E-14   5.86854846E-05   2.29859603E-05  
  49               7.04315560E-01   7.19877009E+02   8.38423130E-01   1.60503399E-01   4.50434563E-04   3.14453125E-04   2.14666468E-04   7.82110266E-14   5.86856473E-05   2.29857692E-05  
  50               8.01503381E-01   7.48132368E+02   8.38424018E-01   1.60502294E-01   4.50436962E-04   3.14454800E-04   2.14667611E-04   2.95057141E-13   5.86859597E-05   2.29856109E-05  
  51               9.10875501E-01   7.77069854E+02   8.38424632E-01   1.60501394E-01   4.50442931E-04   3.14458967E-04   2.14670456E-04   1.03825527E-12   5.86867375E-05   2.29854817E-05  
  52               1.03409064E+00   8.06902764E+02   8.38425313E-01   1.60500696E-01   4.50447572E-04   3.14462207E-04   2.14672668E-04   3.45160975E-12   5.86873422E-05   2.29853812E-05  
  53               1.17289776E+00   8.37510157E+02   8.38425857E-01   1.60500119E-01   4.50454565E-04   3.14467089E-04   2.14676000E-04   1.08132489E-11   5.86882533E-05   2.29893628E-05  
  54               1.32902031E+00   8.69038718E+02   8.38426299E-01   1.60499609E-01   4.50459930E-04   3.14470834E-04   2.14678557E-04   3.21906269E-11   5.86889523E-05   2.30006193E-05  
  55               1.50414641E+00   9.01252095E+02   8.38426621E-01   1.60499104E-01   4.50465901E-04   3.14475003E-04   2.14681403E-04   9.05405608E-11   5.86897302E-05   2.30350571E-05  
  56               1.69992061E+00   9.34274769E+02   8.38426743E-01   1.60498482E-01   4.50472793E-04   3.14479815E-04   2.14684687E-04   2.42404832E-10   5.86906281E-05   2.31373108E-05  
  57               1.91853880E+00   9.67892326E+02   8.38426258E-01   1.60497513E-01   4.50482420E-04   3.14486542E-04   2.14689275E-04   6.15534851E-10   5.86918824E-05   2.34190541E-05  
  58               2.16275354E+00   1.00238859E+03   8.38425896E-01   1.60496102E-01   4.50499435E-04   3.14498445E-04   2.14697384E-04   1.49896776E-09   5.86940992E-05   2.42911242E-05  
  59               2.43537159E+00   1.03750843E+03   8.38428036E-01   1.60493964E-01   4.50502817E-04   3.14500907E-04   2.14698995E-04   3.48493954E-09   5.86945399E-05   2.42907261E-05  
  60               2.73931099E+00   1.07351751E+03   8.38431679E-01   1.60490331E-01   4.50504306E-04   3.14502341E-04   2.14699701E-04   7.80662423E-09   5.86947344E-05   2.42900461E-05  
  61               3.07757729E+00   1.11005215E+03   8.38437527E-01   1.60484493E-01   4.50502210E-04   3.14502342E-04   2.14698677E-04   1.67445419E-08   5.86944649E-05   2.42889447E-05  
  62               3.45336628E+00   1.14746148E+03   8.38446450E-01   1.60475570E-01   4.50496587E-04   3.14503600E-04   2.14695837E-04   3.47425755E-08   5.86937543E-05   2.42872359E-05  
  63               3.87108674E+00   1.18535924E+03   8.38458838E-01   1.60463158E-01   4.50484553E-04   3.14512845E-04   2.14689175E-04   6.93137089E-08   5.86923122E-05   2.42847898E-05  
  64               4.33598674E+00   1.22430903E+03   8.38474917E-01   1.60446994E-01   4.50465478E-04   3.14557353E-04   2.14675187E-04   1.34676636E-07   5.86904791E-05   2.42814511E-05  
  65               4.85372637E+00   1.26257575E+03   8.38492710E-01   1.60428994E-01   4.50426273E-04   3.14711643E-04   2.14632853E-04   2.47658929E-07   5.86884458E-05   2.42774291E-05  
  66               5.43145654E+00   1.29782279E+03   8.38508917E-01   1.60412392E-01   4.50319142E-04   3.15159655E-04   2.14484128E-04   4.17646453E-07   5.86868437E-05   2.42732377E-05  
  67               6.07624721E+00   1.33452662E+03   8.38525813E-01   1.60394864E-01   4.49995180E-04   3.16271399E-04   2.14000171E-04   6.98716237E-07   5.86853300E-05   2.42681215E-05  
  68               6.79543138E+00   1.36961543E+03   8.38540560E-01   1.60379477E-01   4.49091004E-04   3.18733482E-04   2.12603158E-04   1.10844442E-06   5.86844992E-05   2.42624719E-05  
  69               7.59855012E+00   1.40723547E+03   8.38556381E-01   1.60363696E-01   4.46867355E-04   3.23595143E-04   2.09139090E-04   1.77461413E-06   5.86838737E-05   2.42546365E-05  
  70               8.50115110E+00   1.44412640E+03   8.38571957E-01   1.60350566E-01   4.42093577E-04   3.32069767E-04   2.01793877E-04   2.73872356E-06   5.86836839E-05   2.42436261E-05  
  71               9.52308748E+00   1.48427649E+03   8.38591161E-01   1.60338049E-01   4.33237601E-04   3.45206766E-04   1.88665232E-04   4.29215186E-06   5.86830369E-05   2.42218424E-05  
  72               1.06872254E+01   1.52443094E+03   8.38611759E-01   1.60328424E-01   4.19705780E-04   3.62562618E-04   1.70178382E-04   6.54679434E-06   5.86823502E-05   2.41747327E-05  
  73               1.20148034E+01   1.56847555E+03   8.38631864E-01   1.60319066E-01   4.02541503E-04   3.83114281E-04   1.48172579E-04   1.01649069E-05   5.86819864E-05   2.40443182E-05  
  74               1.35118335E+01   1.61309781E+03   8.38636413E-01   1.60309190E-01   3.87025916E-04   4.03841077E-04   1.27135375E-04   1.54548796E-05   5.86854459E-05   2.37053944E-05  
  75               1.51554283E+01   1.66186840E+03   8.38643526E-01   1.60301293E-01   3.79664670E-04   4.25820799E-04   1.04532144E-04   2.38971037E-05   5.87056022E-05   2.24506897E-05  
  76               1.69064172E+01   1.71115942E+03   8.38645127E-01   1.60293609E-01   3.66868667E-04   4.43026568E-04   8.73369168E-05   3.62138044E-05   5.87069769E-05   2.23383620E-05  
  77               1.86779031E+01   1.75697959E+03   8.38627222E-01   1.60285636E-01   3.63299845E-04   4.57087864E-04   7.32356379E-05   5.21192170E-05   5.87183203E-05   2.20914408E-05  
  78               2.03171190E+01   1.79644791E+03   8.38579468E-01   1.60275586E-01   3.72823173E-04   4.68755636E-04   6.15517909E-05   7.01982889E-05   5.87401385E-05   2.16794394E-05  
  79               2.20535755E+01   1.83550285E+03   8.38508069E-01   1.60264856E-01   3.98754701E-04   4.79955863E-04   5.02243258E-05   9.29854548E-05   5.87724314E-05   2.10880792E-05  
  80               2.36006221E+01   1.86834014E+03   8.38452864E-01   1.60257755E-01   4.19129036E-04   4.87325690E-04   4.27636565E-05   1.16644594E-04   5.88043638E-05   2.07268395E-05  
  81               2.49296324E+01   1.89516316E+03   8.38435839E-01   1.60254790E-01   4.16181867E-04   4.90713211E-04   3.93954448E-05   1.39493409E-04   5.87965317E-05   2.07203611E-05  
  82               2.64042163E+01   1.92364597E+03   8.38404470E-01   1.60249713E-01   4.13028752E-04   4.93832080E-04   3.62308771E-05   1.67689700E-04   5.87843759E-05   2.07113890E-05  
  83               2.80400755E+01   1.95371974E+03   8.38376352E-01   1.60246022E-01   4.10119195E-04   4.96700824E-04   3.32972974E-05   2.02383661E-04   5.87700052E-05   2.06997030E-05  
  84               2.94028073E+01   1.97778713E+03   8.38349750E-01   1.60242812E-01   4.08047768E-04   4.98747848E-04   3.11994062E-05   2.34223040E-04   5.87738897E-05   2.06880976E-05  
  85               3.04811083E+01   1.99613797E+03   8.38326863E-01   1.60240204E-01   4.06597851E-04   5.00172789E-04   2.97426080E-05   2.61138879E-04   5.87568135E-05   2.06778678E-05  
  86               3.16973068E+01   2.01627903E+03   8.38298950E-01   1.60237149E-01   4.05134583E-04   5.01610655E-04   2.82612292E-05   2.93544729E-04   5.87347480E-05   2.06650233E-05  
  87               3.30635347E+01   2.03805820E+03   8.38233083E-01   1.60227450E-01   4.03680566E-04   5.03004966E-04   2.68009141E-05   3.32136694E-04   5.87042952E-05   2.06485124E-05  
  88               3.46010270E+01   2.06177647E+03   8.38191970E-01   1.60223290E-01   4.02254027E-04   5.04406625E-04   2.53443966E-05   3.78777892E-04   5.86754009E-05   2.06288806E-05  
  89               3.63465873E+01   2.08761926E+03   8.38141603E-01   1.60218314E-01   4.00895219E-04   5.05757173E-04   2.39137178E-05   4.35428183E-04   5.86475332E-05   2.06046834E-05  
  90               3.76742253E+01   2.10669300E+03   8.38100427E-01   1.60214325E-01   3.99938559E-04   5.06687135E-04   2.29423660E-05   4.81489623E-04   5.86610050E-05   2.05843600E-05  
  91               3.86490794E+01   2.12026273E+03   8.38069020E-01   1.60211329E-01   3.99302321E-04   5.07290071E-04   2.23008757E-05   5.16529683E-04   5.86321214E-05   2.05688438E-05  
  92               3.97637585E+01   2.13553612E+03   8.38031361E-01   1.60207770E-01   3.98622972E-04   5.07935589E-04   2.16111198E-05   5.58423538E-04   5.86067337E-05   2.05501101E-05  
  93               4.10337682E+01   2.15237224E+03   8.37987001E-01   1.60203623E-01   3.97930388E-04   5.08589487E-04   2.09064526E-05   6.07613700E-04   5.85810993E-05   2.05281476E-05  
  94               4.24789181E+01   2.17111633E+03   8.37933835E-01   1.60198697E-01   3.97204602E-04   5.09270400E-04   2.01665257E-05   6.66421740E-04   5.85530914E-05   2.05017549E-05  
  95               4.41178876E+01   2.19157545E+03   8.37871173E-01   1.60192948E-01   3.96482568E-04   5.09941296E-04   1.94278389E-05   7.35543352E-04   5.85211156E-05   2.04708906E-05  
  96               4.59705596E+01   2.21406361E+03   8.37796271E-01   1.60186128E-01   3.95746175E-04   5.10618783E-04   1.86719391E-05   8.17989769E-04   5.84847880E-05   2.04341088E-05  
  97               4.80581628E+01   2.23829553E+03   8.37708314E-01   1.60178186E-01   3.95035848E-04   5.11262477E-04   1.79384096E-05   9.14588291E-04   5.84430481E-05   2.03914793E-05  
  98               5.04033655E+01   2.26460328E+03   8.37603579E-01   1.60168788E-01   3.94331048E-04   5.11891075E-04   1.72062861E-05   1.02941704E-03   5.83959255E-05   2.03412224E-05  
  99               5.30305648E+01   2.29258254E+03   8.37481332E-01   1.60157888E-01   3.93675146E-04   5.12461569E-04   1.65175809E-05   1.16320998E-03   5.83420827E-05   2.02837300E-05  
  100              5.59660413E+01   2.32263012E+03   8.37334448E-01   1.60144649E-01   3.93040427E-04   5.12997183E-04   1.58448956E-05   1.32159957E-03   5.82816671E-05   2.02167208E-05  
  101              5.92384898E+01   2.35417219E+03   8.37158869E-01   1.60129621E-01   3.98339788E-04   5.13691374E-04   1.50166829E-05   1.50459825E-03   5.82186091E-05   2.01726406E-05  
