# ATMO chemical composition profiles
# Chemical abundances given as mole fraction for the 8 most abundant species
# Model Level      Pressure [Ba]    Temperature [K]  H2               He               CH4              H2O              NH3              CO               H                H2S             
  1                1.00000000E-05   4.53531910E+01   8.38831738E-01   1.60608905E-01   5.31825697E-04   4.95308834E-17   2.41783628E-07   3.12809920E-104  3.16582812E-109  2.30011734E-05  
  2                1.54145563E-04   6.12056960E+01   8.38831738E-01   1.60608905E-01   5.31825697E-04   5.34850682E-17   2.41783628E-07   1.42159189E-106  8.06346709E-110  2.30011734E-05  
  3                3.24287082E-04   6.58677792E+01   8.38831738E-01   1.60608905E-01   5.31825697E-04   5.13556996E-17   2.41783628E-07   3.08413794E-107  5.55933069E-110  2.30011734E-05  
  4                5.25124486E-04   7.36266026E+01   8.38831738E-01   1.60608905E-01   5.31825697E-04   5.58144622E-17   2.41783628E-07   1.27828192E-107  4.36873999E-110  2.30011734E-05  
  5                7.57872250E-04   7.79557141E+01   8.38831738E-01   1.60608905E-01   5.31825697E-04   5.51985807E-17   2.41783628E-07   6.06932430E-108  3.63654805E-110  2.30011734E-05  
  6                1.02460141E-03   8.27332803E+01   8.38831738E-01   1.60608905E-01   5.31825697E-04   5.43928174E-17   2.41783628E-07   3.27217182E-108  3.12759030E-110  2.30011734E-05  
  7                1.32902197E-03   8.73246794E+01   8.38831738E-01   1.60608905E-01   5.31825697E-04   5.35576943E-17   2.41783628E-07   1.91497009E-108  2.74613101E-110  2.30011734E-05  
  8                1.67818880E-03   9.25739625E+01   8.38831738E-01   1.60608905E-01   5.31825697E-04   5.27863808E-17   2.41783628E-07   1.18370830E-108  2.44380711E-110  2.30011734E-05  
  9                2.07822586E-03   9.98840009E+01   8.38830766E-01   1.60608719E-01   5.31825081E-04   4.79545292E-17   2.43110541E-07   7.01210787E-109  2.19604107E-110  2.30011468E-05  
  10               2.53204880E-03   1.05375904E+02   8.38814685E-01   1.60605640E-01   5.31814885E-04   8.59673298E-16   1.42100992E-06   1.44351551E-102  1.17549809E-104  2.30007058E-05  
  11               2.96673136E-03   1.11748280E+02   8.38814685E-01   1.60605640E-01   5.31814885E-04   1.94053909E-14   2.05705641E-05   8.58063091E-96   1.44292979E-98   2.30007058E-05  
  12               3.29476243E-03   1.14607389E+02   8.38729755E-01   1.60589379E-01   5.31761039E-04   6.75599467E-14   2.06627798E-05   4.78577376E-93   4.60243330E-96   2.29983770E-05  
  13               3.52312380E-03   1.18085826E+02   8.38729755E-01   1.60589379E-01   5.31761039E-04   3.50381275E-13   1.21819235E-04   9.59552757E-90   3.61148195E-93   2.29983770E-05  
  14               3.65854685E-03   1.18536620E+02   8.38729755E-01   1.60589379E-01   5.31761039E-04   3.51364729E-13   1.21819235E-04   1.91500043E-89   8.20448118E-93   2.29983770E-05  
  15               3.81833541E-03   1.21190608E+02   8.38729755E-01   1.60589379E-01   5.31761039E-04   1.40634181E-12   1.21819235E-04   5.63170847E-87   9.91235646E-91   2.29983770E-05  
  16               4.00680966E-03   1.22071020E+02   8.38729755E-01   1.60589379E-01   5.31761039E-04   1.41213709E-12   1.21819235E-04   2.10843561E-86   4.56517621E-90   2.29983770E-05  
  17               4.22903761E-03   1.25265858E+02   8.38729755E-01   1.60589379E-01   5.31761039E-04   7.62888389E-12   1.21819235E-04   1.45966055E-83   1.03098982E-87   2.29983770E-05  
  18               4.49095979E-03   1.26671897E+02   8.38729755E-01   1.60589379E-01   5.31761039E-04   7.67360632E-12   1.21819235E-04   1.06892148E-82   1.00817716E-86   2.29983770E-05  
  19               4.79954289E-03   1.30523295E+02   8.38729755E-01   1.60589379E-01   5.31761039E-04   5.56485182E-11   1.21819235E-04   1.72597039E-79   4.23609107E-84   2.29983770E-05  
  20               5.16297714E-03   1.32551491E+02   8.38729754E-01   1.60589379E-01   5.31761038E-04   5.60892433E-11   1.21819235E-04   2.44630246E-78   8.68502326E-83   2.29983770E-05  
  21               5.59086197E-03   1.37175854E+02   8.38729754E-01   1.60589379E-01   5.31761038E-04   5.28866804E-10   1.21819235E-04   8.40075682E-75   6.34058250E-80   2.29983770E-05  
  22               6.09445645E-03   1.39915119E+02   8.38729751E-01   1.60589378E-01   5.31761036E-04   5.32604363E-10   1.21819234E-04   2.13840093E-73   2.51291432E-78   2.29983769E-05  
  23               6.68694460E-03   1.45419917E+02   8.38729751E-01   1.60589378E-01   5.31761036E-04   4.54200694E-09   1.21819234E-04   9.64825365E-70   2.78832913E-75   2.29983769E-05  
  24               7.38399146E-03   1.47854084E+02   8.38729734E-01   1.60589375E-01   5.31761026E-04   4.56010167E-09   1.21819232E-04   1.18754365E-68   5.08937686E-74   2.29983764E-05  
  25               8.20415143E-03   1.52459530E+02   8.38729734E-01   1.60589375E-01   5.31761026E-04   2.39714734E-08   1.21819232E-04   6.69214247E-66   9.98081567E-72   2.29983764E-05  
  26               9.16885817E-03   1.54904972E+02   8.38729668E-01   1.60589362E-01   5.31760984E-04   2.40449760E-08   1.21819222E-04   6.40676346E-65   1.40814587E-70   2.29983746E-05  
  27               1.03033191E-02   1.59304708E+02   8.38729668E-01   1.60589362E-01   5.31760984E-04   1.02905556E-07   1.21819222E-04   1.55459815E-62   1.39430356E-68   2.29983746E-05  
  28               1.16369389E-02   1.61859207E+02   8.38729417E-01   1.60589314E-01   5.31760824E-04   1.03184712E-07   1.21819186E-04   1.31429267E-61   1.74208054E-67   2.29983677E-05  
  29               1.32042219E-02   1.66326152E+02   8.38729417E-01   1.60589314E-01   5.31760824E-04   4.02830718E-07   1.21819186E-04   2.13707698E-59   1.24433646E-65   2.29983677E-05  
  30               1.50454195E-02   1.69114026E+02   8.38728476E-01   1.60589134E-01   5.31760228E-04   4.03872435E-07   1.21819049E-04   1.78464706E-58   1.55062753E-64   2.29983419E-05  
  31               1.72074769E-02   1.73807849E+02   8.38728476E-01   1.60589134E-01   5.31760228E-04   1.52401608E-06   1.21819049E-04   2.39459244E-56   9.38455286E-63   2.29983419E-05  
  32               1.97448397E-02   1.76942860E+02   8.38724999E-01   1.60588468E-01   5.31758024E-04   1.52784287E-06   1.21818544E-04   2.12037621E-55   1.25541803E-61   2.29982466E-05  
  33               2.27205885E-02   1.81999254E+02   8.38724999E-01   1.60588468E-01   5.31758024E-04   5.66974023E-06   1.21818544E-04   2.61197261E-53   7.07128664E-60   2.29982466E-05  
  34               2.62073575E-02   1.85493618E+02   8.38710258E-01   1.60585646E-01   5.31748678E-04   5.68552305E-06   1.21816403E-04   2.39034222E-52   9.83684806E-59   2.29978424E-05  
  35               3.02880620E-02   1.90913192E+02   8.38710258E-01   1.60585646E-01   5.31748678E-04   2.32447863E-05   1.21816403E-04   2.94655275E-50   4.98918412E-57   2.29978424E-05  
  36               3.50521035E-02   1.95543441E+02   8.38676661E-01   1.60579213E-01   5.31727377E-04   2.32781465E-05   1.21811524E-04   4.42050097E-49   1.18560799E-55   2.29969212E-05  
  37               4.05957819E-02   2.02966794E+02   8.38549362E-01   1.60554839E-01   5.31646668E-04   6.33947944E-05   1.21793034E-04   8.32028988E-47   1.46277311E-53   2.29934305E-05  
  38               4.69733639E-02   2.12565952E+02   8.38074110E-01   1.60463844E-01   5.31345355E-04   2.14956848E-04   1.21724007E-04   4.66387129E-44   4.56657884E-51   2.29803989E-05  
  39               5.39367110E-02   2.21917009E+02   8.38074110E-01   1.60463844E-01   5.31345355E-04   7.81711877E-04   1.21724007E-04   1.59982610E-41   7.60744678E-49   2.29803989E-05  
  40               6.14328725E-02   2.31148217E+02   8.38074110E-01   1.60463844E-01   5.31345355E-04   7.81711877E-04   1.21724007E-04   9.92175233E-40   7.89909260E-47   2.29803989E-05  
  41               7.01649466E-02   2.40817367E+02   8.38074110E-01   1.60463844E-01   5.31345355E-04   7.81711877E-04   1.21724007E-04   5.30541802E-38   6.96321494E-45   2.29803989E-05  
  42               8.03335572E-02   2.51138147E+02   8.38074110E-01   1.60463844E-01   5.31345355E-04   7.81711877E-04   1.21724007E-04   2.64697409E-36   5.66794434E-43   2.29803989E-05  
  43               9.21714088E-02   2.61916826E+02   8.38074110E-01   1.60463844E-01   5.31345355E-04   7.81711877E-04   1.21724007E-04   1.12503415E-34   3.86395605E-41   2.29803989E-05  
  44               1.05947171E-01   2.73376034E+02   8.38074110E-01   1.60463844E-01   5.31345355E-04   7.81711877E-04   1.21724007E-04   4.38234687E-33   2.38422816E-39   2.29803989E-05  
  45               1.21967965E-01   2.85312827E+02   8.38074110E-01   1.60463844E-01   5.31345355E-04   7.81711877E-04   1.21724006E-04   1.44728520E-31   1.22547139E-37   2.29803989E-05  
  46               1.40592821E-01   2.97959860E+02   8.38074110E-01   1.60463844E-01   5.31345355E-04   7.81711877E-04   1.21724003E-04   4.33517333E-30   5.63603918E-36   2.29803989E-05  
  47               1.62244656E-01   3.11117189E+02   8.38074109E-01   1.60463844E-01   5.31345355E-04   7.81711877E-04   1.21723990E-04   1.10529059E-28   2.16875623E-34   2.29803989E-05  
  48               1.87414908E-01   3.25042619E+02   8.38074109E-01   1.60463844E-01   5.31345354E-04   7.81711796E-04   1.21723948E-04   2.55844328E-27   7.47604543E-33   2.29803989E-05  
  49               2.16669745E-01   3.39525260E+02   8.38074110E-01   1.60463844E-01   5.31345354E-04   7.81711015E-04   1.21723812E-04   5.08363138E-26   2.17683261E-31   2.29803989E-05  
  50               2.50655499E-01   3.54829808E+02   8.38074106E-01   1.60463843E-01   5.31345352E-04   7.81711011E-04   1.21723394E-04   9.17745283E-25   5.68394508E-30   2.29803988E-05  
  51               2.90130306E-01   3.70725998E+02   8.38074111E-01   1.60463843E-01   5.31345352E-04   7.81706346E-04   1.21722197E-04   1.43120283E-23   1.26282943E-28   2.29803988E-05  
  52               3.35967077E-01   3.87504044E+02   8.38073895E-01   1.60463801E-01   5.31345212E-04   7.81706139E-04   1.21718830E-04   2.03407569E-22   2.52553495E-27   2.29803927E-05  
  53               3.89165943E-01   4.04919711E+02   8.38074140E-01   1.60463820E-01   5.31345277E-04   7.81445956E-04   1.21710190E-04   2.51916510E-21   4.34236892E-26   2.29803955E-05  
  54               4.50866883E-01   4.23281964E+02   8.38074154E-01   1.60463817E-01   5.31345265E-04   7.81445999E-04   1.21688286E-04   2.85651826E-20   6.75487968E-25   2.29803950E-05  
  55               5.22387215E-01   4.42318151E+02   8.38074175E-01   1.60463806E-01   5.31345230E-04   7.81447891E-04   1.21636597E-04   2.84519501E-19   9.11474901E-24   2.29803935E-05  
  56               6.05274242E-01   4.62368632E+02   8.38073807E-01   1.60463712E-01   5.31344917E-04   7.81500358E-04   1.21517459E-04   2.60636768E-18   1.11924019E-22   2.29803800E-05  
  57               7.01293652E-01   4.83141891E+02   8.38069235E-01   1.60463123E-01   5.31342969E-04   7.83380888E-04   1.21261190E-04   2.12153563E-17   1.20498173E-21   2.29802957E-05  
  58               8.12593697E-01   5.05028224E+02   8.38072724E-01   1.60463311E-01   5.31343590E-04   7.79971618E-04   1.20725155E-04   1.58929646E-16   1.19113105E-20   2.29803226E-05  
  59               9.41795643E-01   5.27752102E+02   8.38073414E-01   1.60463144E-01   5.31343036E-04   7.79970809E-04   1.19681602E-04   1.07459945E-15   1.04872545E-19   2.29802986E-05  
  60               1.09219810E+00   5.51780874E+02   8.38074711E-01   1.60462829E-01   5.31341994E-04   7.79969292E-04   1.17721764E-04   6.81357338E-15   8.59861446E-19   2.29802536E-05  
  61               1.26814694E+00   5.76892719E+02   8.38076931E-01   1.60462291E-01   5.31340213E-04   7.79966706E-04   1.14368728E-04   3.95239954E-14   6.41187684E-18   2.29801765E-05  
  62               1.47541183E+00   6.03703396E+02   8.38080495E-01   1.60461427E-01   5.31337351E-04   7.79962575E-04   1.08982716E-04   2.18907351E-13   4.54850968E-17   2.29800528E-05  
  63               1.72159007E+00   6.32073317E+02   8.38085543E-01   1.60460203E-01   5.31333297E-04   7.79956789E-04   1.01354660E-04   1.13332363E-12   3.00977462E-16   2.29798775E-05  
  64               2.01685912E+00   6.62769406E+02   8.38092071E-01   1.60458620E-01   5.31328050E-04   7.79949472E-04   9.14900317E-05   5.70056171E-12   1.93508976E-15   2.29796508E-05  
  65               2.37377844E+00   6.95642397E+02   8.38099425E-01   1.60456835E-01   5.31322117E-04   7.79941626E-04   8.03708930E-05   2.71617109E-11   1.18000432E-14   2.29793952E-05  
  66               2.80581331E+00   7.31262736E+02   8.38107018E-01   1.60454987E-01   5.31315895E-04   7.79934412E-04   6.88704950E-05   1.24935274E-10   6.95347509E-14   2.29791304E-05  
  67               3.32541633E+00   7.68989997E+02   8.38113853E-01   1.60453247E-01   5.31309722E-04   7.79929417E-04   5.82546104E-05   5.32316457E-10   3.79262378E-13   2.29788811E-05  
  68               3.94406081E+00   8.09014820E+02   8.38119800E-01   1.60451702E-01   5.31303009E-04   7.79927934E-04   4.89103500E-05   2.11765074E-09   1.92549937E-12   2.29786595E-05  
  69               4.67341557E+00   8.50494207E+02   8.38124867E-01   1.60450465E-01   5.31293390E-04   7.79930372E-04   4.12295245E-05   7.61527890E-09   8.79728032E-12   2.29784813E-05  
  70               5.52209105E+00   8.93497437E+02   8.38128967E-01   1.60449446E-01   5.31272519E-04   7.79931871E-04   3.49688291E-05   2.50594623E-08   3.65428192E-11   2.29879783E-05  
  71               6.49521274E+00   9.36951660E+02   8.38132059E-01   1.60448616E-01   5.31221076E-04   7.79916042E-04   3.00775282E-05   7.36446163E-08   1.34507818E-10   2.30240202E-05  
  72               7.59754775E+00   9.81030170E+02   8.38134151E-01   1.60447858E-01   5.31094717E-04   7.79840712E-04   2.61864675E-05   1.97281452E-07   4.47458755E-10   2.31568391E-05  
  73               8.83951891E+00   1.02507305E+03   8.38135100E-01   1.60447097E-01   5.30810796E-04   7.79621651E-04   2.31575441E-05   4.78275653E-07   1.33747132E-09   2.35816932E-05  
  74               1.02322364E+01   1.06959559E+03   8.38136125E-01   1.60446394E-01   5.30210614E-04   7.79115535E-04   2.07183118E-05   1.07538838E-06   3.68496879E-09   2.42835479E-05  
  75               1.17867846E+01   1.11394601E+03   8.38138767E-01   1.60445703E-01   5.29055612E-04   7.78116512E-04   1.87974893E-05   2.22681177E-06   9.30660612E-09   2.42833077E-05  
  76               1.35158618E+01   1.15868196E+03   8.38142405E-01   1.60444758E-01   5.26945186E-04   7.76190687E-04   1.72269726E-05   4.33191238E-06   2.20167896E-08   2.42829237E-05  
  77               1.54369620E+01   1.20328821E+03   8.38147695E-01   1.60443401E-01   5.23398928E-04   7.72851374E-04   1.59739638E-05   7.87012599E-06   4.86322179E-08   2.42823147E-05  
  78               1.75775287E+01   1.24856901E+03   8.38155683E-01   1.60441374E-01   5.17667840E-04   7.67347969E-04   1.49302545E-05   1.35888232E-05   1.02448652E-07   2.42813458E-05  
  79               1.99671742E+01   1.29411708E+03   8.38167241E-01   1.60438459E-01   5.09085933E-04   7.59004987E-04   1.40870578E-05   2.21524231E-05   2.05206978E-07   2.42798650E-05  
  80               2.26356501E+01   1.34057201E+03   8.38183557E-01   1.60434357E-01   4.96760111E-04   7.46926671E-04   1.33794939E-05   3.44516495E-05   3.96412985E-07   2.42776263E-05  
  81               2.56121501E+01   1.38739533E+03   8.38204914E-01   1.60428983E-01   4.80436070E-04   7.30850666E-04   1.28108006E-05   5.07392290E-05   7.34648118E-07   2.42743546E-05  
  82               2.89344042E+01   1.43521319E+03   8.38231723E-01   1.60422202E-01   4.59742148E-04   7.10411636E-04   1.23367097E-05   7.13842383E-05   1.32145641E-06   2.42694606E-05  
  83               3.26504524E+01   1.48364455E+03   8.38262766E-01   1.60414229E-01   4.35426522E-04   6.86379580E-04   1.19628542E-05   9.56372993E-05   2.29965793E-06   2.42617427E-05  
  84               3.68149955E+01   1.53331192E+03   8.38297034E-01   1.60405150E-01   4.07917463E-04   6.59289398E-04   1.16592565E-05   1.23067137E-04   3.90846133E-06   2.42474065E-05  
  85               4.14618704E+01   1.58357255E+03   8.38331332E-01   1.60395385E-01   3.78886966E-04   6.31023851E-04   1.14336635E-05   1.52000669E-04   6.44969210E-06   2.42154048E-05  
  86               4.65941042E+01   1.63441143E+03   8.38362009E-01   1.60384903E-01   3.49306103E-04   6.02978265E-04   1.12661533E-05   1.81463316E-04   1.03596853E-05   2.41325259E-05  
  87               5.21719486E+01   1.68470403E+03   8.38377096E-01   1.60372626E-01   3.20653917E-04   5.78368382E-04   1.11618631E-05   2.09971774E-04   1.60670421E-05   2.39159119E-05  
  88               5.81260776E+01   1.73409306E+03   8.38391075E-01   1.60362479E-01   2.91470727E-04   5.66476775E-04   1.11035241E-05   2.39000682E-04   2.40876260E-05   2.30393289E-05  
  89               6.43969229E+01   1.78179391E+03   8.38406115E-01   1.60353311E-01   2.67841533E-04   5.45228042E-04   1.10918916E-05   2.62458016E-04   3.48119755E-05   2.29739864E-05  
  90               7.08662684E+01   1.82742851E+03   8.38407801E-01   1.60343874E-01   2.46192357E-04   5.30285179E-04   1.11114120E-05   2.83919417E-04   4.85809537E-05   2.28404891E-05  
  91               7.72505574E+01   1.86918690E+03   8.38388023E-01   1.60333211E-01   2.26333795E-04   5.25296799E-04   1.11588435E-05   3.03585873E-04   6.48968152E-05   2.25911138E-05  
  92               8.40921422E+01   1.91110858E+03   8.38334568E-01   1.60318657E-01   2.05063965E-04   5.33770202E-04   1.12275553E-05   3.24648308E-04   8.56226780E-05   2.21590465E-05  
  93               9.04821362E+01   1.94773641E+03   8.38267604E-01   1.60305421E-01   1.84034537E-04   5.60704361E-04   1.13090960E-05   3.45512084E-04   1.07929056E-04   2.15815731E-05  
  94               9.61276145E+01   1.97849820E+03   8.38259365E-01   1.60300683E-01   1.74601242E-04   5.51438829E-04   1.13889994E-05   3.54777469E-04   1.30175443E-04   2.15576964E-05  
  95               1.02361738E+02   2.01073291E+03   8.38246056E-01   1.60295678E-01   1.65541725E-04   5.42565277E-04   1.14867062E-05   3.63647229E-04   1.57358017E-04   2.15317627E-05  
  96               1.09223549E+02   2.04448130E+03   8.38218021E-01   1.60288661E-01   1.56842950E-04   5.34070658E-04   1.16006556E-05   3.72125834E-04   1.90596225E-04   2.15029603E-05  
  97               1.15160491E+02   2.07221632E+03   8.38197522E-01   1.60284141E-01   1.50303072E-04   5.27713381E-04   1.17061084E-05   3.78476092E-04   2.21955190E-04   2.14784672E-05  
  98               1.20031272E+02   2.09420644E+03   8.38178213E-01   1.60280420E-01   1.45431038E-04   5.22994761E-04   1.17939379E-05   3.83188985E-04   2.49684005E-04   2.14580740E-05  
  99               1.25524424E+02   2.11803459E+03   8.38153999E-01   1.60276263E-01   1.40510960E-04   5.18251030E-04   1.18974862E-05   3.87927178E-04   2.82769332E-04   2.14352658E-05  
  100              1.31698072E+02   2.14391818E+03   8.38123653E-01   1.60271540E-01   1.35489820E-04   5.13435128E-04   1.20147842E-05   3.92739469E-04   3.22614423E-04   2.14091937E-05  
  101              1.38611069E+02   2.17163517E+03   8.38050934E-01   1.60259499E-01   1.30525359E-04   5.08693471E-04   1.21501322E-05   3.97444022E-04   3.70054458E-04   2.13791583E-05  
