# ATMO chemical composition profiles
# Chemical abundances given as mole fraction for the 8 most abundant species
# Model Level      Pressure [Ba]    Temperature [K]  H                H2               He               CO               O-3P             H2O              Mg               Fe              
  1                1.00000000E-05   1.19146293E+03   4.84305073E-05   8.38702335E-01   1.60250931E-01   5.30515017E-04   6.94608246E-15   2.60733565E-04   5.76107020E-07   3.76775585E-06  
  2                1.41443607E-05   1.83692659E+03   1.10136961E-01   7.37333300E-01   1.51415958E-01   5.01324013E-04   4.36253366E-07   3.48201329E-04   6.31177808E-05   5.25006885E-05  
  3                1.62386224E-05   1.68761585E+03   2.91377728E-02   8.11794576E-01   1.57906432E-01   5.22805306E-04   1.94166974E-08   3.67078115E-04   6.58232104E-05   5.47511612E-05  
  4                1.85651950E-05   1.91307692E+03   1.67148926E-01   6.84923027E-01   1.46847657E-01   4.86201139E-04   1.28262753E-06   3.33487329E-04   6.12130454E-05   5.09166692E-05  
  5                2.11632416E-05   1.76103219E+03   4.93447351E-02   7.93218676E-01   1.56287175E-01   5.17449229E-04   6.76452248E-08   3.62446811E-04   6.51477049E-05   5.41896607E-05  
  6                2.41095229E-05   1.96435080E+03   2.06986794E-01   6.48300740E-01   1.43655398E-01   4.75633102E-04   2.31543509E-06   3.22199837E-04   5.98819084E-05   4.98097688E-05  
  7                2.74485230E-05   1.81602659E+03   6.83850651E-02   7.75715176E-01   1.54761482E-01   5.12400874E-04   1.50006561E-07   3.57960445E-04   6.45111465E-05   5.36606003E-05  
  8                3.12636214E-05   2.00687305E+03   2.38448260E-01   6.19378819E-01   1.41134264E-01   4.67286813E-04   3.49879176E-06   3.12505624E-04   5.88304885E-05   4.89355651E-05  
  9                3.56128732E-05   1.86352432E+03   8.69843381E-02   7.58617119E-01   1.53271146E-01   5.07468740E-04   2.74344541E-07   3.53411127E-04   6.38892579E-05   5.31437937E-05  
  10               4.06006265E-05   2.04545969E+03   2.65053679E-01   5.94921042E-01   1.39002185E-01   4.60228554E-04   4.83461777E-06   3.03630993E-04   5.79411878E-05   4.81962535E-05  
  11               4.63026619E-05   1.90762692E+03   1.05726114E-01   7.41388064E-01   1.51769387E-01   5.02498336E-04   4.53491642E-07   3.48637201E-04   6.32625244E-05   5.26230188E-05  
  12               5.28550035E-05   2.08229322E+03   2.88758540E-01   5.73129753E-01   1.37102474E-01   4.53939607E-04   6.34946658E-06   2.95100869E-04   5.71486779E-05   4.75375035E-05  
  13               6.03559244E-05   1.95036374E+03   1.25111370E-01   7.23567478E-01   1.50216054E-01   4.97356887E-04   7.07194115E-07   3.43482109E-04   6.26141948E-05   5.20843513E-05  
  14               6.89857595E-05   2.11863853E+03   3.10903627E-01   5.52772397E-01   1.35327689E-01   4.48064273E-04   8.09631145E-06   2.86534827E-04   5.64081622E-05   4.69220609E-05  
  15               7.88743357E-05   1.99298259E+03   1.45650607E-01   7.04686075E-01   1.48570230E-01   4.91909012E-04   1.06605239E-06   3.37764257E-04   6.19272018E-05   5.15136030E-05  
  16               9.02639112E-05   2.15539143E+03   3.32554873E-01   5.32869088E-01   1.33592406E-01   4.42319736E-04   1.01618364E-05   2.77566003E-04   5.56840230E-05   4.63203049E-05  
  17               1.03323355E-04   2.03645037E+03   1.67961180E-01   6.84176338E-01   1.46782437E-01   4.85990937E-04   1.57941762E-06   3.31240673E-04   6.11809095E-05   5.08936161E-05  
  18               1.18377961E-04   2.19332633E+03   3.54707152E-01   5.12505276E-01   1.31816885E-01   4.36441995E-04   1.26847535E-05   2.67774623E-04   5.49430148E-05   4.57045861E-05  
  19               1.35645518E-04   2.08161441E+03   1.92798703E-01   6.61343661E-01   1.44792111E-01   4.79402169E-04   2.32864900E-06   3.23578870E-04   6.03500660E-05   5.02033899E-05  
  20               1.55567815E-04   2.23319013E+03   3.78351060E-01   4.90770357E-01   1.29921714E-01   4.30168148E-04   1.58800452E-05   2.56650994E-04   5.41520342E-05   4.50473694E-05  
  21               1.78422904E-04   2.12933101E+03   2.21125456E-01   6.35303460E-01   1.42522117E-01   4.71887342E-04   3.45262463E-06   3.14303478E-04   5.94025191E-05   4.94161785E-05  
  22               2.04821463E-04   2.27582376E+03   4.04589754E-01   4.66650271E-01   1.27818443E-01   4.23205372E-04   2.00902303E-05   2.43519165E-04   5.32742178E-05   4.43179858E-05  
  23               2.35113578E-04   2.18065993E+03   2.54303119E-01   6.04804012E-01   1.39863296E-01   4.63085061E-04   5.20409091E-06   3.02671951E-04   5.82927811E-05   4.84941332E-05  
  24               2.70168932E-04   2.32239174E+03   4.34904841E-01   4.38783094E-01   1.25388255E-01   4.15160343E-04   2.59068979E-05   2.27356567E-04   5.22600609E-05   4.34752399E-05  
  25               3.10420715E-04   2.23725703E+03   2.94583973E-01   5.67774923E-01   1.36635080E-01   4.52397514E-04   8.09471186E-06   2.87363953E-04   5.69456259E-05   4.73746476E-05  
  26               3.57181037E-04   2.37507609E+03   4.72024045E-01   4.04661461E-01   1.22412392E-01   4.05308894E-04   3.45492063E-05   2.06216838E-04   5.10184348E-05   4.24432851E-05  
  27               4.10983273E-04   2.30329935E+03   3.47721749E-01   5.18925481E-01   1.32375870E-01   4.38296483E-04   1.34983632E-05   2.65049875E-04   5.51687677E-05   4.58976806E-05  
  28               4.73825236E-04   2.44231903E+03   5.27009726E-01   3.54108710E-01   1.18002936E-01   3.90711095E-04   5.15920636E-05   1.75984268E-04   4.91794784E-05   4.09142767E-05  
  29               5.50138405E-04   2.47843165E+03   5.54921215E-01   3.28451867E-01   1.15764772E-01   3.83302136E-04   6.17165151E-05   1.57413505E-04   4.82460489E-05   4.01381757E-05  
  30               6.38490641E-04   2.48739844E+03   5.44133801E-01   3.38368020E-01   1.16629610E-01   3.86165618E-04   5.84206526E-05   1.62995215E-04   4.86052316E-05   4.04379038E-05  
  31               7.40961709E-04   2.52445310E+03   5.71523590E-01   3.13190813E-01   1.14433186E-01   3.78894932E-04   6.91250977E-05   1.44394646E-04   4.76891630E-05   3.96762688E-05  
  32               8.59682217E-04   2.53459656E+03   5.61958422E-01   3.21983419E-01   1.15200047E-01   3.81434006E-04   6.60260456E-05   1.49307213E-04   4.80073388E-05   3.99420049E-05  
  33               9.97457938E-04   2.57248998E+03   5.88487670E-01   2.97597292E-01   1.13072551E-01   3.74391583E-04   7.71184221E-05   1.31056348E-04   4.71199526E-05   3.92042612E-05  
  34               1.15709821E-03   2.58373748E+03   5.79934987E-01   3.05459175E-01   1.13758243E-01   3.76661907E-04   7.42025141E-05   1.35378688E-04   4.74041068E-05   3.94418310E-05  
  35               1.34226663E-03   2.62241205E+03   6.05404105E-01   2.82047562E-01   1.11715704E-01   3.69900784E-04   8.54819668E-05   1.17800101E-04   4.65520741E-05   3.87335350E-05  
  36               1.55662881E-03   2.63495931E+03   5.98039976E-01   2.88816883E-01   1.12306100E-01   3.71855597E-04   8.28878987E-05   1.21379010E-04   4.67963090E-05   3.89380380E-05  
  37               1.80482373E-03   2.67431525E+03   6.22261794E-01   2.66551795E-01   1.10363553E-01   3.65425517E-04   9.41293675E-05   1.04789187E-04   4.59858870E-05   3.82644014E-05  
  38               2.09149346E-03   2.68835590E+03   6.16265831E-01   2.72063451E-01   1.10844243E-01   3.67017121E-04   9.20024587E-05   1.07492504E-04   4.61841960E-05   3.84308401E-05  
  39               2.42227403E-03   2.72824202E+03   6.39069096E-01   2.51102267E-01   1.09015446E-01   3.60963594E-04   1.02970999E-04   9.21801446E-05   4.54211115E-05   3.77966319E-05  
  40               2.80265380E-03   2.74354819E+03   6.34173978E-01   2.55601983E-01   1.09407861E-01   3.62262940E-04   1.01247461E-04   9.41855881E-05   4.55824191E-05   3.79324359E-05  
  41               3.23910593E-03   2.78375273E+03   6.55441117E-01   2.36052732E-01   1.07702264E-01   3.56617212E-04   1.11725475E-04   8.03598487E-05   4.48706076E-05   3.73409320E-05  
  42               3.73791883E-03   2.80038293E+03   6.51750143E-01   2.39445543E-01   1.07998118E-01   3.57596871E-04   1.10493654E-04   8.16355450E-05   4.49914800E-05   3.74432295E-05  
  43               4.30616363E-03   2.84066098E+03   6.71400640E-01   2.21382193E-01   1.06422192E-01   3.52380326E-04   1.20303704E-04   6.94244317E-05   4.43336407E-05   3.68966733E-05  
  44               4.95074253E-03   2.85861994E+03   6.68951255E-01   2.23633660E-01   1.06618483E-01   3.53030351E-04   1.19608656E-04   7.00042540E-05   4.44128592E-05   3.69644260E-05  
  45               5.67910947E-03   2.89868405E+03   6.86911122E-01   2.07124180E-01   1.05178165E-01   3.48262614E-04   1.28610524E-04   5.94669422E-05   4.38114709E-05   3.64648766E-05  
  46               6.49848506E-03   2.91758409E+03   6.85363381E-01   2.08546763E-01   1.05302152E-01   3.48673235E-04   1.28305203E-04   5.96031392E-05   4.38604123E-05   3.65075378E-05  
  47               7.41678784E-03   2.95720632E+03   7.01656002E-01   1.93569610E-01   1.03995561E-01   3.44348046E-04   1.36446066E-04   5.06737858E-05   4.33146980E-05   3.60543439E-05  
  48               8.44203765E-03   2.97712508E+03   7.01069082E-01   1.94108876E-01   1.04042498E-01   3.44503535E-04   1.36565656E-04   5.03932677E-05   4.33314327E-05   3.60702730E-05  
  49               9.58309744E-03   3.01621312E+03   7.15790769E-01   1.80575466E-01   1.02861897E-01   3.40595242E-04   1.43868759E-04   4.29310324E-05   4.28381762E-05   3.56607526E-05  
  50               1.08490346E-02   3.03720597E+03   7.16123836E-01   1.80268897E-01   1.02835056E-01   3.40506398E-04   1.44397339E-04   4.23145471E-05   4.28241105E-05   3.56510886E-05  
  51               1.22495235E-02   3.07529345E+03   7.29067912E-01   1.68369173E-01   1.01796995E-01   3.37069745E-04   1.50777239E-04   3.62858638E-05   4.23901723E-05   3.52909766E-05  
  52               1.37949262E-02   3.09651380E+03   7.29611622E-01   1.67868798E-01   1.01753249E-01   3.36924805E-04   1.51390473E-04   3.56823640E-05   4.23689542E-05   3.52754325E-05  
  53               1.54979258E-02   3.13409646E+03   7.41294801E-01   1.57127714E-01   1.00816271E-01   3.33822473E-04   1.57122431E-04   3.07092635E-05   4.19770937E-05   3.49503585E-05  
  54               1.73727301E-02   3.15705589E+03   7.42955851E-01   1.55599930E-01   1.00682905E-01   3.33380626E-04   1.58247583E-04   2.97782036E-05   4.19185785E-05   3.49037402E-05  
  55               1.94358223E-02   3.19486219E+03   7.53812958E-01   1.45617661E-01   9.98121185E-02   3.30496944E-04   1.63568707E-04   2.56051119E-05   4.15543076E-05   3.46016120E-05  
  56               2.17052904E-02   3.21970511E+03   7.56399088E-01   1.43239083E-01   9.96045324E-02   3.29809010E-04   1.65127460E-04   2.44847598E-05   4.14649378E-05   3.45292617E-05  
  57               2.42017355E-02   3.25749333E+03   7.66200029E-01   1.34227085E-01   9.88183622E-02   3.27204730E-04   1.69975368E-04   2.11102995E-05   4.11358787E-05   3.42564612E-05  
  58               2.69476238E-02   3.28346850E+03   7.69045187E-01   1.31609955E-01   9.85899497E-02   3.26447255E-04   1.71681564E-04   2.00548534E-05   4.10378120E-05   3.41768811E-05  
  59               2.99685454E-02   3.32109714E+03   7.77725116E-01   1.23627876E-01   9.78935851E-02   3.24139188E-04   1.76065548E-04   1.73839676E-05   4.07460707E-05   3.39352007E-05  
  60               3.32928984E-02   3.34834158E+03   7.80760899E-01   1.20835062E-01   9.76498270E-02   3.23329927E-04   1.77903276E-04   1.64095074E-05   4.06415844E-05   3.38502899E-05  
  61               3.69525444E-02   3.38622945E+03   7.88555672E-01   1.13666206E-01   9.70243691E-02   3.21254860E-04   1.81951229E-04   1.42720748E-05   4.03792927E-05   3.36331772E-05  
  62               4.09837618E-02   3.41563301E+03   7.92045359E-01   1.10455710E-01   9.67441656E-02   3.20323142E-04   1.84049140E-04   1.33102772E-05   4.02596840E-05   3.35356299E-05  
  63               4.54262002E-02   3.45446276E+03   7.99224655E-01   1.03852429E-01   9.61680364E-02   3.18408398E-04   1.87884502E-04   1.15686808E-05   4.00178961E-05   3.33356081E-05  
  64               5.03256779E-02   3.48684378E+03   8.03286391E-01   1.00115848E-01   9.58419582E-02   3.17321363E-04   1.90294954E-04   1.06088685E-05   3.98793285E-05   3.32221657E-05  
  65               5.57312736E-02   3.52745351E+03   8.10078965E-01   9.38682736E-02   9.52968948E-02   3.15503987E-04   1.94000728E-04   9.16794006E-06   3.96505102E-05   3.30329113E-05  
  66               6.16997091E-02   3.56352264E+03   8.14691725E-01   8.96253250E-02   9.49267035E-02   3.14264071E-04   1.96691470E-04   8.23707087E-06   3.94938047E-05   3.29041951E-05  
  67               6.82898095E-02   3.60645841E+03   8.21130462E-01   8.37036656E-02   9.44101478E-02   3.12530633E-04   2.00233107E-04   7.05888132E-06   3.92769358E-05   3.27248266E-05  
  68               7.55672248E-02   3.64587045E+03   8.25891161E-01   7.93252697E-02   9.40282215E-02   3.11238785E-04   2.02964510E-04   6.24085348E-06   3.91155288E-05   3.25920565E-05  
  69               8.35971045E-02   3.69064697E+03   8.31715945E-01   7.39687839E-02   9.35610411E-02   3.09649737E-04   2.06152079E-04   5.32906724E-06   3.89192197E-05   3.24297988E-05  
  70               9.24505649E-02   3.73280671E+03   8.36287368E-01   6.97649457E-02   9.31944053E-02   3.08384138E-04   2.08706530E-04   4.66205291E-06   3.87642908E-05   3.23023356E-05  
  71               1.02197038E-01   3.77976729E+03   8.41576354E-01   6.49015612E-02   9.27702866E-02   3.06901453E-04   2.11523977E-04   3.95949813E-06   3.85859635E-05   3.21550064E-05  
  72               1.12911685E-01   3.82611298E+03   8.46191887E-01   6.06575072E-02   9.24001914E-02   3.05573048E-04   2.13968516E-04   3.39577732E-06   3.84299261E-05   3.20263777E-05  
  73               1.24663649E-01   3.87720735E+03   8.51300451E-01   5.59602675E-02   9.19905997E-02   3.04059918E-04   2.16561173E-04   2.83220030E-06   3.82579920E-05   3.18841215E-05  
  74               1.37519615E-01   3.92940885E+03   8.56059304E-01   5.15846090E-02   9.16090586E-02   3.02576345E-04   2.18944475E-04   2.35806871E-06   3.80977914E-05   3.17515944E-05  
  75               1.51531029E-01   3.98587265E+03   8.61000113E-01   4.70416640E-02   9.12129390E-02   3.00929231E-04   2.21378875E-04   1.91898004E-06   3.79320224E-05   3.16140746E-05  
  76               1.66736007E-01   4.04408403E+03   8.65626830E-01   4.27874250E-02   9.08419897E-02   2.99214092E-04   2.23707526E-04   1.55380738E-06   3.77769029E-05   3.14853014E-05  
  77               1.83153417E-01   4.10568229E+03   8.70153326E-01   3.86251596E-02   9.04790479E-02   2.97278138E-04   2.26112624E-04   1.23918736E-06   3.76255198E-05   3.13593553E-05  
  78               2.00787213E-01   4.16912335E+03   8.74340701E-01   3.47743972E-02   9.01432406E-02   2.95090922E-04   2.28615899E-04   9.84127520E-07   3.74856407E-05   3.12428433E-05  
  79               2.19627125E-01   4.23559048E+03   8.78315207E-01   3.11188767E-02   8.98244127E-02   2.92427091E-04   2.31464047E-04   7.73373521E-07   3.73531937E-05   3.11322658E-05  
  80               2.39647082E-01   4.30515016E+03   8.82049807E-01   2.76832092E-02   8.95246840E-02   2.89033388E-04   2.34918571E-04   6.02223145E-07   3.72290611E-05   3.10283589E-05  
  81               2.60799929E-01   4.37943365E+03   8.85638801E-01   2.43802640E-02   8.92364144E-02   2.84409341E-04   2.39486087E-04   4.61467228E-07   3.71102348E-05   3.09284976E-05  
  82               2.83024976E-01   4.45769389E+03   8.88967921E-01   2.13146048E-02   8.89686688E-02   2.78045067E-04   2.45679319E-04   3.50720375E-07   3.70003612E-05   3.08358092E-05  
  83               3.06269666E-01   4.53953640E+03   8.91988966E-01   1.85299582E-02   8.87251984E-02   2.69294946E-04   2.54152137E-04   2.65911487E-07   3.69009126E-05   3.07515834E-05  
  84               3.30496833E-01   4.62458107E+03   8.94680960E-01   1.60450125E-02   8.85075703E-02   2.57497563E-04   2.65578588E-04   2.02168920E-07   3.68124543E-05   3.06763524E-05  
  85               3.55683839E-01   4.71304048E+03   8.97065153E-01   1.38396529E-02   8.83139713E-02   2.42011908E-04   2.80614009E-04   1.54314677E-07   3.67342035E-05   3.06094843E-05  
  86               3.81821265E-01   4.80464034E+03   8.99148380E-01   1.19073264E-02   8.81438022E-02   2.22576505E-04   2.99540808E-04   1.18478074E-07   3.66658366E-05   3.05507617E-05  
  87               4.08896990E-01   4.90047987E+03   9.00983146E-01   1.01995316E-02   8.79928138E-02   1.99021939E-04   3.22545027E-04   9.09811130E-08   3.66056313E-05   3.04987179E-05  
  88               4.36889585E-01   4.99969837E+03   9.02564522E-01   8.72147251E-03   8.78615336E-02   1.72280629E-04   3.48723454E-04   6.99465898E-08   3.65536911E-05   3.04535200E-05  
  89               4.65765860E-01   5.10190066E+03   9.03913638E-01   7.45479314E-03   8.77484813E-02   1.43825798E-04   3.76627827E-04   5.37134912E-08   3.65093416E-05   3.04146468E-05  
  90               4.95456805E-01   5.20618907E+03   9.05049595E-01   6.38342395E-03   8.76524248E-02   1.15701629E-04   4.04235947E-04   4.11717346E-08   3.64719968E-05   3.03816608E-05  
  91               5.25837780E-01   5.31207608E+03   9.06002452E-01   5.48099635E-03   8.75712171E-02   8.97922854E-05   4.29675016E-04   3.14520035E-08   3.64407391E-05   3.03538140E-05  
  92               5.56733326E-01   5.41812404E+03   9.06791320E-01   4.73095909E-03   8.75035432E-02   6.77014413E-05   4.51346191E-04   2.40219417E-08   3.64149573E-05   3.03306413E-05  
  93               5.87942911E-01   5.52366434E+03   9.07443782E-01   4.10803584E-03   8.74472326E-02   4.99809777E-05   4.68690394E-04   1.83761477E-08   3.63937435E-05   3.03113892E-05  
  94               6.19277813E-01   5.62765966E+03   9.07980223E-01   3.59305087E-03   8.74005894E-02   3.65015038E-05   4.81826314E-04   1.41367835E-08   3.63763717E-05   3.02954663E-05  
  95               6.50593795E-01   5.72992265E+03   9.08422988E-01   3.16450537E-03   8.73616613E-02   2.65597057E-05   4.91443970E-04   1.09534110E-08   3.63620496E-05   3.02821985E-05  
  96               6.81811863E-01   5.82976041E+03   9.08786501E-01   2.80826154E-03   8.73291391E-02   1.94038691E-05   4.98285830E-04   8.57547707E-09   3.63502236E-05   3.02711299E-05  
  97               7.12914806E-01   5.92751066E+03   9.09086844E-01   2.50851763E-03   8.73015599E-02   1.42704246E-05   5.03106969E-04   6.78076472E-09   3.63403157E-05   3.02617575E-05  
  98               7.43934760E-01   6.02287621E+03   9.09333564E-01   2.25579100E-03   8.72780364E-02   1.06027629E-05   5.06460226E-04   5.42292696E-09   3.63319557E-05   3.02537729E-05  
  99               7.74939469E-01   6.11636197E+03   9.09536793E-01   2.03996272E-03   8.72576259E-02   7.95674386E-06   5.08785891E-04   4.38058732E-09   3.63247779E-05   3.02468527E-05  
  100              8.06018258E-01   6.20787150E+03   9.09702441E-01   1.85506971E-03   8.72397689E-02   6.03839686E-06   5.10377212E-04   3.57572820E-09   3.63185506E-05   3.02408027E-05  
  101              8.37269741E-01   6.29809706E+03   9.09836994E-01   1.69435663E-03   8.72238265E-02   4.62549837E-06   5.11453952E-04   2.94328641E-09   3.63130350E-05   3.02354051E-05  
