# ATMO chemical composition profiles
# Chemical abundances given as mole fraction for the 8 most abundant species
# Model Level      Pressure [Ba]    Temperature [K]  H2               He               H                CO               H2O              N2               Mg               Fe              
  1                1.00000000E-05   6.40853859E+02   8.38839185E-01   1.60277872E-01   2.21751777E-13   5.14091761E-04   2.59666521E-04   6.07908375E-05   0.00000000E+00   0.00000000E+00  
  2                1.09927369E-04   7.19920834E+02   8.38832116E-01   1.60278954E-01   6.27486204E-12   5.11962386E-04   2.65301059E-04   6.07895260E-05   0.00000000E+00   0.00000000E+00  
  3                2.21151129E-04   7.54837275E+02   8.38836682E-01   1.60277444E-01   2.43479544E-11   5.16688591E-04   2.61594146E-04   6.07881632E-05   0.00000000E+00   0.00000000E+00  
  4                3.51883814E-04   7.74299837E+02   8.38834675E-01   1.60277421E-01   4.67457397E-11   5.16342058E-04   2.62362577E-04   6.07872576E-05   0.00000000E+00   0.00000000E+00  
  5                5.06408085E-04   7.95907395E+02   8.38836096E-01   1.60276499E-01   9.89424819E-11   5.18888114E-04   2.60296481E-04   6.07863067E-05   0.00000000E+00   0.00000000E+00  
  6                6.89800539E-04   8.09285758E+02   8.38835077E-01   1.60276702E-01   1.47271344E-10   5.18294969E-04   2.61108094E-04   6.07854952E-05   0.00000000E+00   0.00000000E+00  
  7                9.07686498E-04   8.27277512E+02   8.38837167E-01   1.60276120E-01   2.62402736E-10   5.20137092E-04   2.59600485E-04   6.07846871E-05   0.00000000E+00   5.56161901E-16  
  8                1.16683084E-03   8.38344421E+02   8.38836117E-01   1.60276345E-01   3.53874606E-10   5.19459614E-04   2.60420398E-04   6.07837980E-05   0.00000000E+00   2.34033744E-15  
  9                1.47500202E-03   8.54732845E+02   8.38837760E-01   1.60275886E-01   5.78597032E-10   5.20902833E-04   2.59235817E-04   6.07829866E-05   0.00000000E+00   2.34032941E-15  
  10               1.84155455E-03   8.64642290E+02   8.38836680E-01   1.60276127E-01   7.40040000E-10   5.20170440E-04   2.60070347E-04   6.07819624E-05   0.00000000E+00   8.10717449E-15  
  11               2.27736201E-03   8.80239970E+02   8.38838041E-01   1.60275747E-01   1.14876249E-09   5.21362594E-04   2.59088532E-04   6.07810902E-05   0.00000000E+00   8.10715048E-15  
  12               2.79541758E-03   8.89496789E+02   8.38836919E-01   1.60276003E-01   1.42084782E-09   5.20578590E-04   2.59949427E-04   6.07798813E-05   0.00000000E+00   2.46968537E-14  
  13               3.41089823E-03   9.04706747E+02   8.38838086E-01   1.60275677E-01   2.12885027E-09   5.21598081E-04   2.59105794E-04   6.07789020E-05   0.00000000E+00   2.46967025E-14  
  14               4.14186627E-03   9.13626990E+02   8.38836927E-01   1.60275946E-01   2.57606473E-09   5.20773131E-04   2.59991089E-04   6.07774596E-05   0.00000000E+00   9.37968474E-14  
  15               5.00951665E-03   9.28710776E+02   8.38837962E-01   1.60275658E-01   3.76346752E-09   5.21673386E-04   2.59240802E-04   6.07763310E-05   0.00000000E+00   9.37965582E-14  
  16               6.03958645E-03   9.37470474E+02   8.38836753E-01   1.60275941E-01   4.48299474E-09   5.20802966E-04   2.60159719E-04   6.07745978E-05   0.00000000E+00   9.37966120E-14  
  17               7.26251766E-03   9.52676366E+02   8.38837713E-01   1.60275675E-01   6.43990259E-09   5.21632442E-04   2.59460749E-04   6.07732775E-05   6.07844255E-16   4.54286337E-13  
  18               8.71444302E-03   9.61499926E+02   8.38836478E-01   1.60275966E-01   7.60313578E-09   5.20736379E-04   2.60397664E-04   6.07711938E-05   2.08330901E-15   4.54286451E-13  
  19               1.04378233E-02   9.76996554E+02   8.38837391E-01   1.60275714E-01   1.07930304E-08   5.21520687E-04   2.59728290E-04   6.07696348E-05   4.83657499E-15   4.54284733E-13  
  20               1.24828962E-02   9.86042155E+02   8.38836143E-01   1.60276009E-01   1.26832426E-08   5.20612871E-04   2.60671761E-04   6.07671338E-05   4.83635037E-15   1.48853287E-12  
  21               1.49087717E-02   1.00209510E+03   8.38837071E-01   1.60275756E-01   1.79150474E-08   5.21401560E-04   2.59986380E-04   6.07653038E-05   8.11288915E-15   1.48852618E-12  
  22               1.77852461E-02   1.01160502E+03   8.38835867E-01   1.60276039E-01   2.10775974E-08   5.20526469E-04   2.60894498E-04   6.07623306E-05   2.65904493E-14   1.48852476E-12  
  23               2.11938827E-02   1.02835911E+03   8.38836821E-01   1.60275781E-01   2.97019119E-08   5.21331466E-04   2.60182789E-04   6.07601895E-05   5.01176847E-14   6.86172338E-12  
  24               2.52306979E-02   1.03854037E+03   8.38835709E-01   1.60276041E-01   3.51298033E-08   5.20528091E-04   2.61017955E-04   6.07566923E-05   9.47572734E-14   6.86170971E-12  
  25               3.00078438E-02   1.05641312E+03   8.38836771E-01   1.60275755E-01   4.98133314E-08   5.21414985E-04   2.60217357E-04   6.07542547E-05   1.78127113E-13   6.86166232E-12  
  26               3.56570220E-02   1.06764810E+03   8.38835851E-01   1.60275967E-01   5.96619827E-08   5.20762258E-04   2.60902511E-04   6.07502324E-05   3.52037387E-13   2.48705397E-11  
  27               4.23299433E-02   1.08686430E+03   8.38837008E-01   1.60275654E-01   8.53190243E-08   5.21727151E-04   2.60017156E-04   6.07475045E-05   6.60819692E-13   2.48703210E-11  
  28               5.02035494E-02   1.09942005E+03   8.38836326E-01   1.60275805E-01   1.03814214E-07   5.21262902E-04   2.60514532E-04   6.07429670E-05   1.38078013E-12   2.48701811E-11  
  29               5.94803153E-02   1.12045636E+03   8.38837597E-01   1.60275458E-01   1.50732769E-07   5.22328792E-04   2.59522551E-04   6.07400357E-05   2.59963920E-12   7.06656041E-11  
  30               7.03980628E-02   1.13494894E+03   8.38837240E-01   1.60275521E-01   1.88071702E-07   5.22128045E-04   2.59758169E-04   6.07351184E-05   5.93603982E-12   7.06649975E-11  
  31               8.32365230E-02   1.15822956E+03   8.38838552E-01   1.60275150E-01   2.78144685E-07   5.23255460E-04   2.58698838E-04   6.07320840E-05   1.12469812E-11   2.17782592E-10  
  32               9.83205645E-02   1.17510468E+03   8.38838474E-01   1.60275130E-01   3.56960050E-07   5.23300695E-04   2.58689160E-04   6.07269110E-05   2.83544788E-11   2.17779865E-10  
  33               1.16013495E-01   1.20134019E+03   8.38839723E-01   1.60274743E-01   5.41264816E-07   5.24450295E-04   2.57603454E-04   6.07239591E-05   5.42959727E-11   7.45813674E-10  
  34               1.36730085E-01   1.22147131E+03   8.38839839E-01   1.60274638E-01   7.20779572E-07   5.24725901E-04   2.57364177E-04   6.07188211E-05   1.55755573E-10   7.45800227E-10  
  35               1.60914797E-01   1.25143440E+03   8.38840795E-01   1.60274251E-01   1.12533270E-06   5.25818337E-04   2.56343236E-04   6.07161869E-05   3.02999047E-10   2.88089270E-09  
  36               1.89049984E-01   1.27560452E+03   8.38840762E-01   1.60274061E-01   1.56015153E-06   5.26234177E-04   2.55967386E-04   6.07113975E-05   9.98830236E-10   2.88081869E-09  
  37               2.21624733E-01   1.31003852E+03   8.38840897E-01   1.60273673E-01   2.50911084E-06   5.27178669E-04   2.55212229E-04   6.07093169E-05   1.97631180E-09   1.25309732E-08  
  38               2.59157317E-01   1.33895876E+03   8.38839381E-01   1.60273258E-01   3.61755343E-06   5.27620375E-04   2.54858829E-04   6.07051196E-05   7.43562938E-09   1.25305082E-08  
  39               3.02053793E-01   1.37828108E+03   8.38836769E-01   1.60272810E-01   5.95108616E-06   5.28354225E-04   2.55569181E-04   6.07037072E-05   1.47766607E-08   5.97288839E-08  
  40               3.50830442E-01   1.41236691E+03   8.38831451E-01   1.60271878E-01   8.85598834E-06   5.28726346E-04   2.55289013E-04   6.07001727E-05   6.16355331E-08   5.97256732E-08  
  41               4.05819088E-01   1.45709406E+03   8.38809151E-01   1.60268458E-01   1.48067173E-05   5.29231398E-04   2.58128046E-04   6.06984204E-05   2.03541901E-07   3.06030072E-07  
  42               4.65240076E-01   1.49693287E+03   8.38782758E-01   1.60267269E-01   2.26539546E-05   5.29583336E-04   2.77025653E-04   6.06965373E-05   3.58625234E-07   3.06008069E-07  
  43               5.28166105E-01   1.54998998E+03   8.38758957E-01   1.60264746E-01   3.94657681E-05   5.29906199E-04   2.79892152E-04   6.06973460E-05   2.46639242E-06   1.84719752E-06  
  44               5.92174627E-01   1.59915983E+03   8.38703034E-01   1.60258843E-01   6.37731148E-05   5.30100722E-04   2.93432144E-04   6.06963676E-05   1.13998098E-05   1.84697178E-06  
  45               6.53251427E-01   1.64219437E+03   8.38610083E-01   1.60250161E-01   9.46619095E-05   5.30216552E-04   3.26276071E-04   6.06941355E-05   3.28377641E-05   6.25132496E-06  
  46               7.07601795E-01   1.67797707E+03   8.38488336E-01   1.60239829E-01   1.29344600E-04   5.30275098E-04   3.77301908E-04   6.06911855E-05   6.61747202E-05   6.25046586E-06  
  47               7.55842549E-01   1.70767183E+03   8.38454863E-01   1.60236894E-01   1.65792284E-04   5.30301353E-04   3.77189678E-04   6.06900216E-05   6.61364706E-05   1.96165813E-05  
  48               7.99339960E-01   1.73325932E+03   8.38419882E-01   1.60233830E-01   2.03868175E-04   5.30317014E-04   3.77097057E-04   6.06887126E-05   6.61023234E-05   1.96150645E-05  
  49               8.48998502E-01   1.76076385E+03   8.38344905E-01   1.60224150E-01   2.52676168E-04   5.30308037E-04   3.76987531E-04   6.06846989E-05   6.60616265E-05   1.96125880E-05  
  50               8.91189075E-01   1.78324208E+03   8.38301782E-01   1.60220383E-01   2.99592415E-04   5.30311753E-04   3.76911009E-04   6.06829251E-05   6.60293335E-05   5.54962035E-05  
  51               9.25034117E-01   1.80037072E+03   8.38264679E-01   1.60217141E-01   3.39957082E-04   5.30311744E-04   3.76854079E-04   6.06813249E-05   6.60038121E-05   5.54926166E-05  
  52               9.64129547E-01   1.81976288E+03   8.38217624E-01   1.60213030E-01   3.91143585E-04   5.30309148E-04   3.76790734E-04   6.06793368E-05   6.59743807E-05   5.54883347E-05  
  53               1.00904712E+00   1.84089936E+03   8.38159902E-01   1.60207988E-01   4.53925038E-04   5.30302901E-04   3.76723928E-04   6.06768258E-05   6.59410859E-05   5.54833458E-05  
  54               1.06034466E+00   1.86435806E+03   8.38086890E-01   1.60201612E-01   5.33324389E-04   5.30292091E-04   3.76653019E-04   6.06737127E-05   6.59031954E-05   5.54774274E-05  
  55               1.11851286E+00   1.88953102E+03   8.37997256E-01   1.60193785E-01   6.30773589E-04   5.30275632E-04   3.76583463E-04   6.06698495E-05   6.58608481E-05   5.54705582E-05  
  56               1.18370756E+00   1.91673004E+03   8.37885450E-01   1.60184026E-01   7.52300529E-04   5.30252219E-04   3.76536941E-04   6.06651248E-05   6.58136213E-05   5.54625217E-05  
  57               1.25663799E+00   1.94543176E+03   8.37749228E-01   1.60172137E-01   9.00491169E-04   5.30220740E-04   3.76428767E-04   6.06593646E-05   6.57615197E-05   5.54532572E-05  
  58               1.33912440E+00   1.97648084E+03   8.37577722E-01   1.60157170E-01   1.08706402E-03   5.30178444E-04   3.76306385E-04   6.06522408E-05   6.57029543E-05   5.54422763E-05  
  59               1.43210563E+00   2.00936171E+03   8.37365979E-01   1.60138694E-01   1.31740654E-03   5.30123561E-04   3.76169885E-04   6.06434980E-05   6.56377973E-05   5.54294273E-05  
  60               1.53660840E+00   2.04440089E+03   8.37101605E-01   1.60115628E-01   1.60500173E-03   5.30052690E-04   3.76014659E-04   6.06327537E-05   6.55651039E-05   5.54142472E-05  
  61               1.65375420E+00   2.08111327E+03   8.36777202E-01   1.60087326E-01   1.95789820E-03   5.29963486E-04   3.75839729E-04   6.06196787E-05   6.54846501E-05   5.53965063E-05  
  62               1.78478890E+00   2.11970123E+03   8.36377196E-01   1.60052431E-01   2.39303672E-03   5.29851576E-04   3.75639678E-04   6.06037631E-05   6.53954542E-05   5.53756532E-05  
  63               1.93109633E+00   2.15975584E+03   8.35891309E-01   1.60010047E-01   2.92159726E-03   5.29713883E-04   3.75412170E-04   6.05845892E-05   6.52971451E-05   5.53513629E-05  
  64               2.09421991E+00   2.20136705E+03   8.35301347E-01   1.59958587E-01   3.56337101E-03   5.29545230E-04   3.75151029E-04   6.05615358E-05   6.51887217E-05   5.53230135E-05  
  65               2.27586922E+00   2.24421290E+03   8.34594316E-01   1.59896920E-01   4.33249310E-03   5.29341809E-04   3.74852564E-04   6.05340970E-05   6.50696684E-05   5.52901891E-05  
  66               2.47795471E+00   2.28820863E+03   8.33750879E-01   1.59823154E-01   5.24784329E-03   5.29097374E-04   3.74510113E-04   6.05014998E-05   6.49389946E-05   5.52521831E-05  
  67               2.70234569E+00   2.33313003E+03   8.32751764E-01   1.59736497E-01   6.32520386E-03   5.28809962E-04   3.80746527E-04   6.04636993E-05   6.47963545E-05   5.52086972E-05  
  68               2.95138115E+00   2.37879919E+03   8.31598344E-01   1.59635910E-01   7.57982596E-03   5.28474821E-04   3.80371445E-04   6.04195887E-05   6.46411838E-05   5.51593321E-05  
  69               3.22789166E+00   2.42513057E+03   8.30266830E-01   1.59519797E-01   9.02819000E-03   5.28087257E-04   3.79922090E-04   6.03687520E-05   6.44725703E-05   5.51034798E-05  
  70               3.53472231E+00   2.47195048E+03   8.28746695E-01   1.59387242E-01   1.06817414E-02   5.27644185E-04   3.79397082E-04   6.03107133E-05   6.42900407E-05   5.50407890E-05  
  71               3.87508667E+00   2.51911942E+03   8.27029444E-01   1.59237503E-01   1.25497154E-02   5.27143097E-04   3.78795098E-04   6.02450351E-05   6.40931600E-05   5.49709642E-05  
  72               4.25255886E+00   2.56651609E+03   8.25109351E-01   1.59070083E-01   1.46383335E-02   5.26582269E-04   3.78115175E-04   6.01713323E-05   6.38815820E-05   5.48937917E-05  
  73               4.67103798E+00   2.61405529E+03   8.22982382E-01   1.58884632E-01   1.69519799E-02   5.25960452E-04   3.77356433E-04   6.00892258E-05   6.36550149E-05   5.48091050E-05  
  74               5.13476791E+00   2.66156536E+03   8.20653940E-01   1.58681620E-01   1.94847701E-02   5.25279095E-04   3.76521083E-04   5.99985725E-05   6.34135913E-05   5.47170394E-05  
  75               5.64832328E+00   2.70904032E+03   8.18122996E-01   1.58460958E-01   2.22378191E-02   5.24537788E-04   3.75608744E-04   5.98989312E-05   6.31571179E-05   5.46175119E-05  
  76               6.21660477E+00   2.75634033E+03   8.15401330E-01   1.58223674E-01   2.51983070E-02   5.23739786E-04   3.74623711E-04   5.97901518E-05   6.28859927E-05   5.45108520E-05  
  77               6.84487392E+00   2.80339753E+03   8.12499764E-01   1.57970712E-01   2.83544561E-02   5.22888051E-04   3.73570006E-04   5.96718891E-05   6.26005501E-05   5.43973515E-05  
  78               7.53877842E+00   2.85018169E+03   8.09428900E-01   1.57702996E-01   3.16947255E-02   5.21985467E-04   3.72451725E-04   5.95435662E-05   6.23011123E-05   5.42772911E-05  
  79               8.30439968E+00   2.89673380E+03   8.06194139E-01   1.57420998E-01   3.52132359E-02   5.21033391E-04   3.71271160E-04   5.94041205E-05   6.19877840E-05   5.41507832E-05  
  80               9.14822781E+00   2.94294926E+03   8.02817011E-01   1.57126593E-01   3.88865602E-02   5.20037799E-04   3.70036990E-04   5.92526711E-05   6.16613686E-05   5.40184548E-05  
  81               1.00771955E+01   2.98891404E+03   7.99300282E-01   1.56820024E-01   4.27116826E-02   5.18999236E-04   3.68750878E-04   5.90871648E-05   6.13218957E-05   5.38803347E-05  
  82               1.10986918E+01   3.03457034E+03   7.95662979E-01   1.56502949E-01   4.66678979E-02   5.17922898E-04   3.67420922E-04   5.89055146E-05   6.09700883E-05   5.37369694E-05  
  83               1.22201518E+01   3.07993118E+03   7.91915983E-01   1.56176316E-01   5.07433624E-02   5.16811612E-04   3.66052106E-04   5.87045657E-05   6.06064302E-05   5.35886589E-05  
  84               1.34494544E+01   3.12495727E+03   7.88077272E-01   1.55841693E-01   5.49185134E-02   5.15670217E-04   3.64652218E-04   5.84805201E-05   6.02316982E-05   5.34359278E-05  
  85               1.47952144E+01   3.16973287E+03   7.84148442E-01   1.55499217E-01   5.91916033E-02   5.14498787E-04   3.63222397E-04   5.82276688E-05   5.98459917E-05   5.32787798E-05  
  86               1.62668839E+01   3.21425155E+03   7.80143202E-01   1.55150084E-01   6.35477121E-02   5.13300830E-04   3.61768404E-04   5.79393874E-05   5.94498538E-05   5.31175941E-05  
  87               1.78748797E+01   3.25856879E+03   7.76066242E-01   1.54794701E-01   6.79817263E-02   5.12077203E-04   3.60292034E-04   5.76068326E-05   5.90434419E-05   5.29524599E-05  
  88               1.96306799E+01   3.30270545E+03   7.71927085E-01   1.54433898E-01   7.24832759E-02   5.10830086E-04   3.58796645E-04   5.72193043E-05   5.86270654E-05   5.27836111E-05  
  89               2.15469279E+01   3.34674526E+03   7.67724692E-01   1.54067583E-01   7.70534752E-02   5.09558546E-04   3.57280667E-04   5.67628355E-05   5.82006132E-05   5.26109457E-05  
  90               2.36375723E+01   3.39070829E+03   7.63467708E-01   1.53696507E-01   8.16829048E-02   5.08264362E-04   3.55745974E-04   5.62210989E-05   5.77643092E-05   5.24346567E-05  
  91               2.59180363E+01   3.43467065E+03   7.59154926E-01   1.53320564E-01   8.63728603E-02   5.06946385E-04   3.54189584E-04   5.55734460E-05   5.73179897E-05   5.22546231E-05  
  92               2.84053604E+01   3.47866428E+03   7.54792188E-01   1.52940260E-01   9.11169638E-02   5.05605404E-04   3.52610817E-04   5.47958786E-05   5.68617272E-05   5.20709358E-05  
  93               3.11183335E+01   3.52277394E+03   7.50375305E-01   1.52555228E-01   9.59197467E-02   5.04239216E-04   3.51003809E-04   5.38588202E-05   5.63952249E-05   5.18833681E-05  
  94               3.40775978E+01   3.56702867E+03   7.45909561E-01   1.52165924E-01   1.00775434E-01   5.02848245E-04   3.49366085E-04   5.27292315E-05   5.59185217E-05   5.16919816E-05  
  95               3.73059811E+01   3.61149929E+03   7.41392141E-01   1.51772099E-01   1.05687056E-01   5.01430464E-04   3.47690762E-04   5.13684192E-05   5.54313602E-05   5.14965802E-05  
  96               4.08287320E+01   3.65621977E+03   7.36826927E-01   1.51374086E-01   1.10650357E-01   4.99985659E-04   3.45973319E-04   4.97351800E-05   5.49337043E-05   5.12971659E-05  
  97               4.46737854E+01   3.70126268E+03   7.32210042E-01   1.50971544E-01   1.15669516E-01   4.98511251E-04   3.44204938E-04   4.77847415E-05   5.44252484E-05   5.10934948E-05  
  98               4.88720337E+01   3.74666809E+03   7.27543746E-01   1.50564663E-01   1.20742044E-01   4.97006296E-04   3.42379158E-04   4.54749207E-05   5.39058930E-05   5.08855037E-05  
  99               5.34576844E+01   3.79250165E+03   7.22825019E-01   1.50153177E-01   1.25871198E-01   4.95468165E-04   3.40486504E-04   4.27684009E-05   5.33753637E-05   5.06729602E-05  
  100              5.84686380E+01   3.83880236E+03   7.18056216E-01   1.49737286E-01   1.31054402E-01   4.93895584E-04   3.38519955E-04   3.96435336E-05   5.28335635E-05   5.04557876E-05  
  101              6.39468270E+01   3.88563429E+03   7.13234421E-01   1.49316734E-01   1.36294833E-01   4.92285480E-04   3.36469754E-04   3.61009276E-05   5.22802366E-05   5.02337423E-05  
