# ATMO chemical composition profiles
# Chemical abundances given as mole fraction for the 8 most abundant species
# Model Level      Pressure [Ba]    Temperature [K]  H2               He               CH4              H2O              NH3              CO               H2S              N2              
  1                1.00000000E-05   4.04127290E+01   8.38831792E-01   1.60608943E-01   5.31825822E-04   3.00774076E-17   1.51942890E-07   1.89952434E-104  2.30032353E-05   1.68257583E-39  
  2                9.74918755E-05   5.07719951E+01   8.38831792E-01   1.60608943E-01   5.31825822E-04   3.11352416E-17   1.51942890E-07   2.06880640E-106  2.30032353E-05   1.77026301E-41  
  3                2.00139653E-04   5.67528175E+01   8.38831792E-01   1.60608943E-01   5.31825822E-04   3.06941088E-17   1.51942890E-07   4.83941879E-107  2.30032353E-05   4.20057132E-42  
  4                3.20578366E-04   6.06717363E+01   8.38831792E-01   1.60608943E-01   5.31825822E-04   3.04176051E-17   1.51942890E-07   1.86922275E-107  2.30032353E-05   1.63721692E-42  
  5                4.61857987E-04   6.46122040E+01   8.38831792E-01   1.60608943E-01   5.31825822E-04   3.14619076E-17   1.51942890E-07   9.31477987E-108  2.30032353E-05   7.88783341E-43  
  6                6.27556091E-04   6.75407072E+01   8.38831792E-01   1.60608943E-01   5.31825822E-04   3.13732334E-17   1.51942890E-07   5.03105010E-108  2.30032353E-05   4.27237679E-43  
  7                8.21812785E-04   7.13023343E+01   8.38831792E-01   1.60608943E-01   5.31825822E-04   3.12331558E-17   1.51942890E-07   2.92061655E-108  2.30032353E-05   2.49131624E-43  
  8                1.04859131E-03   7.38522492E+01   8.38831792E-01   1.60608943E-01   5.31825822E-04   3.10678010E-17   1.51942890E-07   1.78444213E-108  2.30032353E-05   1.53024911E-43  
  9                1.31068910E-03   7.77444519E+01   8.38831792E-01   1.60608943E-01   5.31825822E-04   3.08990020E-17   1.51942890E-07   1.13592468E-108  2.30032353E-05   9.79434206E-44  
  10               1.61167077E-03   8.03725466E+01   8.38831792E-01   1.60608943E-01   5.31825822E-04   3.07431507E-17   1.51942890E-07   7.47481035E-109  2.30032353E-05   6.47771727E-44  
  11               1.95596824E-03   8.47446972E+01   8.38831792E-01   1.60608943E-01   5.31825822E-04   3.06107403E-17   1.51942890E-07   5.05306282E-109  2.30032353E-05   4.39795771E-44  
  12               2.34933887E-03   8.79327134E+01   8.38831792E-01   1.60608943E-01   5.31825822E-04   3.05065340E-17   1.51942890E-07   3.49064756E-109  2.30032353E-05   3.04847978E-44  
  13               2.79924670E-03   9.37466269E+01   8.38831792E-01   1.60608943E-01   5.31825822E-04   3.04306981E-17   1.51942890E-07   2.45264124E-109  2.30032353E-05   2.14729788E-44  
  14               3.31435036E-03   9.79977859E+01   8.38831428E-01   1.60608873E-01   5.31825592E-04   3.00693662E-17   1.52439822E-07   1.72874885E-109  2.30032253E-05   1.54175052E-44  
  15               3.90242584E-03   1.04087358E+02   8.38830133E-01   1.60608625E-01   5.31824771E-04   2.74117030E-16   5.86711558E-07   1.20753993E-104  2.30031898E-05   8.02677181E-42  
  16               4.55672550E-03   1.08332303E+02   8.38822768E-01   1.60607215E-01   5.31820101E-04   2.28891556E-15   2.13871631E-06   5.40895405E-100  2.30029878E-05   3.27752547E-39  
  17               5.20994037E-03   1.14004859E+02   8.38795011E-01   1.60601901E-01   5.31802503E-04   7.65799761E-14   1.09445588E-05   7.27738892E-94   2.30022266E-05   6.34597824E-36  
  18               5.67512098E-03   1.16086150E+02   8.38795011E-01   1.60601901E-01   5.31802503E-04   7.69397890E-14   4.39987705E-05   2.55749948E-92   2.30022266E-05   4.15046563E-34  
  19               6.03724024E-03   1.19461746E+02   8.38729733E-01   1.60589402E-01   5.31761116E-04   4.12711904E-13   4.40678398E-05   3.88883683E-89   2.30004365E-05   4.18933708E-33  
  20               6.33122954E-03   1.20207505E+02   8.38729733E-01   1.60589402E-01   5.31761116E-04   4.13525485E-13   1.21819253E-04   1.21464426E-88   2.30004365E-05   4.89518636E-32  
  21               6.55956766E-03   1.22692706E+02   8.38729733E-01   1.60589402E-01   5.31761116E-04   1.28611521E-12   1.21819253E-04   1.91921160E-86   2.30004365E-05   2.46567259E-31  
  22               6.82711731E-03   1.23166462E+02   8.38729733E-01   1.60589402E-01   5.31761116E-04   1.28976610E-12   1.21819253E-04   3.73995977E-86   2.30004365E-05   3.11673194E-31  
  23               7.14050559E-03   1.26112016E+02   8.38729733E-01   1.60589402E-01   5.31761116E-04   5.20545302E-12   1.21819253E-04   1.24719686E-83   2.30004365E-05   1.91061204E-30  
  24               7.50745404E-03   1.27015500E+02   8.38729733E-01   1.60589402E-01   5.31761116E-04   5.22629373E-12   1.21819253E-04   4.32764842E-83   2.30004365E-05   3.04614407E-30  
  25               7.93696182E-03   1.30520263E+02   8.38729733E-01   1.60589402E-01   5.31761116E-04   2.75785614E-11   1.21819253E-04   3.11461128E-80   2.30004365E-05   2.28609640E-29  
  26               8.43952653E-03   1.31938861E+02   8.38729733E-01   1.60589402E-01   5.31761116E-04   2.77290027E-11   1.21819253E-04   1.96634765E-79   2.30004365E-05   4.63684991E-29  
  27               9.02736402E-03   1.36111496E+02   8.38729733E-01   1.60589402E-01   5.31761116E-04   1.89081750E-10   1.21819253E-04   2.96188228E-76   2.30004365E-05   4.22797059E-28  
  28               9.71468298E-03   1.38130463E+02   8.38729732E-01   1.60589402E-01   5.31761115E-04   1.90404632E-10   1.21819253E-04   3.32828291E-75   2.30004365E-05   1.08131828E-27  
  29               1.05179880E-02   1.43062156E+02   8.38729732E-01   1.60589402E-01   5.31761115E-04   1.60923668E-09   1.21819253E-04   9.23230545E-72   2.30004365E-05   1.15644126E-26  
  30               1.14564240E-02   1.45755293E+02   8.38729720E-01   1.60589399E-01   5.31761108E-04   1.62278028E-09   1.21819251E-04   1.71371327E-70   2.30004361E-05   3.61849691E-26  
  31               1.25522197E-02   1.51531904E+02   8.38729720E-01   1.60589399E-01   5.31761108E-04   1.61490104E-08   1.21819251E-04   7.36994133E-67   2.30004361E-05   4.32145123E-25  
  32               1.38311280E-02   1.54963666E+02   8.38729692E-01   1.60589394E-01   5.31761090E-04   1.61795976E-08   1.21819247E-04   2.00872922E-65   2.30004354E-05   1.58245450E-24  
  33               1.53237819E-02   1.59886931E+02   8.38729524E-01   1.60589362E-01   5.31760983E-04   4.91747253E-08   1.21819222E-04   5.80912953E-63   2.30004308E-05   9.85165521E-24  
  34               1.70655965E-02   1.63146635E+02   8.38729524E-01   1.60589362E-01   5.31760983E-04   2.49695961E-07   1.21819222E-04   4.76271387E-61   2.30004308E-05   2.86272330E-23  
  35               1.90976461E-02   1.68004856E+02   8.38728752E-01   1.60589214E-01   5.31760494E-04   2.50551087E-07   1.21819110E-04   2.68964560E-59   2.30004096E-05   1.41469343E-22  
  36               2.14672179E-02   1.71558440E+02   8.38728752E-01   1.60589214E-01   5.31760494E-04   1.16931845E-06   1.21819110E-04   1.92332234E-57   2.30004096E-05   3.99081290E-22  
  37               2.42289635E-02   1.76643216E+02   8.38724457E-01   1.60588392E-01   5.31757771E-04   1.17404482E-06   1.21818486E-04   8.59028804E-56   2.30002918E-05   1.77432998E-21  
  38               2.74454164E-02   1.80830396E+02   8.38724457E-01   1.60588392E-01   5.31757771E-04   6.29078201E-06   1.21818486E-04   8.43693769E-54   2.30002918E-05   5.37906505E-21  
  39               3.11875929E-02   1.87060981E+02   8.38712953E-01   1.60586189E-01   5.31750478E-04   6.30314535E-06   1.21816816E-04   5.56706383E-52   2.29999764E-05   2.82554986E-20  
  40               3.55345250E-02   1.94701076E+02   8.38673491E-01   1.60578633E-01   5.31725458E-04   2.00452176E-05   1.21811084E-04   2.16875542E-49   2.29988942E-05   1.94263035E-19  
  41               4.05561155E-02   2.03345332E+02   8.38566319E-01   1.60558113E-01   5.31657510E-04   6.71369110E-05   1.21795518E-04   1.10268723E-46   2.29959552E-05   1.47085454E-18  
  42               4.62836669E-02   2.11733963E+02   8.38073968E-01   1.60463844E-01   5.31345356E-04   1.94721518E-04   1.21724008E-04   2.77712842E-44   2.29824535E-05   8.78901379E-18  
  43               5.25261351E-02   2.20613925E+02   8.38073968E-01   1.60463844E-01   5.31345356E-04   7.81855405E-04   1.21724008E-04   8.82470689E-42   2.29824535E-05   5.10894415E-17  
  44               5.91804446E-02   2.28759440E+02   8.38073968E-01   1.60463844E-01   5.31345356E-04   7.81855405E-04   1.21724008E-04   3.55099505E-40   2.29824535E-05   2.23898973E-16  
  45               6.68879772E-02   2.37912593E+02   8.38073968E-01   1.60463844E-01   5.31345356E-04   7.81855405E-04   1.21724008E-04   1.68965952E-38   2.29824535E-05   1.05677354E-15  
  46               7.58119631E-02   2.47099118E+02   8.38073968E-01   1.60463844E-01   5.31345356E-04   7.81855405E-04   1.21724008E-04   6.02764591E-37   2.29824535E-05   4.40308382E-15  
  47               8.61411573E-02   2.57281322E+02   8.38073968E-01   1.60463844E-01   5.31345356E-04   7.81855405E-04   1.21724008E-04   2.37544804E-35   2.29824535E-05   1.92024410E-14  
  48               9.80924841E-02   2.67549942E+02   8.38073968E-01   1.60463844E-01   5.31345356E-04   7.81855405E-04   1.21724008E-04   7.18225690E-34   2.29824535E-05   7.46947120E-14  
  49               1.11913791E-01   2.78802176E+02   8.38073968E-01   1.60463844E-01   5.31345356E-04   7.81855405E-04   1.21724007E-04   2.27551155E-32   2.29824535E-05   2.97419469E-13  
  50               1.27888082E-01   2.90187416E+02   8.38073968E-01   1.60463844E-01   5.31345356E-04   7.81855405E-04   1.21724006E-04   5.65038037E-31   2.29824535E-05   1.06635126E-12  
  51               1.46347594E-01   3.02551755E+02   8.38073968E-01   1.60463844E-01   5.31345356E-04   7.81855405E-04   1.21724000E-04   1.41619316E-29   2.29824535E-05   3.85172828E-12  
  52               1.67677952E-01   3.15106172E+02   8.38073968E-01   1.60463844E-01   5.31345356E-04   7.81855368E-04   1.21723982E-04   2.84887419E-28   2.29824535E-05   1.26573627E-11  
  53               1.92323928E-01   3.28662874E+02   8.38073967E-01   1.60463844E-01   5.31345355E-04   7.81855264E-04   1.21723925E-04   5.66163896E-27   2.29824535E-05   4.15172339E-11  
  54               2.20793159E-01   3.42467984E+02   8.38073968E-01   1.60463844E-01   5.31345355E-04   7.81854369E-04   1.21723758E-04   9.22701180E-26   2.29824535E-05   1.25047744E-10  
  55               2.53664407E-01   3.57308677E+02   8.38073964E-01   1.60463843E-01   5.31345353E-04   7.81854364E-04   1.21723260E-04   1.46459109E-24   2.29824534E-05   3.73620116E-10  
  56               2.91612293E-01   3.72438199E+02   8.38073970E-01   1.60463843E-01   5.31345353E-04   7.81849485E-04   1.21721943E-04   1.93671332E-23   2.29824534E-05   1.03191123E-09  
  57               3.35407246E-01   3.88645894E+02   8.38073592E-01   1.60463770E-01   5.31345110E-04   7.81849127E-04   1.21718320E-04   2.47257072E-22   2.29824429E-05   2.81592941E-09  
  58               3.85928093E-01   4.05182966E+02   8.38074014E-01   1.60463805E-01   5.31345226E-04   7.81395451E-04   1.21709683E-04   2.66786622E-21   2.29824479E-05   7.14753287E-09  
  59               4.44170747E-01   4.22857095E+02   8.38074028E-01   1.60463802E-01   5.31345214E-04   7.81395490E-04   1.21688194E-04   2.77052314E-20   2.29824474E-05   1.78906175E-08  
  60               5.11276690E-01   4.40889189E+02   8.38074051E-01   1.60463792E-01   5.31345184E-04   7.81396968E-04   1.21640267E-04   2.46298312E-19   2.29824461E-05   4.18508384E-08  
  61               5.88581823E-01   4.60125510E+02   8.38073687E-01   1.60463699E-01   5.31344874E-04   7.81433948E-04   1.21531137E-04   2.10326918E-18   2.29824326E-05   9.63801275E-08  
  62               6.77598000E-01   4.79751050E+02   8.38071936E-01   1.60463663E-01   5.31344755E-04   7.83333090E-04   1.21307607E-04   1.55961498E-17   2.29824275E-05   2.08131399E-07  
  63               7.80105327E-01   5.00665527E+02   8.38069549E-01   1.60463072E-01   5.31342798E-04   7.83330206E-04   1.20841051E-04   1.10922576E-16   2.29823429E-05   4.41185391E-07  
  64               8.98327684E-01   5.22052080E+02   8.38073083E-01   1.60463190E-01   5.31343189E-04   7.80114536E-04   1.19967531E-04   6.91079051E-16   2.29823598E-05   8.77990271E-07  
  65               1.03505253E+00   5.44919844E+02   8.38074177E-01   1.60462925E-01   5.31342310E-04   7.80113256E-04   1.18314634E-04   4.19158924E-15   2.29823218E-05   1.70433782E-06  
  66               1.19375435E+00   5.68446817E+02   8.38076009E-01   1.60462480E-01   5.31340840E-04   7.80111117E-04   1.15546202E-04   2.27758336E-14   2.29822582E-05   3.08838543E-06  
  67               1.37907800E+00   5.93780293E+02   8.38079031E-01   1.60461748E-01   5.31338414E-04   7.80107606E-04   1.10980635E-04   1.21341230E-13   2.29821532E-05   5.37089120E-06  
  68               1.59707869E+00   6.20156962E+02   8.38083327E-01   1.60460706E-01   5.31334964E-04   7.80102655E-04   1.04489631E-04   5.92194216E-13   2.29820041E-05   8.61599814E-06  
  69               1.85572413E+00   6.48870496E+02   8.38089160E-01   1.60459292E-01   5.31330278E-04   7.80096036E-04   9.56753279E-05   2.86975362E-12   2.29818015E-05   1.30226133E-05  
  70               2.16525682E+00   6.79188441E+02   8.38095899E-01   1.60457658E-01   5.31324855E-04   7.80088640E-04   8.54902489E-05   1.29779060E-11   2.29815674E-05   1.81145329E-05  
  71               2.53733517E+00   7.12363572E+02   8.38103297E-01   1.60455860E-01   5.31318857E-04   7.80081087E-04   7.42983699E-05   5.82262402E-11   2.29813100E-05   2.37097907E-05  
  72               2.98347583E+00   7.47303488E+02   8.38110308E-01   1.60454146E-01   5.31312993E-04   7.80075076E-04   6.36534049E-05   2.41577597E-10   2.29810644E-05   2.90316230E-05  
  73               3.51382932E+00   7.84841225E+02   8.38116642E-01   1.60452528E-01   5.31306906E-04   7.80071529E-04   5.37948066E-05   9.62421388E-10   2.29808324E-05   3.39603083E-05  
  74               4.13857746E+00   8.23647101E+02   8.38121879E-01   1.60451161E-01   5.31299861E-04   7.80071508E-04   4.55455055E-05   3.46735610E-09   2.29806362E-05   3.80844404E-05  
  75               4.86700828E+00   8.64424055E+02   8.38126471E-01   1.60450036E-01   5.31287877E-04   7.80074483E-04   3.85767674E-05   1.16952780E-08   2.29804736E-05   4.15683826E-05  
  76               5.70553190E+00   9.05745196E+02   8.38130052E-01   1.60449134E-01   5.31261194E-04   7.80072962E-04   3.30776091E-05   3.53269056E-08   2.29940512E-05   4.43176186E-05  
  77               6.65780896E+00   9.48070362E+02   8.38132816E-01   1.60448360E-01   5.31195457E-04   7.80046008E-04   2.86182122E-05   9.83706830E-08   2.30447144E-05   4.65470204E-05  
  78               7.72886824E+00   9.90289467E+02   8.38134516E-01   1.60447641E-01   5.31044303E-04   7.79947365E-04   2.51482215E-05   2.46899673E-07   2.32149289E-05   4.82817345E-05  
  79               8.92821367E+00   1.03305244E+03   8.38135335E-01   1.60446909E-01   5.30712993E-04   7.79681918E-04   2.23411326E-05   5.75331484E-07   2.37321480E-05   4.96849793E-05  
  80               1.02654970E+01   1.07574014E+03   8.38136567E-01   1.60446245E-01   5.30050029E-04   7.79121484E-04   2.01190315E-05   1.23529363E-06   2.42835097E-05   5.07957264E-05  
  81               1.17506682E+01   1.11868412E+03   8.38139262E-01   1.60445541E-01   5.28797829E-04   7.78024715E-04   1.83130495E-05   2.48378761E-06   2.42832608E-05   5.16983382E-05  
  82               1.33951648E+01   1.16166504E+03   8.38142954E-01   1.60444584E-01   5.26595005E-04   7.76002378E-04   1.68518837E-05   4.68118058E-06   2.42828713E-05   5.24283314E-05  
  83               1.52144885E+01   1.20477196E+03   8.38148342E-01   1.60443205E-01   5.22946597E-04   7.72556221E-04   1.56592862E-05   8.32140780E-06   2.42822589E-05   5.30236740E-05  
  84               1.72324671E+01   1.24827236E+03   8.38156309E-01   1.60441185E-01   5.17208814E-04   7.67038383E-04   1.46735054E-05   1.40468844E-05   2.42813075E-05   5.35150131E-05  
  85               1.94755554E+01   1.29223472E+03   8.38167784E-01   1.60438294E-01   5.08684710E-04   7.58745944E-04   1.38593103E-05   2.25529464E-05   2.42798668E-05   5.39196614E-05  
  86               2.19704119E+01   1.33685873E+03   8.38183699E-01   1.60434297E-01   4.96664402E-04   7.46964199E-04   1.31808290E-05   3.45475624E-05   2.42777311E-05   5.42551560E-05  
  87               2.47434657E+01   1.38202850E+03   8.38204529E-01   1.60429062E-01   4.80759578E-04   7.31299777E-04   1.26228248E-05   5.04173376E-05   2.42746351E-05   5.45286810E-05  
  88               2.78271700E+01   1.42797908E+03   8.38230441E-01   1.60422521E-01   4.60790331E-04   7.11575358E-04   1.21600996E-05   7.03402509E-05   2.42701046E-05   5.47523112E-05  
  89               3.12608942E+01   1.47462599E+03   8.38260616E-01   1.60414804E-01   4.37234206E-04   6.88285856E-04   1.17859260E-05   9.38373626E-05   2.42631464E-05   5.49289306E-05  
  90               3.50927987E+01   1.52229015E+03   8.38293967E-01   1.60406065E-01   4.10668070E-04   6.62100926E-04   1.14823674E-05   1.20329713E-04   2.42509173E-05   5.50669115E-05  
  91               3.93584823E+01   1.57069071E+03   8.38327966E-01   1.60396594E-01   3.82389235E-04   6.34339325E-04   1.12483085E-05   1.48518489E-04   2.42252055E-05   5.51663843E-05  
  92               4.40689421E+01   1.61967836E+03   8.38359902E-01   1.60386609E-01   3.53463034E-04   6.06580949E-04   1.10719495E-05   1.77336228E-04   2.41620965E-05   5.52328344E-05  
  93               4.91998947E+01   1.66846111E+03   8.38374753E-01   1.60374230E-01   3.25181597E-04   5.81275401E-04   1.09532727E-05   2.05483250E-04   2.40002833E-05   5.52655595E-05  
  94               5.46862381E+01   1.71645698E+03   8.38389084E-01   1.60364159E-01   2.95800675E-04   5.70453859E-04   1.08812662E-05   2.34721558E-04   2.30449565E-05   5.52730497E-05  
  95               6.04753678E+01   1.76302429E+03   8.38407521E-01   1.60355296E-01   2.72082748E-04   5.48302171E-04   1.08538710E-05   2.58281494E-04   2.29934002E-05   5.52545688E-05  
  96               6.64707683E+01   1.80777288E+03   8.38415354E-01   1.60346473E-01   2.50517390E-04   5.31164651E-04   1.08582559E-05   2.79673708E-04   2.28951621E-05   5.52178060E-05  
  97               7.24487154E+01   1.84913886E+03   8.38405679E-01   1.60336904E-01   2.31024229E-04   5.22090230E-04   1.08922876E-05   2.98986848E-04   2.27076502E-05   5.51661496E-05  
  98               7.88338738E+01   1.89056289E+03   8.38361861E-01   1.60323021E-01   2.10686314E-04   5.23950462E-04   1.09467761E-05   3.19123559E-04   2.23607062E-05   5.51025640E-05  
  99               8.50038478E+01   1.92791881E+03   8.38277627E-01   1.60307162E-01   1.85918165E-04   5.62497160E-04   1.10191438E-05   3.43733746E-04   2.15771432E-05   5.50417959E-05  
  100              9.08207618E+01   1.96133942E+03   8.38270957E-01   1.60302034E-01   1.75272756E-04   5.52025728E-04   1.10963683E-05   3.54207065E-04   2.15516161E-05   5.49710994E-05  
  101              9.71723667E+01   1.99572999E+03   8.38213323E-01   1.60288048E-01   1.65327383E-04   5.42249171E-04   1.11930670E-05   3.63931580E-04   2.15233949E-05   5.48844304E-05  
