# ATMO chemical composition profiles
# Chemical abundances given as mole fraction for the 8 most abundant species
# Model Level      Pressure [Ba]    Temperature [K]  H2               H                He               CO               H2O              O-3P             Mg               OH              
  1                1.00000000E-05   1.08595697E+03   8.38751251E-01   5.43726991E-06   1.60254601E-01   5.30485117E-04   2.50967856E-04   4.87093830E-17   3.53344408E-09   6.95426604E-12  
  2                1.19313482E-05   1.68912993E+03   8.06972187E-01   3.43836636E-02   1.57486008E-01   5.21413279E-04   3.65894013E-04   2.73681348E-08   6.56484187E-05   8.12447149E-07  
  3                1.29541496E-05   1.50663810E+03   8.34158084E-01   4.80958880E-03   1.59856963E-01   5.29243367E-04   3.73553659E-04   3.19488680E-10   6.66365352E-05   6.53992188E-08  
  4                1.41242846E-05   1.75045875E+03   7.88156963E-01   5.48509311E-02   1.55845934E-01   5.15987359E-04   3.61242526E-04   8.25186926E-08   6.49644681E-05   1.53035197E-06  
  5                1.54576841E-05   1.56726729E+03   8.30490008E-01   8.80020495E-03   1.59536728E-01   5.28191233E-04   3.72116043E-04   1.27309558E-09   6.65028575E-05   1.45346478E-07  
  6                1.70039110E-05   1.79515009E+03   7.71650258E-01   7.28069361E-02   1.54407143E-01   5.11226179E-04   3.57049028E-04   1.64423230E-07   6.43643794E-05   2.28061557E-06  
  7                1.87901093E-05   1.61472575E+03   8.26416033E-01   1.32321294E-02   1.59181344E-01   5.27019899E-04   3.70886602E-04   3.27693422E-09   6.63544203E-05   2.52115667E-07  
  8                2.08749787E-05   1.83361721E+03   7.56395295E-01   8.94012833E-02   1.53077469E-01   5.06825641E-04   3.53042299E-04   2.75185773E-07   6.38097167E-05   3.08205283E-06  
  9                2.32989166E-05   1.65660822E+03   8.21925671E-01   1.81168903E-02   1.58789778E-01   5.25727516E-04   3.69674144E-04   6.85855455E-09   6.61907976E-05   3.89159047E-07  
  10               2.61372031E-05   1.86920257E+03   7.42075182E-01   1.04978702E-01   1.51829277E-01   5.02694558E-04   3.49141631E-04   4.16925323E-07   6.32889431E-05   3.94127901E-06  
  11               2.94475808E-05   1.69591438E+03   8.16992143E-01   2.34836684E-02   1.58359646E-01   5.24306742E-04   3.68400261E-04   1.27360129E-08   6.60109882E-05   5.61730824E-07  
  12               3.33306677E-05   1.90337078E+03   7.28587993E-01   1.19650072E-01   1.50653677E-01   4.98803629E-04   3.45320556E-04   5.91191458E-07   6.27983354E-05   4.85991690E-06  
  13               3.78670483E-05   1.73412008E+03   8.11581357E-01   2.93695731E-02   1.57887951E-01   5.22747906E-04   3.67020877E-04   2.18886979E-08   6.58137289E-05   7.76580411E-07  
  14               4.31935586E-05   1.93690179E+03   7.15868760E-01   1.33486067E-01   1.49545002E-01   4.95134162E-04   3.41562195E-04   7.99341110E-07   6.23355129E-05   5.83916669E-06  
  15               4.94210159E-05   1.77207900E+03   8.05643672E-01   3.58286169E-02   1.57370354E-01   5.21036766E-04   3.65501058E-04   3.56737958E-08   6.55971908E-05   1.04237995E-06  
  16               5.67367560E-05   1.97031507E+03   7.03795754E-01   1.46619108E-01   1.48492641E-01   4.91651060E-04   3.37833069E-04   1.04389665E-06   6.18960313E-05   6.88471156E-06  
  17               6.52914596E-05   1.81041558E+03   7.99086558E-01   4.29614631E-02   1.56798780E-01   5.19146668E-04   3.63799520E-04   5.60774278E-08   6.53579845E-05   1.37132185E-06  
  18               7.53419335E-05   2.00406065E+03   6.92135075E-01   1.59303631E-01   1.47476204E-01   4.88286838E-04   3.34063830E-04   1.33088584E-06   6.14713685E-05   8.01208878E-06  
  19               8.70912209E-05   1.84966582E+03   7.91756888E-01   5.09346887E-02   1.56159875E-01   5.17033450E-04   3.61859479E-04   8.61553415E-08   6.50905163E-05   1.78108312E-06  
  20               1.00890758E-04   2.03858244E+03   6.80541194E-01   1.71915508E-01   1.46465571E-01   4.84941785E-04   3.30143680E-04   1.67232155E-06   6.10489441E-05   9.24977837E-06  
  21               1.17011596E-04   1.89037549E+03   7.83410806E-01   6.00135646E-02   1.55432379E-01   5.14626757E-04   3.59596746E-04   1.30879709E-07   6.47858925E-05   2.29827236E-06  
  22               1.35932741E-04   2.07439340E+03   6.68522053E-01   1.84990003E-01   1.45417848E-01   4.81473888E-04   3.25901970E-04   2.09072955E-06   6.06108523E-05   1.06459362E-05  
  23               1.58012455E-04   1.93314847E+03   7.73679829E-01   7.05989307E-02   1.54584169E-01   5.11820254E-04   3.56885379E-04   1.98729181E-07   6.44306890E-05   2.96358249E-06  
  24               1.83900078E-04   2.11210650E+03   6.55423732E-01   1.99238458E-01   1.44276027E-01   4.77694407E-04   3.21091468E-04   2.62576044E-06   6.01333059E-05   1.22753835E-05  
  25               2.14067368E-04   1.97882377E+03   7.61952300E-01   8.33561532E-02   1.53561925E-01   5.08437418E-04   3.53516378E-04   3.05472938E-07   6.40026454E-05   3.84477558E-06  
  26               2.49398012E-04   2.15264806E+03   6.40220295E-01   2.15776905E-01   1.42950669E-01   4.73307209E-04   3.15297189E-04   3.35401241E-06   5.95790035E-05   1.42683014E-05  
  27               2.90503193E-04   2.02886592E+03   7.47061013E-01   9.95549276E-02   1.52263898E-01   5.04141385E-04   3.49089210E-04   4.84763697E-07   6.34593188E-05   5.07090053E-06  
  28               3.38560165E-04   2.19787675E+03   6.20815354E-01   2.36885833E-01   1.41259005E-01   4.67707163E-04   3.07633872E-04   4.45601804E-06   5.88717641E-05   1.69040272E-05  
  29               3.94291989E-04   2.08714321E+03   7.25821870E-01   1.22658941E-01   1.50412525E-01   4.98013188E-04   3.42517388E-04   8.35042253E-07   6.26850094E-05   6.98276165E-06  
  30               4.59162035E-04   2.25548369E+03   5.88348187E-01   2.72204110E-01   1.38428528E-01   4.58336571E-04   2.94326752E-04   6.74422282E-06   5.76897217E-05   2.13466331E-05  
  31               5.30942879E-04   2.27746438E+03   5.79016909E-01   2.82354859E-01   1.37614980E-01   4.55643384E-04   2.90068844E-04   7.58539394E-06   5.73493715E-05   2.28764866E-05  
  32               6.15205559E-04   2.29756129E+03   5.72252619E-01   2.89713208E-01   1.37025207E-01   4.53691105E-04   2.86742448E-04   8.27937927E-06   5.71021488E-05   2.41435258E-05  
  33               7.14057589E-04   2.32083849E+03   5.62364833E-01   3.00467537E-01   1.36162929E-01   4.50836588E-04   2.81981049E-04   9.31995095E-06   5.67412805E-05   2.58651421E-05  
  34               8.29211967E-04   2.34187394E+03   5.55339777E-01   3.08101325E-01   1.35550664E-01   4.48809077E-04   2.83601782E-04   1.03547624E-05   5.64844584E-05   2.77823527E-05  
  35               9.63312912E-04   2.36603208E+03   5.45141465E-01   3.19195396E-01   1.34661438E-01   4.45865358E-04   2.78309376E-04   1.16312293E-05   5.61121474E-05   2.96987960E-05  
  36               1.12035473E-03   2.38790702E+03   5.37980107E-01   3.26985794E-01   1.34036977E-01   4.43798250E-04   2.74269625E-04   1.26533690E-05   5.58499889E-05   3.12456474E-05  
  37               1.30411786E-03   2.41310165E+03   5.27509397E-01   3.38376232E-01   1.33123953E-01   4.40775752E-04   2.68513713E-04   1.41791110E-05   5.54675008E-05   3.33218835E-05  
  38               1.51893707E-03   2.43583150E+03   5.20266449E-01   3.46255420E-01   1.32492340E-01   4.38684974E-04   2.64169413E-04   1.53823665E-05   5.52020667E-05   3.49773867E-05  
  39               1.76982219E-03   2.46198015E+03   5.09599331E-01   3.57859565E-01   1.31562138E-01   4.35605618E-04   2.57962666E-04   1.71828541E-05   5.48121353E-05   3.71917719E-05  
  40               2.06198325E-03   2.48547361E+03   5.02318548E-01   3.65779945E-01   1.30927186E-01   4.33503794E-04   2.53328793E-04   1.85817267E-05   5.45449885E-05   3.89362893E-05  
  41               2.40142683E-03   2.51241073E+03   4.91550954E-01   3.77493440E-01   1.29988168E-01   4.30395264E-04   2.46712207E-04   2.06729581E-05   5.41510842E-05   4.12526668E-05  
  42               2.79558216E-03   2.53652873E+03   4.84314634E-01   3.85365487E-01   1.29357051E-01   4.28306147E-04   2.41837184E-04   2.22696680E-05   5.38851913E-05   4.30535949E-05  
  43               3.25303138E-03   2.56419573E+03   4.73541142E-01   3.97085445E-01   1.28417462E-01   4.25195743E-04   2.34864731E-04   2.46594600E-05   5.34907201E-05   4.54311475E-05  
  44               3.78345208E-03   2.58893549E+03   4.66394060E-01   4.04860445E-01   1.27794086E-01   4.23132261E-04   2.29785733E-04   2.64560050E-05   5.32276669E-05   4.72600283E-05  
  45               4.39793148E-03   2.61734937E+03   4.55642146E-01   4.16556973E-01   1.26856321E-01   4.20027915E-04   2.22490329E-04   2.91557437E-05   5.28335943E-05   4.96620624E-05  
  46               5.10881346E-03   2.64274351E+03   4.48564016E-01   4.24256989E-01   1.26238918E-01   4.17984213E-04   2.17218737E-04   3.11617852E-05   5.25726078E-05   5.14956018E-05  
  47               5.93009523E-03   2.67190254E+03   4.37853986E-01   4.35907990E-01   1.25304750E-01   4.14891791E-04   2.09643521E-04   3.41773715E-05   5.21796452E-05   5.38798329E-05  
  48               6.87713240E-03   2.69791627E+03   4.30868997E-01   4.43506700E-01   1.24695432E-01   4.12874858E-04   2.04226591E-04   3.63877291E-05   5.19215731E-05   5.56834694E-05  
  49               7.96712695E-03   2.72771995E+03   4.20294974E-01   4.55009770E-01   1.23773073E-01   4.09821543E-04   1.96476365E-04   3.96954051E-05   5.15331177E-05   5.79915584E-05  
  50               9.21865704E-03   2.75424722E+03   4.13470394E-01   4.62433984E-01   1.23177710E-01   4.07850808E-04   1.91000668E-04   4.20835694E-05   5.12803785E-05   5.97222578E-05  
  51               1.06522919E-02   2.78461305E+03   4.03075161E-01   4.73742563E-01   1.22270899E-01   4.04848966E-04   1.83165481E-04   4.56576964E-05   5.08979751E-05   6.19027663E-05  
  52               1.22900178E-02   2.81248161E+03   3.95526577E-01   4.81954382E-01   1.21612356E-01   4.02669052E-04   1.77106145E-04   4.84914920E-05   5.06185151E-05   6.36407930E-05  
  53               1.41558151E-02   2.84355175E+03   3.85129451E-01   4.93265007E-01   1.20705337E-01   3.99666512E-04   1.69132407E-04   5.23850181E-05   5.02356348E-05   6.56632447E-05  
  54               1.62749987E-02   2.87155098E+03   3.78017635E-01   5.01001654E-01   1.20084863E-01   3.97612606E-04   1.63295217E-04   5.52973314E-05   4.99715379E-05   6.72132372E-05  
  55               1.86751831E-02   2.90258087E+03   3.68273698E-01   5.11601656E-01   1.19234784E-01   3.94798551E-04   1.55697990E-04   5.92496395E-05   4.96119231E-05   6.89631395E-05  
  56               2.13856044E-02   2.93036783E+03   3.61824198E-01   5.18617736E-01   1.18672062E-01   3.92935800E-04   1.50302684E-04   6.21064634E-05   4.93713467E-05   7.02902295E-05  
  57               2.44383604E-02   2.96125211E+03   3.52737840E-01   5.28502305E-01   1.17879319E-01   3.90311513E-04   1.43165741E-04   6.60457121E-05   4.90351472E-05   7.17625215E-05  
  58               2.78676866E-02   2.98892868E+03   3.46768451E-01   5.34996003E-01   1.17358463E-01   3.88587304E-04   1.38144989E-04   6.88607947E-05   4.88114784E-05   7.28886771E-05  
  59               3.17113658E-02   3.01996492E+03   3.38013318E-01   5.44520125E-01   1.16594597E-01   3.86058540E-04   1.31311010E-04   7.28584100E-05   4.84868822E-05   7.41108756E-05  
  60               3.60084866E-02   3.04805845E+03   3.32021945E-01   5.51037611E-01   1.16071813E-01   3.84327861E-04   1.26370566E-04   7.58008293E-05   4.82619672E-05   7.50682649E-05  
  61               4.08018609E-02   3.07966961E+03   3.23224569E-01   5.60607514E-01   1.15304246E-01   3.81786741E-04   1.19643868E-04   7.99821392E-05   4.79355033E-05   7.60471819E-05  
  62               4.61378891E-02   3.10840337E+03   3.17042197E-01   5.67332595E-01   1.14764791E-01   3.80000745E-04   1.14712875E-04   8.31142330E-05   4.77032746E-05   7.68223013E-05  
  63               5.20692158E-02   3.14055881E+03   3.08279245E-01   5.76864805E-01   1.14000215E-01   3.77469359E-04   1.08195566E-04   8.74320580E-05   4.73777516E-05   7.75325143E-05  
  64               5.86537848E-02   3.16970129E+03   3.02161437E-01   5.83519400E-01   1.13466381E-01   3.75701794E-04   1.03477426E-04   9.06349814E-05   4.71474552E-05   7.81039743E-05  
  65               6.59581603E-02   3.20205947E+03   2.93775413E-01   5.92641246E-01   1.12734672E-01   3.73278982E-04   9.74268545E-05   9.49146212E-05   4.68352257E-05   7.85432505E-05  
  66               7.40563839E-02   3.23116222E+03   2.88133762E-01   5.98777547E-01   1.12242364E-01   3.71648636E-04   9.31986193E-05   9.79837204E-05   4.66216597E-05   7.89278655E-05  
  67               8.30333304E-02   3.26348720E+03   2.80356339E-01   6.07236941E-01   1.11563730E-01   3.69401200E-04   8.77665820E-05   1.02087672E-04   4.63310015E-05   7.91357488E-05  
  68               9.29826212E-02   3.29268280E+03   2.75137564E-01   6.12912848E-01   1.11108295E-01   3.67892567E-04   8.39878088E-05   1.05026298E-04   4.61321535E-05   7.93678859E-05  
  69               1.04010610E-01   3.32538359E+03   2.67721966E-01   6.20978167E-01   1.10461204E-01   3.65749071E-04   7.90166618E-05   1.09046791E-04   4.58540951E-05   7.93733278E-05  
  70               1.16233998E-01   3.35527007E+03   2.62568715E-01   6.26582344E-01   1.10011464E-01   3.64258749E-04   7.54701121E-05   1.12015114E-04   4.56570357E-05   7.94548581E-05  
  71               1.29785272E-01   3.38895390E+03   2.55182097E-01   6.34615582E-01   1.09366877E-01   3.62122786E-04   7.07693546E-05   1.16103353E-04   4.53795640E-05   7.92506868E-05  
  72               1.44810231E-01   3.42007992E+03   2.49832967E-01   6.40432320E-01   1.08900026E-01   3.60574959E-04   6.73181272E-05   1.19229388E-04   4.51748779E-05   7.91586450E-05  
  73               1.61475480E-01   3.45504573E+03   2.42403030E-01   6.48512101E-01   1.08251636E-01   3.58425226E-04   6.28633319E-05   1.23420118E-04   4.48953849E-05   7.87359928E-05  
  74               1.79965516E-01   3.48751321E+03   2.36925384E-01   6.54468156E-01   1.07773554E-01   3.56838883E-04   5.95620376E-05   1.26674179E-04   4.46854773E-05   7.84680290E-05  
  75               2.00491391E-01   3.52373077E+03   2.29598850E-01   6.62435015E-01   1.07134175E-01   3.54717146E-04   5.54396228E-05   1.30891675E-04   4.44091977E-05   7.78454222E-05  
  76               2.23287137E-01   3.55744825E+03   2.24169046E-01   6.68338758E-01   1.06660267E-01   3.53142546E-04   5.23841906E-05   1.34183477E-04   4.42003458E-05   7.74237760E-05  
  77               2.48619249E-01   3.59485816E+03   2.17086220E-01   6.76040415E-01   1.06042168E-01   3.51088410E-04   4.86542353E-05   1.38346993E-04   4.39322439E-05   7.66332979E-05  
  78               2.76782964E-01   3.62972942E+03   2.11852454E-01   6.81731011E-01   1.05585396E-01   3.49567315E-04   4.59041475E-05   1.41591286E-04   4.37296689E-05   7.60900700E-05  
  79               3.08112250E-01   3.66837877E+03   2.05067573E-01   6.89108892E-01   1.04993345E-01   3.47594941E-04   4.25672716E-05   1.45655121E-04   4.34716004E-05   7.51579645E-05  
  80               3.42976154E-01   3.70478999E+03   1.99904271E-01   6.94723263E-01   1.04542782E-01   3.46089163E-04   4.00478650E-05   1.48899216E-04   4.32707606E-05   7.44757707E-05  
  81               3.81789971E-01   3.74527412E+03   1.93197144E-01   7.02017139E-01   1.03957596E-01   3.44132065E-04   3.69876037E-05   1.52952260E-04   4.30148495E-05   7.33636656E-05  
  82               4.25013099E-01   3.78392489E+03   1.87866286E-01   7.07814319E-01   1.03492493E-01   3.42569143E-04   3.45954756E-05   1.56295659E-04   4.28072940E-05   7.24810894E-05  
  83               4.73159617E-01   3.82681570E+03   1.81089218E-01   7.15184860E-01   1.02901288E-01   3.40579313E-04   3.17497246E-05   1.60382228E-04   4.25483357E-05   7.11440098E-05  
  84               5.26796932E-01   3.86795690E+03   1.75615301E-01   7.21138127E-01   1.02423775E-01   3.38959858E-04   2.95036737E-05   1.63780259E-04   4.23349906E-05   7.00474036E-05  
  85               5.86551853E-01   3.91317721E+03   1.68934770E-01   7.28404088E-01   1.01841056E-01   3.36976610E-04   2.69344752E-05   1.67774844E-04   4.20789134E-05   6.85186853E-05  
  86               6.53111133E-01   3.95668526E+03   1.63490699E-01   7.34325206E-01   1.01366196E-01   3.35339967E-04   2.48983551E-05   1.71102320E-04   4.18659279E-05   6.72459205E-05  
  87               7.27220851E-01   4.00429069E+03   1.56980158E-01   7.41406519E-01   1.00798351E-01   3.33369572E-04   2.26187264E-05   1.74930426E-04   4.16153617E-05   6.55527624E-05  
  88               8.09691325E-01   4.05049560E+03   1.51531742E-01   7.47332553E-01   1.00323151E-01   3.31686755E-04   2.07765033E-05   1.78175387E-04   4.14016331E-05   6.40966693E-05  
  89               9.01384537E-01   4.10084057E+03   1.45143798E-01   7.54280656E-01   9.97660348E-02   3.29688641E-04   1.87592144E-05   1.81838301E-04   4.11550401E-05   6.22391239E-05  
  90               1.00322352E+00   4.15014350E+03   1.39647792E-01   7.60258558E-01   9.92867143E-02   3.27912509E-04   1.70975324E-05   1.85010257E-04   4.09392697E-05   6.05943423E-05  
  91               1.11616217E+00   4.20377075E+03   1.33295022E-01   7.67168461E-01   9.87326960E-02   3.25811665E-04   1.53114397E-05   1.88555312E-04   4.06938714E-05   5.85631279E-05  
  92               1.24120011E+00   4.25662546E+03   1.27717591E-01   7.73234947E-01   9.82462989E-02   3.23868185E-04   1.38246855E-05   1.91691939E-04   4.04752538E-05   5.67341364E-05  
  93               1.37933773E+00   4.31349798E+03   1.21510700E-01   7.79986109E-01   9.77050227E-02   3.21610490E-04   1.22912261E-05   1.95118219E-04   4.02352532E-05   5.46006231E-05  
  94               1.53161236E+00   4.36927151E+03   1.16120924E-01   7.85848343E-01   9.72350021E-02   3.19475184E-04   1.10368278E-05   1.98171899E-04   4.00234433E-05   5.27217495E-05  
  95               1.69904617E+00   4.42871307E+03   1.10286625E-01   7.92193979E-01   9.67262213E-02   3.16991805E-04   9.78223164E-06   2.01500628E-04   3.97969307E-05   5.06249679E-05  
  96               1.88268983E+00   4.48726513E+03   1.05147668E-01   7.97783054E-01   9.62780667E-02   3.14512552E-04   8.74906181E-06   2.04606643E-04   3.95944213E-05   4.87741357E-05  
  97               2.08354579E+00   4.54980348E+03   9.95744204E-02   8.03844232E-01   9.57920315E-02   3.11531940E-04   7.71970119E-06   2.08120369E-04   3.93779561E-05   4.67323804E-05  
  98               2.30260859E+00   4.61202812E+03   9.45314980E-02   8.09328192E-01   9.53522187E-02   3.08352563E-04   6.85799556E-06   2.11640188E-04   3.91800002E-05   4.49049843E-05  
  99               2.54080046E+00   4.67837168E+03   8.91338215E-02   8.15197472E-01   9.48814389E-02   3.04439544E-04   6.01596812E-06   2.15767610E-04   3.89712411E-05   4.29471840E-05  
  100              2.79902693E+00   4.74465131E+03   8.42068847E-02   8.20554105E-01   9.44516633E-02   3.00069511E-04   5.31214251E-06   2.20166739E-04   3.87791331E-05   4.12126642E-05  
  101              3.07815330E+00   4.81471335E+03   7.90868246E-02   8.26119880E-01   9.40049819E-02   2.94663416E-04   4.64779557E-06   2.25444083E-04   3.85820125E-05   3.94459030E-05  
