# ATMO chemical composition profiles
# Chemical abundances given as mole fraction for the 8 most abundant species
# Model Level      Pressure [Ba]    Temperature [K]  H2               He               H                H2O              CH4              CO               N2               H2S             
  1                1.00000000E-05   3.01234199E+02   8.38134026E-01   1.60449275E-01   1.73921218E-33   7.81799963E-04   5.31297111E-04   2.11783822E-21   4.53899526E-05   2.29785270E-05  
  2                2.13929875E-05   3.29512511E+02   8.38144567E-01   1.60446633E-01   2.09185063E-30   7.81772982E-04   5.31288364E-04   5.56349920E-19   5.35000402E-05   2.29781486E-05  
  3                3.62615913E-05   3.40652450E+02   8.38145066E-01   1.60446588E-01   2.17328764E-29   7.81523249E-04   5.31288214E-04   2.31506484E-18   5.37036292E-05   2.29781421E-05  
  4                5.45311301E-05   3.51307063E+02   8.38145873E-01   1.60446392E-01   1.83488505E-28   7.81522296E-04   5.31287566E-04   9.53342333E-18   5.43132498E-05   2.29781141E-05  
  5                7.69595637E-05   3.58592479E+02   8.38145736E-01   1.60446425E-01   7.05249051E-28   7.81522457E-04   5.31287676E-04   2.04507073E-17   5.42099833E-05   2.29781189E-05  
  6                1.04460795E-04   3.66884716E+02   8.38146165E-01   1.60446321E-01   3.16936152E-27   7.81521950E-04   5.31287331E-04   5.41784078E-17   5.45344688E-05   2.29781040E-05  
  7                1.38193445E-04   3.73003927E+02   8.38145968E-01   1.60446369E-01   8.92017474E-27   7.81522185E-04   5.31287489E-04   9.54855248E-17   5.43855627E-05   2.29781108E-05  
  8                1.79567881E-04   3.80581243E+02   8.38146314E-01   1.60446285E-01   3.18140380E-26   7.81521785E-04   5.31287212E-04   2.17379526E-16   5.46467888E-05   2.29780988E-05  
  9                2.30340886E-04   3.86440165E+02   8.38146154E-01   1.60446324E-01   8.00272936E-26   7.81522000E-04   5.31287340E-04   3.61378959E-16   5.45262084E-05   2.29781043E-05  
  10               2.92642367E-04   3.93830832E+02   8.38145908E-01   1.60446141E-01   2.54463701E-25   7.81521242E-04   5.31286735E-04   7.64677058E-16   5.47619131E-05   2.29780782E-05  
  11               3.69112089E-04   3.99644808E+02   8.38146374E-01   1.60446230E-01   5.98396156E-25   7.80855587E-04   5.31287029E-04   1.22400042E-15   5.46516150E-05   2.29780909E-05  
  12               4.62935248E-04   4.06968697E+02   8.38146632E-01   1.60446166E-01   1.74606463E-24   7.80856825E-04   5.31286819E-04   2.43789093E-15   5.48487725E-05   2.29780818E-05  
  13               5.77985415E-04   4.12743202E+02   8.38146448E-01   1.60446206E-01   3.85947544E-24   7.80860618E-04   5.31286950E-04   3.74400053E-15   5.47193806E-05   2.29780875E-05  
  14               7.18988333E-04   4.20056850E+02   8.38146607E-01   1.60446156E-01   1.04965479E-23   7.80907100E-04   5.31286785E-04   7.07197510E-15   5.48749118E-05   2.29780804E-05  
  15               8.91752210E-04   4.25817641E+02   8.38146315E-01   1.60446191E-01   2.19935464E-23   7.80907270E-04   5.31286901E-04   1.04368412E-14   5.47169956E-05   2.29780853E-05  
  16               1.10339832E-03   4.33388505E+02   8.38143827E-01   1.60445701E-01   5.81970244E-23   7.81298819E-04   5.31285279E-04   1.94062059E-14   5.48714126E-05   2.29780152E-05  
  17               1.36286458E-03   4.39254310E+02   8.38145803E-01   1.60445918E-01   1.17829872E-22   7.78556574E-04   5.31285996E-04   2.78287431E-14   5.46956774E-05   2.29780462E-05  
  18               1.68081520E-03   4.47233241E+02   8.38144532E-01   1.60445864E-01   3.09084538E-22   7.80048116E-04   5.31285819E-04   5.17536229E-14   5.48627640E-05   2.29780386E-05  
  19               2.06987978E-03   4.53189798E+02   8.38144264E-01   1.60445929E-01   6.03849619E-22   7.80048432E-04   5.31286034E-04   7.23870614E-14   5.46605853E-05   2.29780478E-05  
  20               2.54579548E-03   4.60929729E+02   8.38144356E-01   1.60445907E-01   1.44469282E-21   7.80048325E-04   5.31285959E-04   1.23636944E-13   5.47301765E-05   2.29780447E-05  
  21               3.12765397E-03   4.66911383E+02   8.38144034E-01   1.60445985E-01   2.71037027E-21   7.80048706E-04   5.31286218E-04   1.67098055E-13   5.44865518E-05   2.29780558E-05  
  22               3.83868734E-03   4.74823022E+02   8.38144090E-01   1.60445972E-01   6.26410134E-21   7.80048642E-04   5.31286174E-04   2.77369044E-13   5.45286080E-05   2.29780539E-05  
  23               4.70711476E-03   4.80854945E+02   8.38143712E-01   1.60446063E-01   1.13476676E-20   7.80049089E-04   5.31286476E-04   3.63853331E-13   5.42434136E-05   2.29780670E-05  
  24               5.76704363E-03   4.88843936E+02   8.38143709E-01   1.60446064E-01   2.51087640E-20   7.80049095E-04   5.31286478E-04   5.81446253E-13   5.42413536E-05   2.29780671E-05  
  25               7.05998022E-03   4.94943442E+02   8.38143274E-01   1.60446169E-01   4.41076202E-20   7.80049611E-04   5.31286827E-04   7.43022639E-13   5.39127952E-05   2.29780822E-05  
  26               8.63624904E-03   5.03144013E+02   8.38143239E-01   1.60446178E-01   9.50233719E-20   7.80049659E-04   5.31286856E-04   1.16149008E-12   5.38858214E-05   2.29780835E-05  
  27               1.05569013E-02   5.09409298E+02   8.38142760E-01   1.60446294E-01   1.63753287E-19   7.80050227E-04   5.31287239E-04   1.46176845E-12   5.35243978E-05   2.29781001E-05  
  28               1.28961576E-02   5.17940845E+02   8.38142711E-01   1.60446306E-01   3.47653890E-19   7.80050294E-04   5.31287278E-04   2.26098500E-12   5.34873701E-05   2.29781018E-05  
  29               1.57452921E-02   5.24717866E+02   8.38142254E-01   1.60446417E-01   6.07463756E-19   7.80050842E-04   5.31287644E-04   2.89338993E-12   5.31420639E-05   2.29781176E-05  
  30               1.92151147E-02   5.33926690E+02   8.38142252E-01   1.60446417E-01   1.30911437E-18   7.80050859E-04   5.31287644E-04   4.55635833E-12   5.31407164E-05   2.29781177E-05  
  31               2.34405425E-02   5.41402277E+02   8.38141847E-01   1.60446515E-01   2.34564760E-18   7.80051353E-04   5.31287968E-04   5.99251912E-12   5.28344818E-05   2.29781318E-05  
  32               2.85858608E-02   5.51625920E+02   8.38141944E-01   1.60446492E-01   5.24424420E-18   7.80051267E-04   5.31287886E-04   9.81337974E-12   5.29077308E-05   2.29781284E-05  
  33               3.48521231E-02   5.60239561E+02   8.38141665E-01   1.60446559E-01   9.91536701E-18   7.80051625E-04   5.31288105E-04   1.36414857E-11   5.26973863E-05   2.29781381E-05  
  34               4.24826485E-02   5.71826728E+02   8.38141897E-01   1.60446503E-01   2.33485894E-17   7.80051405E-04   5.31287909E-04   2.35797393E-11   5.28726793E-05   2.29781300E-05  
  35               5.17728813E-02   5.81932146E+02   8.38141785E-01   1.60446530E-01   4.71858971E-17   7.80051596E-04   5.31287986E-04   3.50948158E-11   5.27881662E-05   2.29781339E-05  
  36               6.30811857E-02   5.95451516E+02   8.38142201E-01   1.60446429E-01   1.19893226E-16   7.80051214E-04   5.31287621E-04   6.56098213E-11   5.31027860E-05   2.29781194E-05  
  37               7.68391338E-02   6.07473799E+02   8.38142278E-01   1.60446410E-01   2.61594272E-16   7.80051244E-04   5.31287517E-04   1.05664508E-10   5.31613473E-05   2.29781167E-05  
  38               9.35600511E-02   6.23153904E+02   8.38142834E-01   1.60446275E-01   7.09136034E-16   7.80050797E-04   5.31286963E-04   2.11489962E-10   5.35812216E-05   2.29780974E-05  
  39               1.13863892E-01   6.37354390E+02   8.38143065E-01   1.60446218E-01   1.65577722E-15   7.80050750E-04   5.31286617E-04   3.65801443E-10   5.37578942E-05   2.29780892E-05  
  40               1.38503460E-01   6.55646907E+02   8.38143727E-01   1.60446057E-01   4.78400047E-15   7.80050299E-04   5.31285661E-04   7.84001828E-10   5.42584106E-05   2.29780662E-05  
  41               1.68369634E-01   6.72542280E+02   8.38144074E-01   1.60445965E-01   1.19720000E-14   7.80050142E-04   5.31284672E-04   1.46007414E-09   5.45343556E-05   2.29780529E-05  
  42               2.04498696E-01   6.93842987E+02   8.38144784E-01   1.60445792E-01   3.64205669E-14   7.80049302E-04   5.31282231E-04   3.31498635E-09   5.50697471E-05   2.29780282E-05  
  43               2.48094563E-01   7.13792595E+02   8.38145161E-01   1.60445673E-01   9.62232625E-14   7.80047959E-04   5.31278569E-04   6.56073287E-09   5.54004364E-05   2.29780110E-05  
  44               3.00535775E-01   7.38466543E+02   8.38145728E-01   1.60445475E-01   3.02730419E-13   7.80042704E-04   5.31268891E-04   1.55329478E-08   5.59260462E-05   2.29779826E-05  
  45               3.63377415E-01   7.61704534E+02   8.38145970E-01   1.60445318E-01   8.24531097E-13   7.80031819E-04   5.31251856E-04   3.19760076E-08   5.62646501E-05   2.29779599E-05  
  46               4.38445363E-01   7.89984674E+02   8.38146647E-01   1.60445148E-01   2.61666647E-12   7.79997421E-04   5.31205952E-04   7.71529697E-08   5.67420137E-05   2.29779352E-05  
  47               5.27946774E-01   8.17028050E+02   8.38147162E-01   1.60445014E-01   7.26542465E-12   7.79926207E-04   5.31118871E-04   1.63529882E-07   5.70649555E-05   2.29810186E-05  
  48               6.34353579E-01   8.49357589E+02   8.38147948E-01   1.60444799E-01   2.28988179E-11   7.79720707E-04   5.30885361E-04   3.95750228E-07   5.74761627E-05   2.29910838E-05  
  49               7.60379448E-01   8.80291463E+02   8.38148732E-01   1.60444543E-01   6.29537428E-11   7.79313469E-04   5.30441131E-04   8.38230911E-07   5.77541891E-05   2.30192927E-05  
  50               9.09003130E-01   9.16572859E+02   8.38150185E-01   1.60444006E-01   1.90914458E-10   7.78240516E-04   5.29307967E-04   1.96768443E-06   5.80849682E-05   2.31224765E-05  
  51               1.08367329E+00   9.51481443E+02   8.38151936E-01   1.60443068E-01   5.08760170E-10   7.76214068E-04   5.27207367E-04   4.06221113E-06   5.83113003E-05   2.34076428E-05  
  52               1.28900692E+00   9.92015189E+02   8.38157182E-01   1.60441232E-01   1.46873979E-09   7.71322276E-04   5.22204552E-04   9.05298245E-06   5.85701833E-05   2.42828146E-05  
  53               1.53084613E+00   1.03129473E+03   8.38168730E-01   1.60438379E-01   3.76188679E-09   7.62809341E-04   5.13528048E-04   1.77115066E-05   5.87464147E-05   2.42822926E-05  
  54               1.81748375E+00   1.07637991E+03   8.38192652E-01   1.60432503E-01   1.02382599E-08   7.44969196E-04   4.95456800E-04   3.57485776E-05   5.89380168E-05   2.42812076E-05  
  55               2.16090447E+00   1.12041484E+03   8.38227870E-01   1.60423875E-01   2.49766139E-08   7.18518436E-04   4.68746158E-04   6.24134250E-05   5.90622389E-05   2.42795584E-05  
  56               2.57997601E+00   1.17077127E+03   8.38285731E-01   1.60409722E-01   6.40136578E-08   6.74945491E-04   4.24835061E-04   1.06255700E-04   5.91900329E-05   2.42767101E-05  
  57               3.10052577E+00   1.21898051E+03   8.38347610E-01   1.60394582E-01   1.44666056E-07   6.28226371E-04   3.77786820E-04   1.53236617E-04   5.92503442E-05   2.42732779E-05  
  58               3.75566542E+00   1.27208056E+03   8.38419619E-01   1.60376942E-01   3.30085856E-07   5.73754042E-04   3.22963643E-04   2.07985758E-04   5.92990893E-05   2.42685161E-05  
  59               4.58098547E+00   1.32163952E+03   8.38476031E-01   1.60363057E-01   6.60877156E-07   5.30884861E-04   2.79816529E-04   2.51075444E-04   5.92890472E-05   2.42633465E-05  
  60               5.61209965E+00   1.37584750E+03   8.38532099E-01   1.60349139E-01   1.33342059E-06   4.88001307E-04   2.36661087E-04   2.94170426E-04   5.92740275E-05   2.42556102E-05  
  61               6.87932757E+00   1.42630514E+03   8.38570440E-01   1.60339353E-01   2.41019338E-06   4.58100266E-04   2.06506491E-04   3.24275567E-04   5.92162719E-05   2.42444558E-05  
  62               8.41153643E+00   1.48149078E+03   8.38607131E-01   1.60329402E-01   4.41324187E-06   4.28424355E-04   1.76411583E-04   3.54311752E-04   5.91624827E-05   2.42169248E-05  
  63               1.02353160E+01   1.53231655E+03   8.38627961E-01   1.60322402E-01   7.32951240E-06   4.09275632E-04   1.56436323E-04   3.74231514E-04   5.90739454E-05   2.41493191E-05  
  64               1.23586461E+01   1.58767275E+03   8.38632902E-01   1.60312240E-01   1.23490679E-05   3.90925605E-04   1.35294586E-04   3.95294478E-04   5.89947895E-05   2.39231139E-05  
  65               1.47458014E+01   1.63866188E+03   8.38631495E-01   1.60305830E-01   1.92279804E-05   3.92437824E-04   1.17314644E-04   4.13204308E-04   5.88987983E-05   2.24969251E-05  
  66               1.73540212E+01   1.69496827E+03   8.38636579E-01   1.60298852E-01   3.07176749E-05   3.77986042E-04   1.00780149E-04   4.29649348E-04   5.88269566E-05   2.24280972E-05  
  67               2.01260245E+01   1.74778398E+03   8.38620346E-01   1.60290981E-01   4.62857462E-05   3.72103285E-04   8.72513899E-05   4.43080879E-04   5.87498238E-05   2.22492098E-05  
  68               2.28685864E+01   1.80770587E+03   8.38555226E-01   1.60275740E-01   7.27062155E-05   3.82415179E-04   6.81246607E-05   4.62091412E-04   5.87248847E-05   2.16719691E-05  
  69               2.53304169E+01   1.85668644E+03   8.38452809E-01   1.60261743E-01   1.02751416E-04   4.28589506E-04   5.18443445E-05   4.78303817E-04   5.87078856E-05   2.07855905E-05  
  70               2.73959105E+01   1.89493158E+03   8.38432464E-01   1.60257564E-01   1.32832719E-04   4.23015359E-04   4.62323814E-05   4.83847471E-04   5.86799739E-05   2.07744862E-05  
  71               2.97358383E+01   1.93546050E+03   8.38392942E-01   1.60250967E-01   1.72289514E-04   4.18039019E-04   4.12217866E-05   4.88773456E-04   5.86444788E-05   2.07596043E-05  
  72               3.17269267E+01   1.96799302E+03   8.38362230E-01   1.60246833E-01   2.10527461E-04   4.14621006E-04   3.77717859E-05   4.92155446E-04   5.86130828E-05   2.07447686E-05  
  73               3.33313936E+01   1.99293732E+03   8.38334170E-01   1.60243401E-01   2.44303174E-04   4.12311634E-04   3.54358586E-05   4.94435698E-04   5.85864707E-05   2.07312694E-05  
  74               3.51988637E+01   2.02085735E+03   8.38297694E-01   1.60239231E-01   2.87236453E-04   4.09988135E-04   3.30788181E-05   4.96726674E-04   5.85548146E-05   2.07134672E-05  
  75               3.73572285E+01   2.05151890E+03   8.38219082E-01   1.60228109E-01   3.41175262E-04   4.07731212E-04   3.07916539E-05   4.98915897E-04   5.85145166E-05   2.06898062E-05  
  76               3.89617478E+01   2.07349620E+03   8.38180860E-01   1.60224193E-01   3.84704589E-04   4.06294923E-04   2.93021719E-05   5.00346390E-04   5.84860111E-05   2.06709458E-05  
  77               4.01225885E+01   2.08883112E+03   8.38151807E-01   1.60221268E-01   4.17594034E-04   4.05356976E-04   2.83494822E-05   5.01255797E-04   5.84647162E-05   2.06565061E-05  
  78               4.15075556E+01   2.10682134E+03   8.38114939E-01   1.60217620E-01   4.59084379E-04   4.04342076E-04   2.72847847E-05   5.02267973E-04   5.84395023E-05   2.06381783E-05  
  79               4.31511039E+01   2.12735715E+03   8.38069212E-01   1.60213185E-01   5.10321002E-04   4.03253387E-04   2.61745672E-05   5.03315088E-04   5.84086930E-05   2.06153563E-05  
  80               4.50945715E+01   2.15101865E+03   8.38011217E-01   1.60207651E-01   5.75002434E-04   4.02086952E-04   2.49823011E-05   5.04431038E-04   5.83723482E-05   2.05862629E-05  
  81               4.73801740E+01   2.17756660E+03   8.37939116E-01   1.60200892E-01   6.55013458E-04   4.00918983E-04   2.37830778E-05   5.05538942E-04   5.83284675E-05   2.05504704E-05  
  82               5.00535555E+01   2.20753595E+03   8.37847943E-01   1.60192463E-01   7.55798381E-04   3.99720536E-04   2.25469834E-05   5.06665198E-04   5.82771317E-05   2.05053671E-05  
  83               5.31641635E+01   2.24048914E+03   8.37735103E-01   1.60182174E-01   8.80053640E-04   3.98575834E-04   2.13563709E-05   5.07725036E-04   5.82159542E-05   2.04505464E-05  
  84               5.67656236E+01   2.27695117E+03   8.37593278E-01   1.60169375E-01   1.03578528E-03   3.97452786E-04   2.01775852E-05   5.08747302E-04   5.81450152E-05   2.03826762E-05  
  85               6.09165944E+01   2.31628546E+03   8.37417136E-01   1.60153430E-01   1.22651658E-03   3.96432923E-04   1.90899546E-05   5.09648180E-04   5.80614125E-05   2.03016582E-05  
  86               6.56804538E+01   2.35902936E+03   8.37192327E-01   1.60133943E-01   1.46363401E-03   4.01299336E-04   1.77990796E-05   5.10740843E-04   5.79710733E-05   2.02343109E-05  
  87               7.11284913E+01   2.40435362E+03   8.36928813E-01   1.60110700E-01   1.75101778E-03   4.00636129E-04   1.68881788E-05   5.11394438E-04   5.78601574E-05   2.01201101E-05  
  88               7.73403734E+01   2.45288235E+03   8.36604402E-01   1.60082194E-01   2.10449696E-03   4.00051535E-04   1.60475710E-05   5.11929643E-04   5.77336424E-05   1.99850635E-05  
  89               8.44041024E+01   2.50360804E+03   8.36216163E-01   1.60048203E-01   2.52715565E-03   3.99612761E-04   1.53401467E-05   5.12278495E-04   5.75878891E-05   1.98317496E-05  
  90               9.24211454E+01   2.55729400E+03   8.35744491E-01   1.60006995E-01   3.04038217E-03   3.99271513E-04   1.47077887E-05   5.12487101E-04   5.74226999E-05   1.96551873E-05  
  91               1.01512351E+02   2.61278304E+03   8.35188986E-01   1.59958565E-01   3.64450308E-03   3.99099613E-04   1.42100302E-05   5.12489705E-04   5.72336558E-05   1.94603608E-05  
  92               1.11818478E+02   2.67110100E+03   8.34522622E-01   1.59900533E-01   4.36897905E-03   3.99048402E-04   1.37823941E-05   5.12333917E-04   5.70201043E-05   1.92412788E-05  
  93               1.23503960E+02   2.73090279E+03   8.33750464E-01   1.59833375E-01   5.20818157E-03   3.99198797E-04   1.34854682E-05   5.11951891E-04   5.67767261E-05   1.90059574E-05  
  94               1.36758132E+02   2.79346165E+03   8.32836326E-01   1.59753912E-01   6.20152298E-03   3.99505920E-04   1.32518625E-05   5.11387868E-04   5.65021527E-05   1.87471532E-05  
  95               1.51796727E+02   2.85718871E+03   8.31795479E-01   1.59663513E-01   7.33225957E-03   4.00062406E-04   1.31457235E-05   5.10570090E-04   5.61901206E-05   1.84764438E-05  
  96               1.68864271E+02   2.92365211E+03   8.30579376E-01   1.59557922E-01   8.65324303E-03   4.00825805E-04   1.30948948E-05   5.09539355E-04   5.58382218E-05   1.81845230E-05  
  97               1.88237569E+02   2.99097757E+03   8.29219488E-01   1.59439923E-01   1.01300948E-02   4.01900584E-04   1.31692872E-05   5.08218773E-04   5.54389367E-05   1.78866920E-05  
  98               2.10225094E+02   3.06095706E+03   8.27654054E-01   1.59304110E-01   1.18300235E-02   4.03246964E-04   1.32945729E-05   5.06641870E-04   5.49875951E-05   1.75715085E-05  
  99               2.35127179E+02   3.13126579E+03   8.25942202E-01   1.59155679E-01   1.36885726E-02   4.04972355E-04   1.35475887E-05   5.04730445E-04   5.44755073E-05   1.72584819E-05  
  100              2.63259570E+02   3.20380857E+03   8.24011140E-01   1.58988259E-01   1.57849524E-02   4.07024647E-04   1.38492753E-05   5.02516314E-04   5.38944651E-05   1.69339712E-05  
  101              2.94961915E+02   3.27619751E+03   8.21943643E-01   1.58809105E-01   1.80290099E-02   4.09494843E-04   1.42755655E-05   4.99926275E-04   5.32323649E-05   1.66183985E-05  
