# ATMO chemical composition profiles
# Chemical abundances given as mole fraction for the 8 most abundant species
# Model Level      Pressure [Ba]    Temperature [K]  H2               He               CH4              H2O              NH3              H2S              H                CO              
  1                1.00000000E-05   4.98137584E+01   8.38831864E-01   1.60608967E-01   5.31825903E-04   1.16724492E-17   5.30210947E-08   2.30013141E-05   3.16582836E-109  7.37167885E-105 
  2                1.46337620E-03   6.77020554E+01   8.38831864E-01   1.60608967E-01   5.31825903E-04   1.09912663E-17   5.30210947E-08   2.30013141E-05   1.20214747E-109  2.45735097E-105 
  3                3.13113892E-03   8.04704048E+01   8.38831864E-01   1.60608967E-01   5.31825903E-04   1.06436631E-17   5.30210947E-08   2.30013141E-05   1.94215177E-110  1.33755033E-109 
  4                4.96827399E-03   8.64465715E+01   8.38831864E-01   1.60608967E-01   5.31825903E-04   1.09025885E-17   5.30210947E-08   2.30013141E-05   1.46756805E-110  3.74363373E-110 
  5                7.03862635E-03   9.40126998E+01   8.38831680E-01   1.60608932E-01   5.31825786E-04   1.07633509E-17   5.32732567E-08   2.30013091E-05   1.21548419E-110  1.62919287E-110 
  6                9.39497201E-03   9.96630475E+01   8.38830436E-01   1.60608694E-01   5.31824997E-04   2.45510370E-16   2.74447007E-07   2.30012750E-05   6.67739550E-103  3.80296095E-102 
  7                1.20325536E-02   1.07959845E+02   8.38820578E-01   1.60606806E-01   5.31818748E-04   5.10691040E-15   1.76856276E-06   2.30010047E-05   6.04474967E-97   1.48004590E-95  
  8                1.46032205E-02   1.14513221E+02   8.38810905E-01   1.60604954E-01   5.31812615E-04   4.67421419E-14   1.35197180E-05   2.30007394E-05   1.02185205E-92   7.21837158E-91  
  9                1.66853422E-02   1.19666802E+02   8.38778102E-01   1.60598674E-01   5.31791817E-04   1.88101697E-13   2.50757985E-05   2.29998399E-05   2.77057761E-90   3.50111088E-88  
  10               1.82538606E-02   1.22849784E+02   8.38753912E-01   1.60594042E-01   5.31776481E-04   8.91693969E-13   6.41704288E-05   2.29991766E-05   2.32202025E-88   8.95888797E-86  
  11               1.93982279E-02   1.25481423E+02   8.38729723E-01   1.60589411E-01   5.31761144E-04   1.56074033E-12   9.30077674E-05   2.29985133E-05   4.54098804E-87   1.28598851E-84  
  12               2.04342396E-02   1.27294118E+02   8.38729723E-01   1.60589411E-01   5.31761144E-04   4.51900971E-12   1.21819259E-04   2.29985133E-05   1.66489596E-85   1.33036918E-82  
  13               2.14953018E-02   1.29604794E+02   8.38729723E-01   1.60589411E-01   5.31761144E-04   6.92419237E-12   1.21819259E-04   2.29985133E-05   3.82151804E-84   2.21552789E-81  
  14               2.27449238E-02   1.31662761E+02   8.38729723E-01   1.60589411E-01   5.31761144E-04   2.40978378E-11   1.21819259E-04   2.29985133E-05   2.56761937E-82   5.21548606E-79  
  15               2.42159090E-02   1.34562487E+02   8.38729722E-01   1.60589411E-01   5.31761144E-04   3.89938326E-11   1.21819259E-04   2.29985133E-05   1.13530517E-80   1.53739771E-77  
  16               2.59465994E-02   1.37264747E+02   8.38729722E-01   1.60589410E-01   5.31761144E-04   1.73488391E-10   1.21819259E-04   2.29985133E-05   1.50948292E-78   8.96747145E-75  
  17               2.79817458E-02   1.40930658E+02   8.38729722E-01   1.60589410E-01   5.31761144E-04   2.93505506E-10   1.21819259E-04   2.29985133E-05   1.24788429E-76   4.55683614E-73  
  18               3.03735645E-02   1.44403020E+02   8.38729721E-01   1.60589410E-01   5.31761143E-04   7.28695638E-10   1.21819259E-04   2.29985133E-05   2.80904030E-74   1.84296632E-70  
  19               3.31829191E-02   1.48909832E+02   8.38729715E-01   1.60589409E-01   5.31761139E-04   1.89833768E-09   1.21819258E-04   2.29985131E-05   3.73543494E-72   4.05835433E-68  
  20               3.64807059E-02   1.53224275E+02   8.38729709E-01   1.60589408E-01   5.31761136E-04   9.40522231E-09   1.21819257E-04   2.29985130E-05   3.99660526E-70   1.47285925E-65  
  21               4.03503378E-02   1.57592383E+02   8.38729681E-01   1.60589403E-01   5.31761118E-04   1.66217691E-08   1.21819253E-04   2.29985122E-05   1.59428861E-68   3.78381614E-64  
  22               4.48898409E-02   1.61216473E+02   8.38729658E-01   1.60589398E-01   5.31761104E-04   4.97426823E-08   1.21819250E-04   2.29985116E-05   8.40818951E-67   5.32352214E-62  
  23               5.02132010E-02   1.65328517E+02   8.38729556E-01   1.60589379E-01   5.31761039E-04   7.66143273E-08   1.21819235E-04   2.29985088E-05   2.34610864E-65   9.83799592E-61  
  24               5.64526216E-02   1.68933290E+02   8.38729477E-01   1.60589363E-01   5.31760989E-04   1.98181550E-07   1.21819224E-04   2.29985066E-05   7.93335821E-64   7.52974746E-59  
  25               6.37623943E-02   1.72947974E+02   8.38729147E-01   1.60589300E-01   5.31760779E-04   2.93268035E-07   1.21819176E-04   2.29984976E-05   1.69506089E-62   1.08894260E-57  
  26               7.23225351E-02   1.76581004E+02   8.38728896E-01   1.60589252E-01   5.31760621E-04   6.86691785E-07   1.21819139E-04   2.29984907E-05   4.09756418E-61   5.31222659E-56  
  27               8.23433928E-02   1.80555121E+02   8.38727803E-01   1.60589043E-01   5.31759928E-04   9.86324305E-07   1.21818980E-04   2.29984607E-05   7.54733127E-60   6.70681740E-55  
  28               9.40703149E-02   1.84334501E+02   8.38726961E-01   1.60588882E-01   5.31759393E-04   2.28919853E-06   1.21818858E-04   2.29984376E-05   1.64007346E-58   2.96621356E-53  
  29               1.07788187E-01   1.88531788E+02   8.38722996E-01   1.60588123E-01   5.31756879E-04   3.29703137E-06   1.21818282E-04   2.29983289E-05   3.60474337E-57   4.38812429E-52  
  30               1.23820935E-01   1.92930466E+02   8.38719873E-01   1.60587525E-01   5.31754899E-04   8.02397547E-06   1.21817829E-04   2.29982433E-05   9.62807106E-56   2.53942427E-50  
  31               1.42540527E-01   1.97843315E+02   8.38701619E-01   1.60584030E-01   5.31743327E-04   1.17624334E-05   1.21815177E-04   2.29977427E-05   2.42463790E-54   4.24243831E-49  
  32               1.64366396E-01   2.02903807E+02   8.38686489E-01   1.60581133E-01   5.31733734E-04   3.35220518E-05   1.21812980E-04   2.29973279E-05   6.81075972E-53   3.22339129E-47  
  33               1.89749355E-01   2.08422189E+02   8.38631086E-01   1.60570525E-01   5.31698608E-04   5.15908182E-05   1.21804933E-04   2.29958087E-05   4.15588664E-51   1.21757081E-45  
  34               2.19160813E-01   2.15646671E+02   8.38431936E-01   1.60532394E-01   5.31572346E-04   1.17591785E-04   1.21776008E-04   2.29903479E-05   8.20276464E-49   4.05938801E-43  
  35               2.52536078E-01   2.25632502E+02   8.38232787E-01   1.60494264E-01   5.31446084E-04   3.55033217E-04   1.21747083E-04   2.29848871E-05   1.13663372E-46   1.19862448E-40  
  36               2.89498197E-01   2.35794034E+02   8.38073911E-01   1.60463844E-01   5.31345355E-04   5.92445461E-04   1.21724007E-04   2.29805306E-05   1.04140975E-44   6.74815741E-39  
  37               3.30656114E-01   2.45943273E+02   8.38073911E-01   1.60463844E-01   5.31345355E-04   7.81910472E-04   1.21724007E-04   2.29805306E-05   8.11774801E-43   3.26670100E-37  
  38               3.77444635E-01   2.56598542E+02   8.38073911E-01   1.60463844E-01   5.31345355E-04   7.81910472E-04   1.21724007E-04   2.29805306E-05   5.31784641E-41   1.35051811E-35  
  39               4.32013811E-01   2.67740329E+02   8.38073911E-01   1.60463844E-01   5.31345355E-04   7.81910472E-04   1.21724007E-04   2.29805306E-05   3.26916938E-39   5.28580649E-34  
  40               4.95639208E-01   2.79707194E+02   8.38073911E-01   1.60463844E-01   5.31345355E-04   7.81910472E-04   1.21724007E-04   2.29805306E-05   1.65968466E-37   1.74081451E-32  
  41               5.69770888E-01   2.92159424E+02   8.38073911E-01   1.60463844E-01   5.31345355E-04   7.81910472E-04   1.21724007E-04   2.29805306E-05   7.68402426E-36   5.28751995E-31  
  42               6.56106409E-01   3.05446909E+02   8.38073911E-01   1.60463844E-01   5.31345355E-04   7.81910463E-04   1.21724007E-04   2.29805306E-05   2.88134765E-34   1.32693402E-29  
  43               7.56608770E-01   3.19163853E+02   8.38073911E-01   1.60463844E-01   5.31345355E-04   7.81910430E-04   1.21724004E-04   2.29805306E-05   9.88538142E-33   3.07989624E-28  
  44               8.73541810E-01   3.33800131E+02   8.38073911E-01   1.60463844E-01   5.31345355E-04   7.81910169E-04   1.21723997E-04   2.29805306E-05   2.75464277E-31   5.92057615E-27  
  45               1.00955116E+00   3.48851016E+02   8.38073910E-01   1.60463844E-01   5.31345354E-04   7.81909914E-04   1.21723975E-04   2.29805305E-05   7.06460038E-30   1.05797280E-25  
  46               1.16772552E+00   3.64915395E+02   8.38073910E-01   1.60463844E-01   5.31345354E-04   7.81908362E-04   1.21723911E-04   2.29805305E-05   1.48726410E-28   1.58062038E-24  
  47               1.35160160E+00   3.81396653E+02   8.38073804E-01   1.60463823E-01   5.31345285E-04   7.81906940E-04   1.21723717E-04   2.29805276E-05   2.88490646E-27   2.19651433E-23  
  48               1.56514863E+00   3.98961128E+02   8.38073815E-01   1.60463813E-01   5.31345252E-04   7.81778104E-04   1.21723248E-04   2.29805261E-05   4.64957254E-26   2.57900487E-22  
  49               1.81280086E+00   4.16938387E+02   8.38073826E-01   1.60463802E-01   5.31345217E-04   7.81650642E-04   1.21722072E-04   2.29805246E-05   6.91602109E-25   2.82076090E-21  
  50               2.09972872E+00   4.36061690E+02   8.38073936E-01   1.60463811E-01   5.31345244E-04   7.81524695E-04   1.21719335E-04   2.29805258E-05   8.69549454E-24   2.64853462E-20  
  51               2.43185121E+00   4.55620985E+02   8.38073768E-01   1.60463784E-01   5.31345155E-04   7.81561005E-04   1.21713015E-04   2.29805219E-05   1.01020919E-22   2.31724990E-19  
  52               2.81565710E+00   4.76374811E+02   8.38072996E-01   1.60463756E-01   5.31345062E-04   7.82206927E-04   1.21699510E-04   2.29805179E-05   1.00544501E-21   1.76499638E-18  
  53               3.25824292E+00   4.97554443E+02   8.38071324E-01   1.60463551E-01   5.31344384E-04   7.82850562E-04   1.21671117E-04   2.29804886E-05   9.26039134E-21   1.25144352E-17  
  54               3.76765169E+00   5.19960799E+02   8.38070839E-01   1.60463454E-01   5.31344063E-04   7.82363466E-04   1.21615640E-04   2.29804747E-05   7.44116593E-20   7.80516001E-17  
  55               4.35413682E+00   5.42834796E+02   8.38070999E-01   1.60463349E-01   5.31343715E-04   7.81266664E-04   1.21508937E-04   2.29804597E-05   5.58025731E-19   4.58459445E-16  
  56               5.02912531E+00   5.67045774E+02   8.38072134E-01   1.60463406E-01   5.31343904E-04   7.80170661E-04   1.21316304E-04   2.29804678E-05   3.70325238E-18   2.40902322E-15  
  57               5.80467194E+00   5.91740368E+02   8.38072359E-01   1.60463351E-01   5.31343723E-04   7.80170423E-04   1.20975535E-04   2.29804600E-05   2.29699781E-17   1.19000206E-14  
  58               6.69354621E+00   6.17791868E+02   8.38072733E-01   1.60463261E-01   5.31343422E-04   7.80170042E-04   1.20410866E-04   2.29804470E-05   1.27320291E-16   5.30191876E-14  
  59               7.71011913E+00   6.44283171E+02   8.38073337E-01   1.60463114E-01   5.31342936E-04   7.80169455E-04   1.19497641E-04   2.29804260E-05   6.64159941E-16   2.23264712E-13  
  60               8.87421876E+00   6.72239501E+02   8.38074251E-01   1.60462892E-01   5.31342201E-04   7.80168624E-04   1.18116115E-04   2.29803943E-05   3.14950316E-15   8.60565488E-13  
  61               1.02081277E+01   7.00754259E+02   8.38075591E-01   1.60462567E-01   5.31341119E-04   7.80167520E-04   1.16088137E-04   2.29803476E-05   1.41615680E-14   3.15494176E-12  
  62               1.17360284E+01   7.30875145E+02   8.38077416E-01   1.60462122E-01   5.31339637E-04   7.80166238E-04   1.13322577E-04   2.29802839E-05   5.84879906E-14   1.06844254E-11  
  63               1.34842778E+01   7.61583212E+02   8.38079803E-01   1.60461536E-01   5.31337671E-04   7.80164968E-04   1.09691780E-04   2.29802000E-05   2.29811504E-13   3.45073483E-11  
  64               1.54838269E+01   7.93977589E+02   8.38082652E-01   1.60460813E-01   5.31335201E-04   7.80164132E-04   1.05272336E-04   2.29800963E-05   8.39820304E-13   1.04033111E-10  
  65               1.77796616E+01   8.27130705E+02   8.38085938E-01   1.60459953E-01   5.31332149E-04   7.80164310E-04   1.00085308E-04   2.29799728E-05   2.94467683E-12   3.01152779E-10  
  66               2.04183001E+01   8.62248359E+02   8.38089544E-01   1.60459017E-01   5.31328522E-04   7.80166590E-04   9.44208452E-05   2.29798381E-05   9.66227756E-12   8.18364357E-10  
  67               2.34411942E+01   8.98112383E+02   8.38093410E-01   1.60458039E-01   5.31323955E-04   7.80171869E-04   8.84312346E-05   2.29828780E-05   3.02481203E-11   2.12586924E-09  
  68               2.68796810E+01   9.35686518E+02   8.38097268E-01   1.60457078E-01   5.31317704E-04   7.80180539E-04   8.25041398E-05   2.29947130E-05   8.81818484E-11   5.16604475E-09  
  69               3.07572913E+01   9.73519497E+02   8.38100911E-01   1.60456129E-01   5.31307731E-04   7.80191361E-04   7.67533593E-05   2.30321006E-05   2.44141965E-10   1.19542624E-08  
  70               3.51173076E+01   1.01275314E+03   8.38103876E-01   1.60455187E-01   5.31290496E-04   7.80200343E-04   7.14481585E-05   2.31336046E-05   6.33033098E-10   2.60026870E-08  
  71               4.00049964E+01   1.05213804E+03   8.38106016E-01   1.60454263E-01   5.31259348E-04   7.80187959E-04   6.65653699E-05   2.35567048E-05   1.56232611E-09   5.39793862E-08  
  72               4.54538325E+01   1.09269187E+03   8.38107894E-01   1.60453434E-01   5.31204581E-04   7.80175482E-04   6.22448442E-05   2.39542399E-05   3.62669954E-09   1.05821621E-07  
  73               5.14899635E+01   1.13305323E+03   8.38109885E-01   1.60452729E-01   5.31109346E-04   7.80150584E-04   5.83952595E-05   2.42844499E-05   8.02700771E-09   1.98425292E-07  
  74               5.81409875E+01   1.17425133E+03   8.38112166E-01   1.60452137E-01   5.30952029E-04   7.80107191E-04   5.50785476E-05   2.42842183E-05   1.68084265E-08   3.53296216E-07  
  75               6.54498586E+01   1.21504358E+03   8.38114281E-01   1.60451577E-01   5.30697167E-04   7.79982741E-04   5.21700010E-05   2.42839069E-05   3.38101078E-08   6.05497925E-07  
  76               7.34989438E+01   1.25679740E+03   8.38116262E-01   1.60451040E-01   5.30305259E-04   7.79735653E-04   4.96915954E-05   2.42834785E-05   6.50276360E-08   9.94315181E-07  
  77               8.23551819E+01   1.29832355E+03   8.38118255E-01   1.60450487E-01   5.29714807E-04   7.79304413E-04   4.75301120E-05   2.42828710E-05   1.20919834E-07   1.58080253E-06  
  78               9.20669163E+01   1.34072034E+03   8.38120309E-01   1.60449902E-01   5.28869419E-04   7.78628137E-04   4.57071606E-05   2.42820199E-05   2.16209985E-07   2.42089526E-06  
  79               1.02666507E+02   1.38271668E+03   8.38122569E-01   1.60449243E-01   5.27684668E-04   7.77621255E-04   4.41372620E-05   2.42808186E-05   3.74748019E-07   3.59823428E-06  
  80               1.14206442E+02   1.42532088E+03   8.38125081E-01   1.60448490E-01   5.26098664E-04   7.76218310E-04   4.28347085E-05   2.42791384E-05   6.27678705E-07   5.17386790E-06  
  81               1.26751131E+02   1.46755229E+03   8.38127965E-01   1.60447595E-01   5.24011740E-04   7.74323401E-04   4.17303625E-05   2.42767217E-05   1.02374379E-06   7.24610562E-06  
  82               1.40404884E+02   1.51042356E+03   8.38131211E-01   1.60446535E-01   5.21370632E-04   7.71892594E-04   4.08320760E-05   2.42731246E-05   1.62340800E-06   9.86677906E-06  
  83               1.55248818E+02   1.55309000E+03   8.38134672E-01   1.60445228E-01   5.18086037E-04   7.68849466E-04   4.00907810E-05   2.42673341E-05   2.51511969E-06   1.31229677E-05  
  84               1.71317415E+02   1.59616524E+03   8.38138294E-01   1.60443711E-01   5.14146056E-04   7.65413721E-04   3.95129618E-05   2.42489001E-05   3.79919261E-06   1.70247071E-05  
  85               1.88612499E+02   1.63883220E+03   8.38136655E-01   1.60440887E-01   5.09526460E-04   7.61277875E-04   3.90653331E-05   2.42300169E-05   5.60820500E-06   2.15900616E-05  
  86               2.07108213E+02   1.68137365E+03   8.38129077E-01   1.60437794E-01   5.04027922E-04   7.63155058E-04   3.87484025E-05   2.39358625E-05   8.08215078E-06   2.70194162E-05  
  87               2.26795604E+02   1.72329414E+03   8.38121407E-01   1.60434408E-01   4.97910005E-04   7.64204872E-04   3.85378881E-05   2.36566707E-05   1.13986132E-05   3.30503263E-05  
  88               2.47695300E+02   1.76487928E+03   8.38118808E-01   1.60431848E-01   4.91271715E-04   7.64841572E-04   3.84305256E-05   2.33796846E-05   1.57426146E-05   3.95848892E-05  
  89               2.69874901E+02   1.80589013E+03   8.38121308E-01   1.60429067E-01   4.84396819E-04   7.58609444E-04   3.84075966E-05   2.33777880E-05   2.13728684E-05   4.63321546E-05  
  90               2.93566381E+02   1.84699959E+03   8.38121352E-01   1.60425914E-01   4.77141582E-04   7.52670154E-04   3.84675613E-05   2.33656429E-05   2.85514578E-05   5.34320183E-05  
  91               3.18830256E+02   1.88778715E+03   8.38116783E-01   1.60422173E-01   4.69470358E-04   7.47922573E-04   3.85954793E-05   2.33329017E-05   3.76121352E-05   6.09153286E-05  
  92               3.45622770E+02   1.92850106E+03   8.38104015E-01   1.60417521E-01   4.61367405E-04   7.46018462E-04   3.87935828E-05   2.32629798E-05   4.88592602E-05   6.87941741E-05  
  93               3.74131680E+02   1.96888996E+03   8.38077724E-01   1.60411383E-01   4.52601647E-04   7.49358850E-04   3.90474711E-05   2.31326816E-05   6.26757188E-05   7.72948959E-05  
  94               4.04222257E+02   2.00912159E+03   8.38034015E-01   1.60403581E-01   4.42971671E-04   7.60908071E-04   3.93589150E-05   2.29214420E-05   7.92977120E-05   8.66196955E-05  
  95               4.35660062E+02   2.04840163E+03   8.37979889E-01   1.60395072E-01   4.32634936E-04   7.78264484E-04   3.97152177E-05   2.26648237E-05   9.91505463E-05   9.66120216E-05  
  96               4.68822238E+02   2.08764521E+03   8.37933858E-01   1.60387546E-01   4.23005501E-04   7.89767342E-04   4.01188611E-05   2.24744436E-05   1.22364598E-04   1.05860165E-04  
  97               5.03152974E+02   2.12571997E+03   8.37902551E-01   1.60381718E-01   4.14621952E-04   7.91820673E-04   4.05517306E-05   2.23816316E-05   1.48897034E-04   1.13828868E-04  
  98               5.37390101E+02   2.16182800E+03   8.37882044E-01   1.60377050E-01   4.07677103E-04   7.85332807E-04   4.10122734E-05   2.23699602E-05   1.78534998E-04   1.20327187E-04  
  99               5.72387402E+02   2.19662888E+03   8.37859067E-01   1.60372509E-01   4.01109047E-04   7.79263393E-04   4.14938063E-05   2.23559952E-05   2.11919594E-04   1.26410013E-04  
  100              6.09648278E+02   2.23201540E+03   8.37816965E-01   1.60364969E-01   3.94738449E-04   7.73448788E-04   4.20195723E-05   2.23390489E-05   2.50619019E-04   1.32227170E-04  
  101              6.51262946E+02   2.26925167E+03   8.37756950E-01   1.60354460E-01   3.88388253E-04   7.67701140E-04   4.25794385E-05   2.23197351E-05   2.93585326E-04   1.37966244E-04  
