# ATMO chemical composition profiles
# Chemical abundances given as mole fraction for the 8 most abundant species
# Model Level      Pressure [Ba]    Temperature [K]  H2               He               H                CO               H2O              N2               Mg               Fe              
  1                1.00000000E-05   6.33879498E+02   8.38830510E-01   1.60280092E-01   1.40768725E-13   5.06728624E-04   2.65700902E-04   6.07916086E-05   0.00000000E+00   0.00000000E+00  
  2                2.75691468E-05   7.29215384E+02   8.38852480E-01   1.60273298E-01   2.00430444E-11   5.28798510E-04   2.48776209E-04   6.07892051E-05   0.00000000E+00   0.00000000E+00  
  3                4.72916015E-05   7.57935687E+02   8.38850674E-01   1.60273075E-01   6.07965599E-11   5.29237095E-04   2.49168864E-04   6.07889985E-05   0.00000000E+00   0.00000000E+00  
  4                6.94037050E-05   7.93648153E+02   8.38850435E-01   1.60272937E-01   2.43025842E-10   5.29760480E-04   2.49542785E-04   6.07889443E-05   0.00000000E+00   0.00000000E+00  
  5                9.44977397E-05   8.06876368E+02   8.38850277E-01   1.60272936E-01   3.60710334E-10   5.29805921E-04   2.49700724E-04   6.07888189E-05   0.00000000E+00   1.17469041E-15  
  6                1.23148229E-04   8.34503202E+02   8.38850078E-01   1.60272878E-01   9.41199003E-10   5.30025487E-04   2.49954770E-04   6.07887972E-05   0.00000000E+00   1.03945507E-14  
  7                1.55932555E-04   8.43718233E+02   8.38849997E-01   1.60272882E-01   1.18498087E-09   5.30036668E-04   2.50031499E-04   6.07886720E-05   0.00000000E+00   1.03945495E-14  
  8                1.93517913E-04   8.68412885E+02   8.38849849E-01   1.60272848E-01   2.60962594E-09   5.30168685E-04   2.50209500E-04   6.07886615E-05   0.00000000E+00   5.97939464E-14  
  9                2.36621281E-04   8.76088233E+02   8.38849799E-01   1.60272851E-01   3.08764544E-09   5.30173162E-04   2.50255134E-04   6.07885324E-05   0.00000000E+00   5.97939371E-14  
  10               2.86079695E-04   8.99576418E+02   8.38849684E-01   1.60272828E-01   6.21372537E-09   5.30264464E-04   2.50387022E-04   6.07885280E-05   0.00000000E+00   2.75756034E-13  
  11               3.42809103E-04   9.06622013E+02   8.38849648E-01   1.60272831E-01   7.14652152E-09   5.30267442E-04   2.50417861E-04   6.07883930E-05   1.01411395E-15   2.75755976E-13  
  12               4.07877064E-04   9.29651909E+02   8.38849552E-01   1.60272813E-01   1.35785813E-08   5.30335007E-04   2.50518940E-04   6.07883919E-05   2.33865285E-15   1.10748712E-12  
  13               4.82526687E-04   9.36431556E+02   8.38849524E-01   1.60272815E-01   1.53673773E-08   5.30337494E-04   2.50541316E-04   6.07882491E-05   6.69039135E-15   1.10748681E-12  
  14               5.68240151E-04   9.59354371E+02   8.38849436E-01   1.60272801E-01   2.79819461E-08   5.30389396E-04   2.50620310E-04   6.07882485E-05   1.42759841E-14   4.06096131E-12  
  15               6.66660853E-04   9.66240501E+02   8.38849411E-01   1.60272802E-01   3.15020161E-08   5.30392096E-04   2.50637888E-04   6.07880969E-05   3.90959765E-14   4.06095981E-12  
  16               7.79685826E-04   9.89480731E+02   8.38849320E-01   1.60272790E-01   5.57606526E-08   5.30433360E-04   2.50700997E-04   6.07880965E-05   7.85554670E-14   1.41515788E-11  
  17               9.09416554E-04   9.96784762E+02   8.38849294E-01   1.60272790E-01   6.29290887E-08   5.30436566E-04   2.50715680E-04   6.07879364E-05   2.13511247E-13   1.41515719E-11  
  18               1.05826653E-03   1.02062329E+03   8.38849185E-01   1.60272777E-01   1.09140964E-07   5.30470000E-04   2.50766756E-04   6.07879355E-05   4.08111777E-13   4.78782507E-11  
  19               1.22889610E-03   1.02856155E+03   8.38849151E-01   1.60272776E-01   1.23981950E-07   5.30473673E-04   2.50779432E-04   6.07877675E-05   1.12201946E-12   4.78782194E-11  
  20               1.42434632E-03   1.05319147E+03   8.38849003E-01   1.60272761E-01   2.11592625E-07   5.30501041E-04   2.50821099E-04   6.07877652E-05   2.04896027E-12   1.58996865E-10  
  21               1.64794061E-03   1.06195811E+03   8.38848953E-01   1.60272758E-01   2.42635270E-07   5.30505068E-04   2.50832261E-04   6.07875900E-05   5.77187437E-12   1.58996727E-10  
  22               1.90346489E-03   1.08753182E+03   8.38848729E-01   1.60272736E-01   4.08479248E-07   5.30527582E-04   2.50866632E-04   6.07875851E-05   1.67832958E-11   5.20410718E-10  
  23               2.19503032E-03   1.09721219E+03   8.38848645E-01   1.60272730E-01   4.72725729E-07   5.30531726E-04   2.50876439E-04   6.07874025E-05   2.92206194E-11   5.20410114E-10  
  24               2.52729917E-03   1.12382736E+03   8.38848284E-01   1.60272696E-01   7.85666909E-07   5.30550271E-04   2.50906294E-04   6.07873926E-05   8.11211862E-11   1.68881800E-09  
  25               2.90542863E-03   1.13458390E+03   8.38848128E-01   1.60272682E-01   9.18755258E-07   5.30554412E-04   2.50915016E-04   6.07872027E-05   1.46266834E-10   1.68881537E-09  
  26               3.33574499E-03   1.16246161E+03   8.38847503E-01   1.60272627E-01   1.51169621E-06   5.30569736E-04   2.50949487E-04   6.07871841E-05   3.88893256E-10   5.49661511E-09  
  27               3.82511394E-03   1.17458484E+03   8.38847175E-01   1.60272594E-01   1.79155942E-06   5.30573804E-04   2.50957663E-04   6.07869845E-05   7.33710726E-10   5.49660335E-09  
  28               4.38125018E-03   1.20405151E+03   8.38846011E-01   1.60272494E-01   2.92909129E-06   5.30586442E-04   2.51034182E-04   6.07869499E-05   1.87684290E-09   1.81239400E-08  
  29               5.01235983E-03   1.21790890E+03   8.38845173E-01   1.60272396E-01   3.52995010E-06   5.30590253E-04   2.51053668E-04   6.07867265E-05   3.74810643E-09   1.81238825E-08  
  30               5.72720002E-03   1.24936515E+03   8.38842733E-01   1.60272202E-01   5.75641522E-06   5.30600431E-04   2.51408179E-04   6.07866593E-05   9.24831556E-09   6.15682667E-08  
  31               6.53494477E-03   1.26546224E+03   8.38839942E-01   1.60271813E-01   7.08636579E-06   5.30603205E-04   2.51499472E-04   6.07863329E-05   1.98453642E-08   6.15679083E-08  
  32               7.44252861E-03   1.29945016E+03   8.38833603E-01   1.60271386E-01   1.15807899E-05   5.30610361E-04   2.53601557E-04   6.07861864E-05   4.72080260E-08   2.19575016E-07  
  33               8.45769051E-03   1.31844985E+03   8.38826000E-01   1.60270342E-01   1.46437690E-05   5.30610754E-04   2.54216358E-04   6.07856300E-05   1.10568727E-07   2.19572594E-07  
  34               9.58244640E-03   1.35577316E+03   8.38799868E-01   1.60267080E-01   2.41463906E-05   5.30606417E-04   2.59140504E-04   6.07844280E-05   3.52502834E-07   8.54927058E-07  
  35               1.07830559E-02   1.37904854E+03   8.38772723E-01   1.60265571E-01   3.18404089E-05   5.30600406E-04   2.76394209E-04   6.07837514E-05   4.54417730E-07   8.54913915E-07  
  36               1.20530819E-02   1.42220724E+03   8.38741672E-01   1.60262511E-01   5.45300739E-05   5.30596785E-04   2.80150283E-04   6.07826869E-05   2.95167341E-06   5.05482178E-06  
  37               1.33515301E-02   1.46278102E+03   8.38665565E-01   1.60254089E-01   8.77250966E-05   5.30570809E-04   2.95942742E-04   6.07795689E-05   1.32771232E-05   5.05450838E-06  
  38               1.46113277E-02   1.49910879E+03   8.38555322E-01   1.60244306E-01   1.31208256E-04   5.30533928E-04   3.33954624E-04   6.07759216E-05   3.81671495E-05   1.81210360E-05  
  39               1.57678381E-02   1.53031274E+03   8.38409984E-01   1.60229608E-01   1.82446446E-04   5.30479193E-04   3.77322138E-04   6.07703944E-05   6.67115519E-05   1.81192191E-05  
  40               1.68512658E-02   1.55776578E+03   8.38356154E-01   1.60224899E-01   2.41013526E-04   5.30467332E-04   3.77202367E-04   6.07686297E-05   6.67043741E-05   5.55497140E-05  
  41               1.79242850E-02   1.58361269E+03   8.38292446E-01   1.60219326E-01   3.10327998E-04   5.30452109E-04   3.77084896E-04   6.07665313E-05   6.66969672E-05   5.55473398E-05  
  42               1.91192171E-02   1.61080194E+03   8.38209073E-01   1.60212036E-01   4.01035403E-04   5.30431096E-04   3.76955798E-04   6.07637757E-05   6.66883761E-05   5.55443205E-05  
  43               2.04455437E-02   1.63942987E+03   8.38099512E-01   1.60202457E-01   5.20231766E-04   5.30402410E-04   3.76813189E-04   6.07601477E-05   6.66783307E-05   5.55404533E-05  
  44               2.19114898E-02   1.66918685E+03   8.37957402E-01   1.60190036E-01   6.74831281E-04   5.30364173E-04   3.76657878E-04   6.07554348E-05   6.66666102E-05   5.55355452E-05  
  45               2.35216432E-02   1.69997332E+03   8.37774131E-01   1.60174019E-01   8.74192108E-04   5.30313887E-04   3.76491111E-04   6.07493523E-05   6.66529047E-05   5.55293337E-05  
  46               2.52708894E-02   1.73118286E+03   8.37543860E-01   1.60153899E-01   1.12464532E-03   5.30249819E-04   3.76320704E-04   6.07417049E-05   6.66370824E-05   5.55216486E-05  
  47               2.71261383E-02   1.76221286E+03   8.37262399E-01   1.60129313E-01   1.43074472E-03   5.30170743E-04   3.76169636E-04   6.07323571E-05   6.66191462E-05   5.55123782E-05  
  48               2.90999322E-02   1.79293666E+03   8.36923976E-01   1.60099757E-01   1.79892627E-03   5.30075017E-04   3.75946369E-04   6.07211158E-05   6.65988810E-05   5.55013471E-05  
  49               3.12830638E-02   1.82467348E+03   8.36501753E-01   1.60062889E-01   2.25827129E-03   5.29954979E-04   3.75695453E-04   6.07070918E-05   6.65749695E-05   5.54877078E-05  
  50               3.36957637E-02   1.85709651E+03   8.35983400E-01   1.60017634E-01   2.82219328E-03   5.29807054E-04   3.75415451E-04   6.06898752E-05   6.65469688E-05   5.54710874E-05  
  51               3.63604232E-02   1.89026465E+03   8.35348830E-01   1.59962241E-01   3.51254306E-03   5.29625453E-04   3.75100815E-04   6.06688009E-05   6.65141127E-05   5.54508728E-05  
  52               3.93019072E-02   1.92382595E+03   8.34586080E-01   1.59895668E-01   4.34233204E-03   5.29406713E-04   3.74750155E-04   6.06434711E-05   6.64759753E-05   5.54267032E-05  
  53               4.25479922E-02   1.95780774E+03   8.33674449E-01   1.59816112E-01   5.33408104E-03   5.29144870E-04   3.74357598E-04   6.06131996E-05   6.64317713E-05   5.53979476E-05  
  54               4.61296146E-02   1.99191979E+03   8.32603725E-01   1.59722685E-01   6.49889523E-03   5.28836977E-04   3.73921553E-04   6.05776461E-05   6.63811314E-05   5.53642981E-05  
  55               5.00812991E-02   2.02620579E+03   8.31353864E-01   1.59613639E-01   7.85857833E-03   5.28477262E-04   3.73435753E-04   6.05361453E-05   6.63232913E-05   5.53251436E-05  
  56               5.44420119E-02   2.06037867E+03   8.29921442E-01   1.59488678E-01   9.41685354E-03   5.28064741E-04   3.72899891E-04   6.04885797E-05   6.62581262E-05   5.52803815E-05  
  57               5.92566109E-02   2.09447328E+03   8.28291849E-01   1.59346531E-01   1.11896114E-02   5.27595209E-04   3.72308549E-04   6.04344621E-05   6.61850646E-05   5.52295650E-05  
  58               6.45747691E-02   2.12839190E+03   8.26460041E-01   1.59186758E-01   1.31823391E-02   5.27067220E-04   3.71659222E-04   6.03736198E-05   6.61038969E-05   5.51725388E-05  
  59               7.04512567E-02   2.16219818E+03   8.24412719E-01   1.59008202E-01   1.54095004E-02   5.26476946E-04   3.70945821E-04   6.03056059E-05   6.60140952E-05   5.51088945E-05  
  60               7.69465352E-02   2.19575199E+03   8.22154661E-01   1.58811279E-01   1.78658986E-02   5.25825772E-04   3.70167994E-04   6.02305694E-05   6.59158111E-05   5.50387745E-05  
  61               8.41273945E-02   2.22909080E+03   8.19680126E-01   1.58595490E-01   2.05577756E-02   5.25112047E-04   3.69321166E-04   6.01483094E-05   6.58087931E-05   5.49619991E-05  
  62               9.20669996E-02   2.26218202E+03   8.16991970E-01   1.58361084E-01   2.34820259E-02   5.24336602E-04   3.68403295E-04   6.00589068E-05   6.56931103E-05   5.48786500E-05  
  63               1.00845664E-01   2.29499356E+03   8.14094765E-01   1.58108257E-01   2.66315472E-02   5.23500086E-04   3.67412378E-04   5.99624192E-05   6.55688096E-05   5.47887899E-05  
  64               1.10518685E-01   2.32736053E+03   8.11007979E-01   1.57839529E-01   2.99797875E-02   5.22610085E-04   3.73177154E-04   5.98597892E-05   6.54369750E-05   5.46932968E-05  
  65               1.21179782E-01   2.35932512E+03   8.07754172E-01   1.57555828E-01   3.35193464E-02   5.21671213E-04   3.72044702E-04   5.97513374E-05   6.52979440E-05   5.45924845E-05  
  66               1.32966953E-01   2.39107668E+03   8.04312528E-01   1.57255757E-01   3.72632336E-02   5.20678072E-04   3.70832101E-04   5.96365050E-05   6.51510194E-05   5.44858533E-05  
  67               1.45992049E-01   2.42261375E+03   8.00692323E-01   1.56940123E-01   4.12013558E-02   5.19633339E-04   3.69539372E-04   5.95155618E-05   6.49965032E-05   5.43736777E-05  
  68               1.60375389E-01   2.45394955E+03   7.96901387E-01   1.56609609E-01   4.53251981E-02   5.18539274E-04   3.68166038E-04   5.93887205E-05   6.48346453E-05   5.42561881E-05  
  69               1.76240766E-01   2.48503499E+03   7.92959488E-01   1.56265938E-01   4.96132540E-02   5.17401579E-04   3.66715996E-04   5.92565810E-05   6.46661442E-05   5.41339781E-05  
  70               1.93713372E-01   2.51590484E+03   7.88871015E-01   1.55909491E-01   5.40607505E-02   5.16221521E-04   3.65187869E-04   5.91192190E-05   6.44911438E-05   5.40071759E-05  
  71               2.12949558E-01   2.54653886E+03   7.84654134E-01   1.55541852E-01   5.86479251E-02   5.15004339E-04   3.63585413E-04   5.89771521E-05   6.43102642E-05   5.38763241E-05  
  72               2.34117178E-01   2.57701371E+03   7.80305904E-01   1.55162763E-01   6.33779767E-02   5.13749183E-04   3.61904822E-04   5.88301729E-05   6.41233544E-05   5.37413253E-05  
  73               2.57396154E-01   2.60725940E+03   7.75855912E-01   1.54774804E-01   6.82187209E-02   5.12464588E-04   3.60154650E-04   5.86791379E-05   6.39314560E-05   5.36030688E-05  
  74               2.82978634E-01   2.63736910E+03   7.71295350E-01   1.54377205E-01   7.31797388E-02   5.11148008E-04   3.58329278E-04   5.85235867E-05   6.37342100E-05   5.34612798E-05  
  75               3.11069207E-01   2.66727919E+03   7.66652862E-01   1.53972464E-01   7.82298695E-02   5.09807707E-04   3.56437649E-04   5.83642816E-05   6.35326278E-05   5.33168194E-05  
  76               3.41885283E-01   2.69708901E+03   7.61914546E-01   1.53559367E-01   8.33842363E-02   5.08439667E-04   3.54472455E-04   5.82005043E-05   6.33261738E-05   5.31692592E-05  
  77               3.75657704E-01   2.72672792E+03   7.57110781E-01   1.53140563E-01   8.86097918E-02   5.07052650E-04   3.52444058E-04   5.80329822E-05   6.31159270E-05   5.30195133E-05  
  78               4.12632064E-01   2.75627670E+03   7.52229654E-01   1.52715013E-01   9.39194950E-02   5.05643213E-04   3.50346227E-04   5.78609386E-05   6.29014315E-05   5.28672145E-05  
  79               4.53070336E-01   2.78566362E+03   7.47302534E-01   1.52285451E-01   9.92792196E-02   5.04220404E-04   3.48190588E-04   5.76850034E-05   6.26838026E-05   5.27133068E-05  
  80               4.97251945E-01   2.81496820E+03   7.42315633E-01   1.51850675E-01   1.04703965E-01   5.02780235E-04   3.45970465E-04   5.75041578E-05   6.24625199E-05   5.25573666E-05  
  81               5.45474951E-01   2.84412248E+03   7.37299768E-01   1.51413371E-01   1.10160207E-01   5.01331594E-04   3.43698127E-04   5.73188285E-05   6.22386770E-05   5.24003210E-05  
  82               5.98057807E-01   2.87321440E+03   7.32236194E-01   1.50971904E-01   1.15668334E-01   4.99869061E-04   3.41365020E-04   5.71275701E-05   6.20115768E-05   5.22415964E-05  
  83               6.55341313E-01   2.90217766E+03   7.27155505E-01   1.50528941E-01   1.21195066E-01   4.98401458E-04   3.38984092E-04   5.69305416E-05   6.17823010E-05   5.20821127E-05  
  84               7.17691705E-01   2.93109075E+03   7.22040121E-01   1.50082949E-01   1.26759522E-01   4.96923700E-04   3.36547430E-04   5.67259852E-05   6.15501944E-05   5.19213316E-05  
  85               7.85502868E-01   2.95989738E+03   7.16917819E-01   1.49636351E-01   1.32331486E-01   4.95443794E-04   3.34067482E-04   5.65136020E-05   6.13162299E-05   5.17600866E-05  
  86               8.59200242E-01   2.98866943E+03   7.11771865E-01   1.49187685E-01   1.37929160E-01   4.93956894E-04   3.31536808E-04   5.62911816E-05   6.10797791E-05   5.15978643E-05  
  87               9.39244220E-01   3.01736546E+03   7.06625296E-01   1.48738962E-01   1.43527479E-01   4.92469637E-04   3.28966317E-04   5.60577532E-05   6.08416350E-05   5.14353536E-05  
  88               1.02611642E+00   3.04604527E+03   7.01463591E-01   1.48288914E-01   1.49142238E-01   4.90977814E-04   3.26349654E-04   5.58105402E-05   6.06012536E-05   5.12721084E-05  
  89               1.12032731E+00   3.07467837E+03   6.96304549E-01   1.47839093E-01   1.54754070E-01   4.89486546E-04   3.23695798E-04   5.55476994E-05   6.03592474E-05   5.11086600E-05  
  90               1.22243333E+00   3.10330980E+03   6.91138222E-01   1.47388631E-01   1.60373795E-01   4.87992941E-04   3.21000589E-04   5.52657817E-05   6.01152322E-05   5.09446996E-05  
  91               1.33303975E+00   3.13192924E+03   6.85975569E-01   1.46938483E-01   1.65989484E-01   4.86500140E-04   3.18270032E-04   5.49617398E-05   5.98695619E-05   5.07805498E-05  
  92               1.45280671E+00   3.16057051E+03   6.80810855E-01   1.46488149E-01   1.71607375E-01   4.85006461E-04   3.15502007E-04   5.46311788E-05   5.96219909E-05   5.06160274E-05  
  93               1.58245201E+00   3.18924473E+03   6.75647005E-01   1.46037884E-01   1.77224278E-01   4.83512720E-04   3.12698681E-04   5.42694268E-05   5.93725761E-05   5.04512100E-05  
  94               1.72275721E+00   3.21797858E+03   6.70480826E-01   1.45587409E-01   1.82843661E-01   4.82017964E-04   3.09859124E-04   5.38707159E-05   5.91211531E-05   5.02859896E-05  
  95               1.87457254E+00   3.24680126E+03   6.65307930E-01   1.45136340E-01   1.88470289E-01   4.80520888E-04   3.06981693E-04   5.34282719E-05   5.88675125E-05   5.01202216E-05  
  96               2.03882517E+00   3.27571128E+03   6.60136287E-01   1.44685371E-01   1.94095486E-01   4.79023753E-04   3.04071170E-04   5.29350853E-05   5.86118739E-05   4.99541329E-05  
  97               2.21652316E+00   3.30475254E+03   6.54955471E-01   1.44233593E-01   1.99730582E-01   4.77523503E-04   3.01122641E-04   5.23818581E-05   5.83538079E-05   4.97873949E-05  
  98               2.40876595E+00   3.33390387E+03   6.49781564E-01   1.43782408E-01   2.05358075E-01   4.76024729E-04   2.98145291E-04   5.17599933E-05   5.80938080E-05   4.96204772E-05  
  99               2.61675058E+00   3.36322220E+03   6.44598703E-01   1.43330430E-01   2.10995209E-01   4.74522793E-04   2.95131112E-04   5.10572412E-05   5.78312478E-05   4.94528854E-05  
  100              2.84178360E+00   3.39267065E+03   6.39429684E-01   1.42879647E-01   2.16617175E-01   4.73024214E-04   2.92093122E-04   5.02633384E-05   5.75668414E-05   4.92852890E-05  
  101              3.08528794E+00   3.42232339E+03   6.34251365E-01   1.42428039E-01   2.22249132E-01   4.71522236E-04   2.89019027E-04   4.93625995E-05   5.72997040E-05   4.91169725E-05  
