# ATMO chemical composition profiles
# Chemical abundances given as mole fraction for the 8 most abundant species
# Model Level      Pressure [Ba]    Temperature [K]  H2               He               CH4              H2O              NH3              H                H2S              CO              
  1                1.00000000E-05   6.29852733E+01   8.38831383E-01   1.60608871E-01   5.31825586E-04   4.90818563E-17   6.32225119E-07   3.16582745E-109  2.30030265E-05   3.09974439E-104 
  2                6.83658485E-05   7.09137471E+01   8.38831383E-01   1.60608871E-01   5.31825586E-04   5.23357472E-17   6.32225119E-07   1.74030496E-109  2.30030265E-05   1.06350908E-104 
  3                1.40598320E-04   6.54363062E+01   8.38831383E-01   1.60608871E-01   5.31825586E-04   5.32644577E-17   6.32225119E-07   9.05074809E-110  2.30030265E-05   3.23252358E-106 
  4                2.29988618E-04   7.51282810E+01   8.38831383E-01   1.60608871E-01   5.31825586E-04   5.20082159E-17   6.32225119E-07   6.82478571E-110  2.30030265E-05   8.67179052E-107 
  5                3.39921054E-04   7.12775402E+01   8.38831383E-01   1.60608871E-01   5.31825586E-04   5.27233465E-17   6.32225119E-07   5.54323999E-110  2.30030265E-05   3.50990424E-107 
  6                4.73987176E-04   8.14054518E+01   8.38831383E-01   1.60608871E-01   5.31825586E-04   5.38158790E-17   6.32225119E-07   4.66781381E-110  2.30030265E-05   1.73417442E-107 
  7                6.34278879E-04   8.11354879E+01   8.38831383E-01   1.60608871E-01   5.31825586E-04   5.50716274E-17   6.32225119E-07   4.01582283E-110  2.30030265E-05   9.75180708E-108 
  8                8.30449367E-04   8.43508035E+01   8.38831383E-01   1.60608871E-01   5.31825586E-04   5.45225630E-17   6.32225119E-07   3.50431253E-110  2.30030265E-05   5.54582306E-108 
  9                1.06768336E-03   8.76051211E+01   8.38831383E-01   1.60608871E-01   5.31825586E-04   5.38318124E-17   6.32225119E-07   3.08562079E-110  2.30030265E-05   3.26817435E-108 
  10               1.35566040E-03   9.07772061E+01   8.38831383E-01   1.60608871E-01   5.31825586E-04   5.30793742E-17   6.32225119E-07   2.73569849E-110  2.30030265E-05   1.98109321E-108 
  11               1.70538837E-03   9.45624128E+01   8.38831383E-01   1.60608871E-01   5.31825586E-04   5.07226817E-17   6.32225119E-07   2.43743463E-110  2.30030265E-05   1.20360490E-108 
  12               2.13027766E-03   9.84828029E+01   8.38830691E-01   1.60608739E-01   5.31825147E-04   1.15819501E-16   6.33168002E-07   2.18683137E-107  2.30030076E-05   1.17880972E-105 
  13               2.64084925E-03   1.03218136E+02   8.38821668E-01   1.60607011E-01   5.31819426E-04   1.23560099E-15   1.46909485E-06   3.55606400E-102  2.30027601E-05   6.46184095E-100 
  14               3.18646475E-03   1.08412738E+02   8.38812645E-01   1.60605284E-01   5.31813706E-04   1.35391044E-14   1.22251881E-05   1.70589571E-97   2.30025127E-05   1.00809696E-94  
  15               3.65884160E-03   1.13536789E+02   8.38779452E-01   1.60598929E-01   5.31792661E-04   6.63287049E-14   2.30069749E-05   1.29721252E-94   2.30016025E-05   1.54887250E-91  
  16               4.03118317E-03   1.16940479E+02   8.38754590E-01   1.60594168E-01   5.31776898E-04   4.33882687E-13   6.25667254E-05   2.14563348E-92   2.30009207E-05   1.01244182E-88  
  17               4.31014163E-03   1.19699266E+02   8.38729727E-01   1.60589408E-01   5.31761135E-04   7.92229342E-13   9.22063095E-05   9.21540856E-91   2.30002389E-05   2.89913760E-87  
  18               4.57248836E-03   1.21809159E+02   8.38729727E-01   1.60589408E-01   5.31761135E-04   3.22768960E-12   1.21819257E-04   7.52950606E-89   2.30002389E-05   9.57574263E-85  
  19               4.85247249E-03   1.24392168E+02   8.38729727E-01   1.60589408E-01   5.31761135E-04   5.35279420E-12   1.21819257E-04   5.32127257E-87   2.30002389E-05   4.25553028E-83  
  20               5.19781156E-03   1.26991758E+02   8.38729727E-01   1.60589408E-01   5.31761135E-04   1.33523032E-11   1.21819257E-04   1.28032395E-84   2.30002389E-05   1.85627058E-80  
  21               5.62348420E-03   1.30508359E+02   8.38729727E-01   1.60589408E-01   5.31761135E-04   3.78155938E-11   1.21819257E-04   2.70243012E-82   2.30002389E-05   6.88686274E-78  
  22               6.14789895E-03   1.34130608E+02   8.38729727E-01   1.60589408E-01   5.31761135E-04   1.47681553E-10   1.21819257E-04   1.78337894E-79   2.30002389E-05   9.27118189E-75  
  23               6.79361427E-03   1.38802718E+02   8.38729725E-01   1.60589407E-01   5.31761134E-04   4.66736885E-10   1.21819257E-04   2.65618483E-77   2.30002388E-05   2.20748476E-72  
  24               7.58850293E-03   1.42638307E+02   8.38729723E-01   1.60589407E-01   5.31761133E-04   2.83844873E-09   1.21819256E-04   3.90833132E-75   2.30002388E-05   1.28918678E-69  
  25               8.56697020E-03   1.46689907E+02   8.38729712E-01   1.60589405E-01   5.31761125E-04   5.13533716E-09   1.21819255E-04   3.54161654E-73   2.30002384E-05   6.65397645E-68  
  26               9.77086868E-03   1.50556303E+02   8.38729702E-01   1.60589403E-01   5.31761119E-04   1.85697420E-08   1.21819253E-04   3.37946939E-71   2.30002382E-05   1.96644617E-65  
  27               1.12512568E-02   1.54687628E+02   8.38729652E-01   1.60589393E-01   5.31761088E-04   2.99777366E-08   1.21819246E-04   1.85938378E-69   2.30002368E-05   6.32639484E-64  
  28               1.30705495E-02   1.58515761E+02   8.38729612E-01   1.60589386E-01   5.31761062E-04   8.94655753E-08   1.21819240E-04   1.06405057E-67   2.30002357E-05   8.93584374E-62  
  29               1.53053745E-02   1.62590066E+02   8.38729415E-01   1.60589348E-01   5.31760937E-04   1.37774449E-07   1.21819212E-04   3.87855825E-66   2.30002303E-05   1.95402791E-60  
  30               1.80491250E-02   1.66391192E+02   8.38729258E-01   1.60589318E-01   5.31760838E-04   3.72453806E-07   1.21819189E-04   1.73926856E-64   2.30002260E-05   1.92752174E-58  
  31               2.14152168E-02   1.70625032E+02   8.38728536E-01   1.60589180E-01   5.31760380E-04   5.59668393E-07   1.21819084E-04   5.40279931E-63   2.30002062E-05   3.61385421E-57  
  32               2.55411767E-02   1.74634462E+02   8.38727970E-01   1.60589071E-01   5.31760021E-04   1.42063912E-06   1.21819002E-04   2.11392073E-61   2.30001907E-05   2.87507301E-55  
  33               3.05939768E-02   1.79142779E+02   8.38725635E-01   1.60588624E-01   5.31758541E-04   2.09713167E-06   1.21818663E-04   5.73178395E-60   2.30001266E-05   4.74336982E-54  
  34               3.67761887E-02   1.83394276E+02   8.38723865E-01   1.60588285E-01   5.31757418E-04   4.88132305E-06   1.21818406E-04   1.75461946E-58   2.30000781E-05   2.64262720E-52  
  35               4.43330350E-02   1.88039430E+02   8.38716034E-01   1.60586786E-01   5.31752453E-04   6.99798629E-06   1.21817268E-04   3.77288858E-57   2.29998634E-05   3.53833394E-51  
  36               5.35593182E-02   1.92398460E+02   8.38709973E-01   1.60585625E-01   5.31748611E-04   1.63328319E-05   1.21816388E-04   1.07891539E-55   2.29996971E-05   1.89311882E-49  
  37               6.48043937E-02   1.97428274E+02   8.38680484E-01   1.60579979E-01   5.31729915E-04   2.35807068E-05   1.21812105E-04   2.80852488E-54   2.29988885E-05   3.02297184E-48  
  38               7.84748248E-02   2.02555867E+02   8.38657057E-01   1.60575494E-01   5.31715062E-04   5.87323470E-05   1.21808702E-04   9.70108669E-53   2.29982461E-05   2.14773393E-46  
  39               9.50251087E-02   2.08446835E+02   8.38447064E-01   1.60535287E-01   5.31581925E-04   8.66385715E-05   1.21778202E-04   3.08736309E-51   2.29924875E-05   4.14775515E-45  
  40               1.14797310E-01   2.14522706E+02   8.38260498E-01   1.60499566E-01   5.31463640E-04   3.36987883E-04   1.21751105E-04   3.10043462E-49   2.29873713E-05   1.51783625E-42  
  41               1.37636568E-01   2.23165525E+02   8.38073932E-01   1.60463844E-01   5.31345356E-04   5.59427027E-04   1.21724008E-04   1.51101792E-46   2.29822552E-05   3.75333841E-40  
  42               1.64118615E-01   2.35807041E+02   8.38073932E-01   1.60463844E-01   5.31345356E-04   7.81891468E-04   1.21724008E-04   2.56864525E-44   2.29822552E-05   3.51315606E-38  
  43               1.95225354E-01   2.47441427E+02   8.38073932E-01   1.60463844E-01   5.31345356E-04   7.81891468E-04   1.21724008E-04   3.63612901E-42   2.29822552E-05   2.78340557E-36  
  44               2.33025071E-01   2.59816991E+02   8.38073932E-01   1.60463844E-01   5.31345356E-04   7.81891468E-04   1.21724008E-04   1.65164361E-40   2.29822552E-05   7.69848030E-35  
  45               2.78989904E-01   2.70247831E+02   8.38073932E-01   1.60463844E-01   5.31345356E-04   7.81891468E-04   1.21724008E-04   9.61917109E-39   2.29822552E-05   2.66862906E-33  
  46               3.34903794E-01   2.82366502E+02   8.38073932E-01   1.60463844E-01   5.31345356E-04   7.81891468E-04   1.21724008E-04   2.85617810E-37   2.29822552E-05   4.98840426E-32  
  47               4.02920483E-01   2.93320836E+02   8.38073932E-01   1.60463844E-01   5.31345356E-04   7.81891468E-04   1.21724007E-04   1.21624709E-35   2.29822552E-05   1.29794735E-30  
  48               4.85663788E-01   3.06542689E+02   8.38073931E-01   1.60463844E-01   5.31345356E-04   7.81891468E-04   1.21724006E-04   3.47386430E-34   2.29822552E-05   2.35660620E-29  
  49               5.86270869E-01   3.19361568E+02   8.38073931E-01   1.60463844E-01   5.31345356E-04   7.81891437E-04   1.21724002E-04   1.48631042E-32   2.29822552E-05   6.24938842E-28  
  50               7.08496948E-01   3.35117409E+02   8.38073875E-01   1.60463833E-01   5.31345320E-04   7.81891268E-04   1.21723981E-04   5.23680718E-31   2.29822536E-05   1.40336207E-26  
  51               8.56810077E-01   3.51504403E+02   8.38073880E-01   1.60463828E-01   5.31345301E-04   7.81823201E-04   1.21723922E-04   3.45203152E-29   2.29822528E-05   5.74756903E-25  
  52               1.03659119E+00   3.72952317E+02   8.38073886E-01   1.60463822E-01   5.31345283E-04   7.81755164E-04   1.21723718E-04   1.40961978E-27   2.29822520E-05   1.52774314E-23  
  53               1.25428351E+00   3.94182754E+02   8.38073949E-01   1.60463828E-01   5.31345301E-04   7.81687268E-04   1.21722983E-04   5.89785647E-26   2.29822528E-05   4.19579190E-22  
  54               1.51746248E+00   4.18188529E+02   8.38073947E-01   1.60463827E-01   5.31345298E-04   7.81687438E-04   1.21720739E-04   1.58306753E-24   2.29822527E-05   7.66170827E-21  
  55               1.83484744E+00   4.41860002E+02   8.38073803E-01   1.60463800E-01   5.31345208E-04   7.81700913E-04   1.21713704E-04   4.29746257E-23   2.29822488E-05   1.42514317E-19  
  56               2.21712086E+00   4.68562096E+02   8.38072064E-01   1.60463585E-01   5.31344498E-04   7.82345975E-04   1.21695204E-04   7.88218262E-22   2.29822181E-05   1.85168380E-18  
  57               2.67680163E+00   4.94822926E+02   8.38071411E-01   1.60463459E-01   5.31344080E-04   7.81834006E-04   1.21645813E-04   1.44848362E-20   2.29822000E-05   2.40934320E-17  
  58               3.22820106E+00   5.24386154E+02   8.38070947E-01   1.60463348E-01   5.31343713E-04   7.81308681E-04   1.21533871E-04   1.88384320E-19   2.29821841E-05   2.28800858E-16  
  59               3.88831835E+00   5.53347057E+02   8.38072183E-01   1.60463399E-01   5.31343882E-04   7.80151651E-04   1.21273109E-04   2.44983630E-18   2.29821914E-05   2.18010399E-15  
  60               4.67865982E+00   5.85968534E+02   8.38072525E-01   1.60463316E-01   5.31343607E-04   7.80151280E-04   1.20756654E-04   2.36760590E-17   2.29821796E-05   1.57912527E-14  
  61               5.62370434E+00   6.17893532E+02   8.38073213E-01   1.60463149E-01   5.31343054E-04   7.80150557E-04   1.19716355E-04   2.27408037E-16   2.29821557E-05   1.13867920E-13  
  62               6.75117596E+00   6.53810740E+02   8.38074383E-01   1.60462865E-01   5.31342112E-04   7.80149393E-04   1.17946798E-04   1.68872396E-15   2.29821150E-05   6.47005995E-13  
  63               8.09591329E+00   6.88860828E+02   8.38076373E-01   1.60462382E-01   5.31340507E-04   7.80147575E-04   1.14936762E-04   1.25124854E-14   2.29820457E-05   3.66251293E-12  
  64               9.70490641E+00   7.28471945E+02   8.38079200E-01   1.60461692E-01   5.31338206E-04   7.80145360E-04   1.10647843E-04   7.48126343E-14   2.29819469E-05   1.69731312E-11  
  65               1.16326081E+01   7.67251883E+02   8.38083101E-01   1.60460714E-01   5.31334903E-04   7.80143074E-04   1.04640691E-04   4.45220566E-13   2.29818067E-05   7.80505040E-11  
  66               1.39414421E+01   8.11126119E+02   8.38087609E-01   1.60459556E-01   5.31330838E-04   7.80141984E-04   9.76019528E-05   2.19500139E-12   2.29816406E-05   3.00946504E-10  
  67               1.67052753E+01   8.53952414E+02   8.38092856E-01   1.60458218E-01   5.31325551E-04   7.80144013E-04   8.94419219E-05   1.07073634E-11   2.29814480E-05   1.14349337E-09  
  68               2.00118017E+01   9.02352132E+02   8.38098036E-01   1.60456910E-01   5.31318643E-04   7.80150779E-04   8.14276254E-05   4.38793333E-11   2.29870446E-05   3.69389036E-09  
  69               2.39306684E+01   9.49009338E+02   8.38103178E-01   1.60455596E-01   5.31306412E-04   7.80162028E-04   7.34104021E-05   1.73778244E-10   2.30178182E-05   1.15272592E-08  
  70               2.85113874E+01   1.00074158E+03   8.38107165E-01   1.60454396E-01   5.31283083E-04   7.80171115E-04   6.65232927E-05   5.81295320E-10   2.31304060E-05   3.07999760E-08  
  71               3.38022796E+01   1.04926156E+03   8.38110243E-01   1.60453232E-01   5.31230728E-04   7.80157268E-04   6.02134450E-05   1.87042877E-09   2.35590735E-05   7.91465122E-08  
  72               3.98893447E+01   1.10281315E+03   8.38112530E-01   1.60452295E-01   5.31132428E-04   7.80127286E-04   5.53157862E-05   5.08270038E-09   2.39625540E-05   1.74069606E-07  
  73               4.68443523E+01   1.15050643E+03   8.38114661E-01   1.60451550E-01   5.30958344E-04   7.80055428E-04   5.13845060E-05   1.23934480E-08   2.42841950E-05   3.45211212E-07  
  74               5.47441601E+01   1.19749418E+03   8.38116592E-01   1.60451034E-01   5.30690492E-04   7.79925303E-04   4.87739096E-05   2.68901762E-08   2.42839066E-05   6.10591422E-07  
  75               6.36536416E+01   1.24130188E+03   8.38118259E-01   1.60450572E-01   5.30280070E-04   7.79666301E-04   4.68039313E-05   5.50087847E-08   2.42835047E-05   1.01822393E-06  
  76               7.37157412E+01   1.28647680E+03   8.38119752E-01   1.60450142E-01   5.29696677E-04   7.79243238E-04   4.53932909E-05   1.05665286E-07   2.42829436E-05   1.59819155E-06  
  77               8.50805952E+01   1.33032919E+03   8.38121391E-01   1.60449657E-01   5.28847522E-04   7.78568220E-04   4.42025425E-05   1.97415717E-07   2.42821159E-05   2.44245352E-06  
  78               9.78558710E+01   1.37660458E+03   8.38123198E-01   1.60449107E-01   5.27679741E-04   7.77582722E-04   4.32791269E-05   3.55058527E-07   2.42809237E-05   3.60320609E-06  
  79               1.12143493E+02   1.42249812E+03   8.38125472E-01   1.60448399E-01   5.26024793E-04   7.76124560E-04   4.24158726E-05   6.29497178E-07   2.42791186E-05   5.24732826E-06  
  80               1.28069078E+02   1.47145749E+03   8.38128212E-01   1.60447507E-01   5.23787401E-04   7.74099093E-04   4.16886680E-05   1.08886611E-06   2.42763480E-05   7.46839491E-06  
  81               1.45833905E+02   1.52092773E+03   8.38131711E-01   1.60446297E-01   5.20670844E-04   7.71240477E-04   4.09567283E-05   1.87167199E-06   2.42715570E-05   1.05593259E-05  
  82               1.65594037E+02   1.57423666E+03   8.38135702E-01   1.60444715E-01   5.16580728E-04   7.67484092E-04   4.03247143E-05   3.14447312E-06   2.42624287E-05   1.46108107E-05  
  83               1.87388506E+02   1.62756059E+03   8.38134624E-01   1.60441692E-01   5.11424706E-04   7.62865025E-04   3.97902879E-05   5.13305185E-06   2.42428951E-05   1.97071526E-05  
  84               2.11189491E+02   1.68046300E+03   8.38127296E-01   1.60438217E-01   5.05087287E-04   7.63957398E-04   3.94474954E-05   8.08853717E-06   2.39486286E-05   2.59628222E-05  
  85               2.36987031E+02   1.73273801E+03   8.38119894E-01   1.60434413E-01   4.97876196E-04   7.64208914E-04   3.92727283E-05   1.23324739E-05   2.36603355E-05   3.30653993E-05  
  86               2.64877055E+02   1.78440065E+03   8.38116951E-01   1.60431246E-01   4.89900775E-04   7.63731975E-04   3.92436330E-05   1.82699719E-05   2.33820781E-05   4.09026726E-05  
  87               2.95180704E+02   1.83583694E+03   8.38117515E-01   1.60427653E-01   4.81502257E-04   7.56696676E-04   3.93427203E-05   2.64044389E-05   2.33717145E-05   4.91229169E-05  
  88               3.28144275E+02   1.88722279E+03   8.38111047E-01   1.60423119E-01   4.72505149E-04   7.51224999E-04   3.95557641E-05   3.73082602E-05   2.33338877E-05   5.78928285E-05  
  89               3.63750318E+02   1.93824984E+03   8.38091611E-01   1.60417138E-01   4.62839034E-04   7.50253625E-04   3.98683933E-05   5.15353174E-05   2.32386346E-05   6.72762290E-05  
  90               4.01607928E+02   1.98830499E+03   8.38050697E-01   1.60408970E-01   4.52156243E-04   7.58406117E-04   4.02707015E-05   6.97468151E-05   2.30456317E-05   7.76142971E-05  
  91               4.42396170E+02   2.03811183E+03   8.37989132E-01   1.60399142E-01   4.40295485E-04   7.77359653E-04   4.07510880E-05   9.25939150E-05   2.27571703E-05   8.90684743E-05  
  92               4.85815590E+02   2.08724067E+03   8.37933389E-01   1.60390207E-01   4.28968495E-04   7.91540035E-04   4.13009233E-05   1.20540152E-04   2.25243177E-05   9.99290313E-05  
  93               5.31007896E+02   2.13466058E+03   8.37891542E-01   1.60383017E-01   4.18854143E-04   7.96130114E-04   4.19101350E-05   1.54166718E-04   2.23936438E-05   1.09514596E-04  
  94               5.78926879E+02   2.18152570E+03   8.37861692E-01   1.60376861E-01   4.10535408E-04   7.88420153E-04   4.25679693E-05   1.93669919E-04   2.23789146E-05   1.17238414E-04  
  95               6.28480473E+02   2.22669799E+03   8.37825808E-01   1.60370499E-01   4.02871189E-04   7.81425691E-04   4.32546131E-05   2.38679632E-04   2.23608843E-05   1.24250373E-04  
  96               6.77646757E+02   2.26873037E+03   8.37783392E-01   1.60363826E-01   3.95911619E-04   7.75194394E-04   4.39603048E-05   2.88964484E-04   2.23401829E-05   1.30506277E-04  
  97               7.28309670E+02   2.30943934E+03   8.37735196E-01   1.60357356E-01   3.89275549E-04   7.71059766E-04   4.46930703E-05   3.45930151E-04   2.23194480E-05   1.36376674E-04  
  98               7.83712369E+02   2.35143159E+03   8.37668734E-01   1.60348393E-01   3.83041078E-04   7.67458937E-04   4.54603696E-05   4.10498024E-04   2.22957179E-05   1.41762749E-04  
  99               8.40934863E+02   2.39219835E+03   8.37598018E-01   1.60339463E-01   3.77399036E-04   7.64529183E-04   4.62214253E-05   4.79410725E-04   2.22708282E-05   1.46523862E-04  
  100              8.91826574E+02   2.42660762E+03   8.37529656E-01   1.60330993E-01   3.72850628E-04   7.60990274E-04   4.69217234E-05   5.46862687E-04   2.22445227E-05   1.50226967E-04  
  101              9.35421649E+02   2.45472862E+03   8.37474511E-01   1.60325051E-01   3.69025391E-04   7.58097487E-04   4.75544908E-05   6.10563932E-04   2.22203976E-05   1.53272490E-04  
