# ATMO chemical composition profiles
# Chemical abundances given as mole fraction for the 8 most abundant species
# Model Level      Pressure [Ba]    Temperature [K]  H2               H                He               CO               H2O              Mg               O-3P             Fe              
  1                1.00000000E-05   1.40399948E+03   8.37432533E-01   1.47901432E-03   1.60147163E-01   5.30214531E-04   2.78537647E-04   2.82068220E-06   1.62106772E-11   1.14046576E-05  
  2                1.22517175E-05   1.23131064E+03   8.38644030E-01   9.07669368E-05   1.60247147E-01   5.30506777E-04   2.80194473E-04   2.82245214E-06   3.14575404E-14   1.14117836E-05  
  3                1.42493563E-05   1.58235614E+03   8.28656302E-01   1.07953299E-02   1.59376717E-01   5.27663245E-04   3.71414686E-04   6.64362984E-05   1.99904068E-09   5.52609982E-05  
  4                1.59315238E-05   1.35593445E+03   8.38032826E-01   5.93326123E-04   1.60196270E-01   5.30337134E-04   3.76851701E-04   6.67777170E-05   2.98004844E-12   5.55452185E-05  
  5                1.78712249E-05   1.64305969E+03   8.21964963E-01   1.80744393E-02   1.58793165E-01   5.25737453E-04   3.69567145E-04   6.61926990E-05   6.60508132E-09   5.50586228E-05  
  6                2.00773671E-05   1.42343236E+03   8.37331175E-01   1.35694363E-03   1.60134698E-01   5.30148480E-04   3.75842232E-04   6.67516088E-05   1.96438556E-11   5.55238352E-05  
  7                2.25752345E-05   1.70964075E+03   8.10652279E-01   3.03803234E-02   1.57806890E-01   5.22477547E-04   3.66790991E-04   6.57811157E-05   2.22313274E-08   5.47166015E-05  
  8                2.49753370E-05   1.56189203E+03   8.32574929E-01   6.53185592E-03   1.59718825E-01   5.28793474E-04   3.72970439E-04   6.65778997E-05   6.89434037E-10   5.53795713E-05  
  9                2.77648745E-05   1.75111455E+03   8.02088401E-01   3.96961615E-02   1.57060366E-01   5.20008794E-04   3.64639215E-04   6.54694668E-05   4.21823905E-08   5.44577152E-05  
  10               3.09970541E-05   1.60377779E+03   8.30115187E-01   9.20780173E-03   1.59504163E-01   5.28087608E-04   3.72099693E-04   6.64879833E-05   1.53465934E-09   5.53050992E-05  
  11               3.47725205E-05   1.78748631E+03   7.94086440E-01   4.84007136E-02   1.56362858E-01   5.17701686E-04   3.62599488E-04   6.51781519E-05   6.86114602E-08   5.42158168E-05  
  12               3.91654440E-05   1.64264066E+03   8.27366589E-01   1.21978879E-02   1.59264400E-01   5.27297744E-04   3.71257767E-04   6.63874788E-05   2.97967642E-09   5.52219156E-05  
  13               4.43074796E-05   1.82244542E+03   7.86072610E-01   5.71181637E-02   1.55664329E-01   5.15390898E-04   3.60512684E-04   6.48862930E-05   1.03933530E-07   5.39735547E-05  
  14               5.03014763E-05   1.68062193E+03   8.24237208E-01   1.56021431E-02   1.58991494E-01   5.26397628E-04   3.70374988E-04   6.62730143E-05   5.36175863E-09   5.51272292E-05  
  15               5.73245878E-05   1.85700891E+03   7.77944636E-01   6.59597737E-02   1.54955856E-01   5.13046990E-04   3.58341504E-04   6.45901482E-05   1.50264394E-07   5.37278324E-05  
  16               6.55177940E-05   1.71865816E+03   8.20652279E-01   1.95019112E-02   1.58678913E-01   5.25365789E-04   3.69407235E-04   6.61418433E-05   9.18463265E-09   5.50187723E-05  
  17               7.51213686E-05   1.89173226E+03   7.69625580E-01   7.50092396E-02   1.54230730E-01   5.10647794E-04   3.56055226E-04   6.42868955E-05   2.10274615E-07   5.34763202E-05  
  18               8.63265462E-05   1.75735206E+03   8.16517214E-01   2.40000955E-02   1.58318403E-01   5.24174985E-04   3.68312486E-04   6.59904967E-05   1.52282996E-08   5.48936798E-05  
  19               9.94593483E-05   1.92707854E+03   7.60975316E-01   8.44189949E-02   1.53476733E-01   5.08152890E-04   3.53604572E-04   6.39714142E-05   2.87982827E-07   5.32147789E-05  
  20               1.14776520E-04   1.79724774E+03   8.11687585E-01   2.92538129E-02   1.57897368E-01   5.22783570E-04   3.67038294E-04   6.58136909E-05   2.47662732E-08   5.47475802E-05  
  21               1.32719215E-04   1.96352381E+03   7.51758021E-01   9.44455708E-02   1.52673305E-01   5.05494234E-04   3.50909633E-04   6.36351038E-05   3.89924053E-07   5.29360763E-05  
  22               1.53628073E-04   1.83893845E+03   8.05936726E-01   3.55096347E-02   1.57396046E-01   5.21126153E-04   3.65510110E-04   6.56031501E-05   3.99974989E-08   5.45736166E-05  
  23               1.78096921E-04   2.00163363E+03   7.41599669E-01   1.05495837E-01   1.51787841E-01   5.02563886E-04   3.47842845E-04   6.32643406E-05   5.27320932E-07   5.26289030E-05  
  24               2.06569525E-04   1.88323409E+03   7.98879275E-01   4.31867640E-02   1.56780840E-01   5.19091537E-04   3.63606985E-04   6.53448278E-05   6.50565218E-08   5.43601350E-05  
  25               2.39837430E-04   2.04227881E+03   7.29827033E-01   1.18302136E-01   1.50761654E-01   4.99167550E-04   3.44172900E-04   6.28346301E-05   7.21902657E-07   5.22729060E-05  
  26               2.78459133E-04   1.93153222E+03   7.89764716E-01   5.31016171E-02   1.55986329E-01   5.16463148E-04   3.61098249E-04   6.50114080E-05   1.08866968E-07   5.40844444E-05  
  27               3.23467927E-04   2.08717080E+03   7.14998380E-01   1.34432796E-01   1.49469064E-01   4.94889121E-04   3.39399393E-04   6.22935639E-05   1.02427462E-06   5.18245035E-05  
  28               3.75496336E-04   1.98744205E+03   7.76572263E-01   6.74524182E-02   1.54836360E-01   5.12657829E-04   3.57371304E-04   6.45294248E-05   1.97420456E-07   5.36854586E-05  
  29               4.35752568E-04   2.14371203E+03   6.90745910E-01   1.60814764E-01   1.47354978E-01   4.87890768E-04   3.31334782E-04   6.14098119E-05   1.66129103E-06   5.10912249E-05  
  30               5.01250532E-04   2.16515910E+03   6.83047498E-01   1.69189150E-01   1.46683891E-01   4.85669322E-04   3.28584826E-04   6.11287399E-05   1.92029300E-06   5.08584029E-05  
  31               5.77839659E-04   2.18708489E+03   6.75114476E-01   1.77818754E-01   1.45992344E-01   4.83380124E-04   3.25678316E-04   6.08390269E-05   2.21608853E-06   5.06184743E-05  
  32               6.67355311E-04   2.20946052E+03   6.66965712E-01   1.86683052E-01   1.45281981E-01   4.81028616E-04   3.22613297E-04   6.05413512E-05   2.55262158E-06   5.03720080E-05  
  33               7.71929247E-04   2.23223730E+03   6.58640492E-01   1.95739309E-01   1.44556225E-01   4.78626132E-04   3.19395172E-04   6.02371327E-05   2.93318814E-06   5.01201901E-05  
  34               8.94038007E-04   2.25532275E+03   6.50221539E-01   2.04897541E-01   1.43822287E-01   4.76196546E-04   3.16046017E-04   5.99293679E-05   3.35889391E-06   4.98655196E-05  
  35               1.03654673E-03   2.27882080E+03   6.41620599E-01   2.14253751E-01   1.43072471E-01   4.73714382E-04   3.12526744E-04   5.96148432E-05   3.83857276E-06   4.96053274E-05  
  36               1.20277177E-03   2.30251389E+03   6.33038152E-01   2.23589856E-01   1.42324254E-01   4.71237503E-04   3.08905217E-04   5.93008308E-05   4.36682604E-06   4.93456716E-05  
  37               1.39652801E-03   2.32675458E+03   6.24155661E-01   2.33250459E-01   1.41549683E-01   4.68673363E-04   3.05053285E-04   5.89756786E-05   4.96650688E-06   4.90768597E-05  
  38               1.62082865E-03   2.35088789E+03   6.15499639E-01   2.42658028E-01   1.40795334E-01   4.66175393E-04   3.06884751E-04   5.86587937E-05   5.71635942E-06   4.88150399E-05  
  39               1.88037063E-03   2.37558658E+03   6.06472111E-01   2.52478402E-01   1.40008264E-01   4.63569865E-04   3.02654133E-04   5.83281166E-05   6.46231611E-06   4.85418557E-05  
  40               2.18230848E-03   2.40012731E+03   5.97845176E-01   2.61863017E-01   1.39256101E-01   4.61079907E-04   2.98460843E-04   5.80117848E-05   7.24665569E-06   4.82807508E-05  
  41               2.53319217E-03   2.42555023E+03   5.88630076E-01   2.71887467E-01   1.38452642E-01   4.58420111E-04   2.93878005E-04   5.76738925E-05   8.15373018E-06   4.80018369E-05  
  42               2.94048968E-03   2.45061167E+03   5.80020629E-01   2.81253089E-01   1.37701968E-01   4.55935076E-04   2.89424321E-04   5.73577671E-05   9.08508315E-06   4.77411975E-05  
  43               3.41252760E-03   2.47673944E+03   5.70635227E-01   2.91462833E-01   1.36883621E-01   4.53225984E-04   2.84475875E-04   5.70132518E-05   1.01763476E-05   4.74570692E-05  
  44               3.95732991E-03   2.50220681E+03   5.62106173E-01   3.00741033E-01   1.36139918E-01   4.50764025E-04   2.79784310E-04   5.66995900E-05   1.12651239E-05   4.71987914E-05  
  45               4.58575309E-03   2.52886191E+03   5.52653250E-01   3.11024263E-01   1.35315642E-01   4.48035300E-04   2.74507330E-04   5.63521677E-05   1.25524059E-05   4.69125514E-05  
  46               5.31012685E-03   2.55465668E+03   5.44288755E-01   3.20123482E-01   1.34586247E-01   4.45620711E-04   2.69619913E-04   5.60439861E-05   1.38018284E-05   4.66591731E-05  
  47               6.14437219E-03   2.58186682E+03   5.34803213E-01   3.30442232E-01   1.33759083E-01   4.42882422E-04   2.64025840E-04   5.56948767E-05   1.53008172E-05   4.63718684E-05  
  48               7.10412697E-03   2.60805136E+03   5.26587393E-01   3.39379746E-01   1.33042611E-01   4.40510618E-04   2.58942843E-04   5.53915480E-05   1.67226718E-05   4.61229019E-05  
  49               8.20690325E-03   2.63584855E+03   5.17075434E-01   3.49727265E-01   1.32213097E-01   4.37764551E-04   2.53037030E-04   5.50409346E-05   1.84505499E-05   4.58347129E-05  
  50               9.47214598E-03   2.66244388E+03   5.09006161E-01   3.58505386E-01   1.31509363E-01   4.35434918E-04   2.47771766E-04   5.47423362E-05   2.00530384E-05   4.55900866E-05  
  51               1.09214431E-02   2.69078962E+03   4.99518595E-01   3.68826397E-01   1.30681930E-01   4.32695739E-04   2.41593015E-04   5.43920272E-05   2.20163797E-05   4.53025427E-05  
  52               1.25787277E-02   2.71707890E+03   4.92278520E-01   3.76702499E-01   1.30050466E-01   4.30605372E-04   2.36558852E-04   5.41228547E-05   2.36699464E-05   4.50828844E-05  
  53               1.44699853E-02   2.74635114E+03   4.82448194E-01   3.87396400E-01   1.29193097E-01   4.27767079E-04   2.29922107E-04   5.37595198E-05   2.59470978E-05   4.47848829E-05  
  54               1.66232421E-02   2.77345070E+03   4.74935929E-01   3.95568612E-01   1.28537859E-01   4.25597992E-04   2.24526227E-04   5.34798353E-05   2.78593324E-05   4.45568967E-05  
  55               1.90692527E-02   2.80344373E+03   4.64942975E-01   4.06439438E-01   1.27666261E-01   4.22712580E-04   2.17545873E-04   5.31100120E-05   3.04427342E-05   4.42538802E-05  
  56               2.18409615E-02   2.83103771E+03   4.57429561E-01   4.14612898E-01   1.27010886E-01   4.20543024E-04   2.11967260E-04   5.28296377E-05   3.25712984E-05   4.40257565E-05  
  57               2.49745143E-02   2.86129615E+03   4.47676549E-01   4.25222698E-01   1.26160170E-01   4.17726728E-04   2.04923503E-04   5.24679105E-05   3.53738503E-05   4.37298919E-05  
  58               2.85088393E-02   2.88869255E+03   4.40762945E-01   4.32743634E-01   1.25557074E-01   4.15730228E-04   1.99578179E-04   5.22085825E-05   3.75564469E-05   4.35197918E-05  
  59               3.24866291E-02   2.91882172E+03   4.31577178E-01   4.42736327E-01   1.24755791E-01   4.13077563E-04   1.92739143E-04   5.18667761E-05   4.04637064E-05   4.32409695E-05  
  60               3.69536979E-02   2.94598785E+03   4.25241977E-01   4.49628004E-01   1.24203116E-01   4.11247948E-04   1.87674924E-04   5.16276789E-05   4.26642339E-05   4.30482414E-05  
  61               4.19601553E-02   2.97620382E+03   4.16396870E-01   4.59250054E-01   1.23431513E-01   4.08693494E-04   1.80959891E-04   5.12975772E-05   4.57015968E-05   4.27796108E-05  
  62               4.75595506E-02   3.00355505E+03   4.10240224E-01   4.65947423E-01   1.22894388E-01   4.06915302E-04   1.75967154E-04   5.10642342E-05   4.80077879E-05   4.25921672E-05  
  63               5.38101477E-02   3.03414708E+03   4.01474856E-01   4.75482637E-01   1.22129710E-01   4.04383702E-04   1.69256605E-04   5.07364126E-05   5.12348131E-05   4.23258424E-05  
  64               6.07720536E-02   3.06200814E+03   3.95211813E-01   4.82295647E-01   1.21583284E-01   4.02574628E-04   1.64185175E-04   5.04985475E-05   5.37284929E-05   4.21350720E-05  
  65               6.85126612E-02   3.09298207E+03   3.86525424E-01   4.91744808E-01   1.20825466E-01   4.00065635E-04   1.57523844E-04   5.01730060E-05   5.71359462E-05   4.18710314E-05  
  66               7.71053666E-02   3.12121237E+03   3.80290926E-01   4.98526619E-01   1.20281509E-01   3.98264612E-04   1.52496720E-04   4.99355048E-05   5.97678292E-05   4.16810112E-05  
  67               8.66337274E-02   3.15238157E+03   3.71868240E-01   5.07688722E-01   1.19546666E-01   3.95831530E-04   1.46050597E-04   4.96189001E-05   6.32746406E-05   4.14248338E-05  
  68               9.71895892E-02   3.18078965E+03   3.65858800E-01   5.14225505E-01   1.19022319E-01   3.94095260E-04   1.41229638E-04   4.93888140E-05   6.59602985E-05   4.12414946E-05  
  69               1.08877737E-01   3.21203798E+03   3.57838216E-01   5.22949931E-01   1.18322526E-01   3.91777999E-04   1.35127805E-04   4.90860749E-05   6.94883344E-05   4.09973524E-05  
  70               1.21813770E-01   3.24053111E+03   3.52175958E-01   5.29108780E-01   1.17828442E-01   3.90141683E-04   1.30618159E-04   4.88677172E-05   7.21599706E-05   4.08243704E-05  
  71               1.36128333E-01   3.27199407E+03   3.44505898E-01   5.37451570E-01   1.17159198E-01   3.87925254E-04   1.24854604E-04   4.85768982E-05   7.57010897E-05   4.05906915E-05  
  72               1.51964119E-01   3.30092420E+03   3.38981124E-01   5.43460533E-01   1.16677083E-01   3.86328222E-04   1.20537750E-04   4.83626412E-05   7.84249827E-05   4.04217181E-05  
  73               1.69482317E-01   3.33295220E+03   3.31465830E-01   5.51634558E-01   1.16021309E-01   3.84155944E-04   1.15008521E-04   4.80766323E-05   8.20408681E-05   4.01925767E-05  
  74               1.88858729E-01   3.36271446E+03   3.25866337E-01   5.57724391E-01   1.15532648E-01   3.82536736E-04   1.10767073E-04   4.78587973E-05   8.48997099E-05   4.00211913E-05  
  75               2.10293278E-01   3.39556142E+03   3.18405839E-01   5.65838316E-01   1.14881619E-01   3.80379514E-04   1.05431697E-04   4.75739538E-05   8.86244825E-05   3.97935566E-05  
  76               2.34005353E-01   3.42632795E+03   3.12704044E-01   5.72038956E-01   1.14384001E-01   3.78729911E-04   1.01269409E-04   4.73515007E-05   9.16307247E-05   3.96189144E-05  
  77               2.60246053E-01   3.46000950E+03   3.05377693E-01   5.80006422E-01   1.13744640E-01   3.76610355E-04   9.61973327E-05   4.70705895E-05   9.54227121E-05   3.93951675E-05  
  78               2.89292536E-01   3.49171039E+03   2.99716004E-01   5.86162955E-01   1.13250491E-01   3.74971144E-04   9.22179219E-05   4.68485270E-05   9.85107725E-05   3.92215513E-05  
  79               3.21460997E-01   3.52620503E+03   2.92622063E-01   5.93877134E-01   1.12631378E-01   3.72917212E-04   8.74783860E-05   4.65749457E-05   1.02314305E-04   3.90046403E-05  
  80               3.57099852E-01   3.55892248E+03   2.87034372E-01   5.99952800E-01   1.12143665E-01   3.71297691E-04   8.37094420E-05   4.63543714E-05   1.05462173E-04   3.88330559E-05  
  81               3.96604781E-01   3.59439481E+03   2.80146655E-01   6.07442373E-01   1.11542535E-01   3.69301184E-04   7.92884439E-05   4.60870615E-05   1.09276155E-04   3.86221744E-05  
  82               4.40411767E-01   3.62837357E+03   2.74568633E-01   6.13507392E-01   1.11055672E-01   3.67681998E-04   7.56969765E-05   4.58655810E-05   1.12506526E-04   3.84506683E-05  
  83               4.89014468E-01   3.66511802E+03   2.67792153E-01   6.20876017E-01   1.10464271E-01   3.65714446E-04   7.15408732E-05   4.56010613E-05   1.16362988E-04   3.82429409E-05  
  84               5.42956768E-01   3.70077570E+03   2.62077030E-01   6.27090375E-01   1.09965486E-01   3.64051861E-04   6.80532054E-05   4.53734052E-05   1.19738655E-04   3.80670824E-05  
  85               6.02853106E-01   3.73923598E+03   2.55256847E-01   6.34506942E-01   1.09370332E-01   3.62066662E-04   6.40836601E-05   4.51061350E-05   1.23699235E-04   3.78578349E-05  
  86               6.69383997E-01   3.77687415E+03   2.49353963E-01   6.40926032E-01   1.08855234E-01   3.60343704E-04   6.06868898E-05   4.48704960E-05   1.27233711E-04   3.76760953E-05  
  87               7.43317157E-01   3.81723649E+03   2.42504331E-01   6.48375231E-01   1.08257589E-01   3.58341834E-04   5.69207425E-05   4.46009482E-05   1.31271898E-04   3.74657496E-05  
  88               8.25505455E-01   3.85674744E+03   2.36587771E-01   6.54809760E-01   1.07741371E-01   3.56605030E-04   5.37127456E-05   4.43634135E-05   1.34857401E-04   3.72833569E-05  
  89               9.16904631E-01   3.89891098E+03   2.29864423E-01   6.62122129E-01   1.07154813E-01   3.54626503E-04   5.02275425E-05   4.40969823E-05   1.38865974E-04   3.70765781E-05  
  90               1.01857144E+00   3.94024617E+03   2.24051149E-01   6.68444734E-01   1.06647663E-01   3.52903609E-04   4.72626590E-05   4.38615546E-05   1.42414470E-04   3.68970235E-05  
  91               1.13167743E+00   3.98449892E+03   2.17403069E-01   6.75675589E-01   1.06067724E-01   3.50925296E-04   4.40303177E-05   4.35963808E-05   1.46386327E-04   3.66922512E-05  
  92               1.25750976E+00   4.02818637E+03   2.11536308E-01   6.82056648E-01   1.05555952E-01   3.49160300E-04   4.12390223E-05   4.33575642E-05   1.49947606E-04   3.65108022E-05  
  93               1.39748107E+00   4.07522304E+03   2.04757473E-01   6.89429961E-01   1.04964650E-01   3.47107514E-04   3.81778820E-05   4.30865547E-05   1.53955821E-04   3.63018408E-05  
  94               1.55313340E+00   4.12180028E+03   1.98719042E-01   6.95997925E-01   1.04437940E-01   3.45247306E-04   3.55257549E-05   4.28403936E-05   1.57562146E-04   3.61149534E-05  
  95               1.72613433E+00   4.17202950E+03   1.91772683E-01   7.03553601E-01   1.03832063E-01   3.43083148E-04   3.26419065E-05   4.25625257E-05   1.61598218E-04   3.59007207E-05  
  96               1.91828094E+00   4.22191154E+03   1.85528280E-01   7.10345713E-01   1.03287420E-01   3.41084358E-04   3.01392112E-05   4.23081568E-05   1.65247611E-04   3.57073978E-05  
  97               2.13148051E+00   4.27515970E+03   1.78607335E-01   7.17873796E-01   1.02683790E-01   3.38821502E-04   2.75219818E-05   4.20303864E-05   1.69204345E-04   3.54937133E-05  
  98               2.36776340E+00   4.32773295E+03   1.72485854E-01   7.24532203E-01   1.02149893E-01   3.36728525E-04   2.52969584E-05   4.17793684E-05   1.72738074E-04   3.53038415E-05  
  99               2.62923662E+00   4.38355760E+03   1.65812388E-01   7.31791034E-01   1.01567870E-01   3.34363995E-04   2.30160974E-05   4.15095358E-05   1.76532926E-04   3.50973820E-05  
  100              2.91809484E+00   4.43912165E+03   1.59762324E-01   7.38371657E-01   1.01040221E-01   3.32073032E-04   2.10453233E-05   4.12604948E-05   1.80026733E-04   3.49094623E-05  
  101              3.23652671E+00   4.49849274E+03   1.53077358E-01   7.45642815E-01   1.00457212E-01   3.29403780E-04   1.90130735E-05   4.09903992E-05   1.83869456E-04   3.47025530E-05  
