# ATMO chemical composition profiles
# Chemical abundances given as mole fraction for the 8 most abundant species
# Model Level      Pressure [Ba]    Temperature [K]  H2               He               H                CO               H2O              N2               Mg               SiO             
  1                1.00000000E-05   5.52798254E+02   8.38252254E-01   1.60420597E-01   3.10366726E-16   6.90050923E-05   7.03368764E-04   6.08426878E-05   0.00000000E+00   0.00000000E+00  
  2                1.76764639E-05   6.18093644E+02   8.38708831E-01   1.60310069E-01   3.64562711E-14   4.12626803E-04   3.57765414E-04   6.08020884E-05   0.00000000E+00   0.00000000E+00  
  3                3.16843702E-05   6.46783906E+02   8.38765925E-01   1.60295895E-01   1.81934119E-13   4.57976014E-04   3.14895150E-04   6.07964798E-05   0.00000000E+00   0.00000000E+00  
  4                4.94291855E-05   6.63414993E+02   8.38774081E-01   1.60293777E-01   4.06550095E-13   4.65028838E-04   3.08852532E-04   6.07952683E-05   0.00000000E+00   0.00000000E+00  
  5                7.06253540E-05   6.79258421E+02   8.38786333E-01   1.60290683E-01   8.63306080E-13   4.75012059E-04   2.99690278E-04   6.07937703E-05   0.00000000E+00   0.00000000E+00  
  6                9.56509022E-05   6.90062608E+02   8.38786306E-01   1.60290620E-01   1.36651239E-12   4.75386992E-04   2.99763951E-04   6.07933088E-05   0.00000000E+00   0.00000000E+00  
  7                1.25000672E-04   7.02412935E+02   8.38793398E-01   1.60288813E-01   2.34899123E-12   4.81191875E-04   2.94452995E-04   6.07922871E-05   0.00000000E+00   0.00000000E+00  
  8                1.59347420E-04   7.10994071E+02   8.38791742E-01   1.60289162E-01   3.28142829E-12   4.80195991E-04   2.95727480E-04   6.07919423E-05   0.00000000E+00   0.00000000E+00  
  9                1.99459445E-04   7.21881078E+02   8.38797149E-01   1.60287772E-01   5.14849674E-12   4.84632968E-04   2.91656758E-04   6.07910569E-05   0.00000000E+00   0.00000000E+00  
  10               2.46297831E-04   7.29519337E+02   8.38795265E-01   1.60288177E-01   6.80793191E-12   4.83416369E-04   2.93080516E-04   6.07906857E-05   0.00000000E+00   0.00000000E+00  
  11               3.00950883E-04   7.39800776E+02   8.38800001E-01   1.60286943E-01   1.02112570E-11   4.87321557E-04   2.89479072E-04   6.07898317E-05   0.00000000E+00   0.00000000E+00  
  12               3.64727007E-04   7.47006038E+02   8.38798137E-01   1.60287334E-01   1.31117007E-11   4.86111992E-04   2.90857511E-04   6.07893954E-05   0.00000000E+00   0.00000000E+00  
  13               4.39106076E-04   7.57037844E+02   8.38802398E-01   1.60286195E-01   1.91393169E-11   4.89677177E-04   2.87558355E-04   6.07885395E-05   0.00000000E+00   0.00000000E+00  
  14               5.25881205E-04   7.64083757E+02   8.38800625E-01   1.60286543E-01   2.41694952E-11   4.88558292E-04   2.88823164E-04   6.07880154E-05   0.00000000E+00   0.00000000E+00  
  15               6.27106560E-04   7.74088274E+02   8.38804483E-01   1.60285465E-01   3.46888955E-11   4.91887102E-04   2.85735664E-04   6.07871348E-05   0.00000000E+00   0.00000000E+00  
  16               7.45243371E-04   7.81167332E+02   8.38802828E-01   1.60285743E-01   4.34317987E-11   4.90917468E-04   2.86837072E-04   6.07865022E-05   0.00000000E+00   0.00000000E+00  
  17               8.83113820E-04   7.91357370E+02   8.38806352E-01   1.60284677E-01   6.18324378E-11   4.94139861E-04   2.83840385E-04   6.07855741E-05   0.00000000E+00   0.00000000E+00  
  18               1.04410256E-03   7.98668266E+02   8.38804708E-01   1.60284806E-01   7.73394333E-11   4.93426838E-04   2.84677793E-04   6.07847973E-05   0.00000000E+00   0.00000000E+00  
  19               1.23205831E-03   8.09192173E+02   8.38807417E-01   1.60283694E-01   1.09775819E-10   4.96581123E-04   2.81737778E-04   6.07837948E-05   0.00000000E+00   0.00000000E+00  
  20               1.45159011E-03   8.16850986E+02   8.38806696E-01   1.60283844E-01   1.37638516E-10   4.96134634E-04   2.82305066E-04   6.07829302E-05   0.00000000E+00   0.00000000E+00  
  21               1.70800011E-03   8.27837702E+02   8.38810579E-01   1.60282855E-01   1.95495852E-10   4.99234943E-04   2.79412560E-04   6.07819137E-05   0.00000000E+00   0.00000000E+00  
  22               2.00756114E-03   8.35947883E+02   8.38810208E-01   1.60282919E-01   2.46312414E-10   4.99050715E-04   2.79715122E-04   6.07809138E-05   0.00000000E+00   0.00000000E+00  
  23               2.35735871E-03   8.47429171E+02   8.38813920E-01   1.60281972E-01   3.49914199E-10   5.02012854E-04   2.76951647E-04   6.07798417E-05   0.00000000E+00   0.00000000E+00  
  24               2.76583101E-03   8.56058826E+02   8.38813856E-01   1.60281962E-01   4.43414376E-10   5.02057408E-04   2.77023037E-04   6.07787029E-05   0.00000000E+00   0.00000000E+00  
  25               3.24257714E-03   8.68206492E+02   8.38817471E-01   1.60281039E-01   6.32875992E-10   5.04939753E-04   2.74331973E-04   6.07775758E-05   0.00000000E+00   0.00000000E+00  
  26               3.79902147E-03   8.77552882E+02   8.38817792E-01   1.60280934E-01   8.10686799E-10   5.05275001E-04   2.74112531E-04   6.07763028E-05   0.00000000E+00   0.00000000E+00  
  27               4.44798074E-03   8.90482839E+02   8.38821265E-01   1.60280047E-01   1.16437933E-09   5.08042513E-04   2.71527883E-04   6.07751299E-05   0.00000000E+00   0.00000000E+00  
  28               5.20457880E-03   9.00633268E+02   8.38821891E-01   1.60279868E-01   1.50833608E-09   5.08606627E-04   2.71077948E-04   6.07737341E-05   0.00000000E+00   0.00000000E+00  
  29               6.08572924E-03   9.14502963E+02   8.38825197E-01   1.60279022E-01   2.18543661E-09   5.11240230E-04   2.68617805E-04   6.07725337E-05   0.00000000E+00   0.00000000E+00  
  30               7.11137413E-03   9.25663445E+02   8.38826118E-01   1.60278771E-01   2.87367176E-09   5.12025479E-04   2.67945043E-04   6.07710435E-05   0.00000000E+00   8.79017124E-16  
  31               8.30434158E-03   9.40650964E+02   8.38829200E-01   1.60277982E-01   4.20936663E-09   5.14481704E-04   2.65651201E-04   6.07698435E-05   0.00000000E+00   5.11877637E-15  
  32               9.69160293E-03   9.52954813E+02   8.38830293E-01   1.60277689E-01   5.62055247E-09   5.15394750E-04   2.64846392E-04   6.07682881E-05   1.01971470E-15   5.14534543E-15  
  33               1.13030963E-02   9.69303696E+02   8.38833101E-01   1.60276969E-01   8.34873417E-09   5.17634482E-04   2.62756543E-04   6.07671255E-05   1.84921728E-15   3.09978850E-14  
  34               1.31735956E-02   9.83088923E+02   8.38834323E-01   1.60276645E-01   1.13811459E-08   5.18642927E-04   2.61851621E-04   6.07655654E-05   5.82513980E-15   3.26848254E-14  
  35               1.53411203E-02   1.00117201E+03   8.38836816E-01   1.60276002E-01   1.72317712E-08   5.20638467E-04   2.59992686E-04   6.07645040E-05   1.07033418E-14   2.17988521E-13  
  36               1.78488290E-02   1.01672693E+03   8.38838045E-01   1.60275677E-01   2.40365475E-08   5.21649603E-04   2.59078036E-04   6.07630093E-05   3.65598422E-14   2.29196137E-13  
  37               2.07427184E-02   1.03679465E+03   8.38840121E-01   1.60275136E-01   3.70997853E-08   5.23325248E-04   2.57523238E-04   6.07621042E-05   6.77610610E-14   1.70441224E-12  
  38               2.40737030E-02   1.05451940E+03   8.38841251E-01   1.60274832E-01   5.31413895E-08   5.24264835E-04   2.56671495E-04   6.07607683E-05   2.53846632E-13   1.78710599E-12  
  39               2.78945736E-02   1.07711955E+03   8.38842888E-01   1.60274394E-01   8.40987384E-08   5.25613296E-04   2.55428163E-04   6.07601171E-05   4.79076830E-13   1.51218004E-11  
  40               3.22617069E-02   1.09750001E+03   8.38843815E-01   1.60274132E-01   1.24098283E-07   5.26413479E-04   2.54705720E-04   6.07590452E-05   1.98794808E-12   1.58118751E-11  
  41               3.72311413E-02   1.12304191E+03   8.38844956E-01   1.60273801E-01   2.01310630E-07   5.27414738E-04   2.53792911E-04   6.07587095E-05   6.37983430E-12   5.43162190E-11  
  42               4.28643946E-02   1.14650521E+03   8.38845574E-01   1.60273593E-01   3.05849313E-07   5.28026864E-04   2.53247165E-04   6.07579725E-05   1.74868724E-11   1.58048916E-10  
  43               4.92338563E-02   1.17536251E+03   8.38846175E-01   1.60273354E-01   5.06976894E-07   5.28705516E-04   2.52640933E-04   6.07579590E-05   5.86645253E-11   5.68773182E-10  
  44               5.64161250E-02   1.20222353E+03   8.38846361E-01   1.60273192E-01   7.89039544E-07   5.29122548E-04   2.52280216E-04   6.07575414E-05   1.69191214E-10   1.74575072E-09  
  45               6.44888642E-02   1.23458820E+03   8.38846291E-01   1.60273006E-01   1.32593435E-06   5.29541630E-04   2.51926843E-04   6.07577745E-05   5.82079198E-10   6.45033856E-09  
  46               7.35291947E-02   1.26497336E+03   8.38845716E-01   1.60272839E-01   2.09531155E-06   5.29799024E-04   2.51741735E-04   6.07575962E-05   1.72870971E-09   2.04154420E-08  
  47               8.36074537E-02   1.30130624E+03   8.38844261E-01   1.60272593E-01   3.55886858E-06   5.30043893E-04   2.51664060E-04   6.07580086E-05   6.05089386E-09   7.68040330E-08  
  48               9.47761485E-02   1.33621120E+03   8.38840828E-01   1.60272135E-01   5.73954830E-06   5.30197498E-04   2.51940512E-04   6.07580102E-05   1.86874148E-08   2.53269350E-07  
  49               1.07026203E-01   1.37822471E+03   8.38832035E-01   1.60271133E-01   9.98950162E-06   5.30337460E-04   2.53780153E-04   6.07584626E-05   6.81728964E-08   9.95338537E-07  
  50               1.20233180E-01   1.42359899E+03   8.38806591E-01   1.60267636E-01   1.75891761E-05   5.30429266E-04   2.57817432E-04   6.07581517E-05   2.52090156E-07   3.96870701E-06  
  51               1.33999313E-01   1.46698727E+03   8.38777660E-01   1.60266421E-01   2.91992378E-05   5.30491193E-04   2.76624957E-04   6.07585249E-05   6.37860564E-07   1.86627440E-05  
  52               1.48253311E-01   1.50845132E+03   8.38750200E-01   1.60263461E-01   4.60649038E-05   5.30519570E-04   2.80278701E-04   6.07579633E-05   3.07090105E-06   1.98637991E-05  
  53               1.62929019E-01   1.54788222E+03   8.38701992E-01   1.60258819E-01   6.93849269E-05   5.30529738E-04   2.92822224E-04   6.07566439E-05   1.12646174E-05   2.37457444E-05  
  54               1.77100139E-01   1.58331481E+03   8.38607751E-01   1.60248732E-01   9.84260802E-05   5.30511651E-04   3.20257544E-04   6.07531973E-05   2.91764487E-05   3.22543311E-05  
  55               1.89696136E-01   1.61283510E+03   8.38490985E-01   1.60240191E-01   1.30068251E-04   5.30488307E-04   3.77235338E-04   6.07503374E-05   6.64918926E-05   5.02197104E-05  
  56               2.00680903E-01   1.63729663E+03   8.38461129E-01   1.60237580E-01   1.62547214E-04   5.30486494E-04   3.77154769E-04   6.07494214E-05   6.64749266E-05   5.02914927E-05  
  57               2.12968449E-01   1.66332825E+03   8.38389589E-01   1.60227905E-01   2.04464795E-04   5.30460711E-04   3.77053552E-04   6.07457865E-05   6.64534413E-05   5.03648687E-05  
  58               2.23988644E-01   1.68559955E+03   8.38350195E-01   1.60224464E-01   2.47317222E-04   5.30453976E-04   3.76978834E-04   6.07444764E-05   6.64366015E-05   5.04286291E-05  
  59               2.32985491E-01   1.70308211E+03   8.38314569E-01   1.60221351E-01   2.86071295E-04   5.30446946E-04   3.76919536E-04   6.07432688E-05   6.64228933E-05   5.04782856E-05  
  60               2.43091967E-01   1.72206067E+03   8.38270653E-01   1.60217515E-01   3.33842067E-04   5.30437473E-04   3.76854472E-04   6.07417646E-05   6.64075194E-05   5.05318605E-05  
  61               2.54404225E-01   1.74249532E+03   8.38216615E-01   1.60212795E-01   3.92621606E-04   5.30424986E-04   3.76783686E-04   6.07398967E-05   6.63903480E-05   5.05892115E-05  
  62               2.67017035E-01   1.76441150E+03   8.38149964E-01   1.60206974E-01   4.65116762E-04   5.30408745E-04   3.76707182E-04   6.07375811E-05   6.63712065E-05   5.06504061E-05  
  63               2.81017595E-01   1.78770486E+03   8.38068116E-01   1.60199826E-01   5.54135998E-04   5.30387967E-04   3.76625941E-04   6.07347256E-05   6.63499695E-05   5.07151459E-05  
  64               2.96472829E-01   1.81234982E+03   8.37967616E-01   1.60191050E-01   6.63429444E-04   5.30361643E-04   3.76541629E-04   6.07312159E-05   6.63264746E-05   5.07833869E-05  
  65               3.13406250E-01   1.83810766E+03   8.37845452E-01   1.60180382E-01   7.96259425E-04   5.30328867E-04   3.76458606E-04   6.07269457E-05   6.63006833E-05   5.08544779E-05  
  66               3.31725461E-01   1.86469642E+03   8.37698690E-01   1.60167570E-01   9.55819045E-04   5.30288780E-04   3.76392130E-04   6.07218212E-05   6.62726695E-05   5.09277407E-05  
  67               3.51602563E-01   1.89210242E+03   8.37522976E-01   1.60152232E-01   1.14697083E-03   5.30240134E-04   3.76267148E-04   6.07156887E-05   6.62421709E-05   5.10025356E-05  
  68               3.73554685E-01   1.92085667E+03   8.37308558E-01   1.60133516E-01   1.38022764E-03   5.30180152E-04   3.76127763E-04   6.07082181E-05   6.62082950E-05   5.10805745E-05  
  69               3.97753424E-01   1.95081077E+03   8.37048677E-01   1.60110835E-01   1.66294053E-03   5.30106868E-04   3.75972456E-04   6.06991759E-05   6.61707574E-05   5.11612452E-05  
  70               4.24385999E-01   1.98195593E+03   8.36734207E-01   1.60083392E-01   2.00503885E-03   5.30017648E-04   3.75798544E-04   6.06882567E-05   6.61291387E-05   5.12442672E-05  
  71               4.53658043E-01   2.01411049E+03   8.36356990E-01   1.60050475E-01   2.41539562E-03   5.29910125E-04   3.75604072E-04   6.06751788E-05   6.60831169E-05   5.13287297E-05  
  72               4.85796156E-01   2.04725758E+03   8.35905896E-01   1.60011115E-01   2.90612032E-03   5.29781090E-04   3.75385616E-04   6.06595687E-05   6.60322015E-05   5.14140889E-05  
  73               5.21052498E-01   2.08119963E+03   8.35371894E-01   1.59964524E-01   3.48703592E-03   5.29627928E-04   3.75140814E-04   6.06411137E-05   6.59760445E-05   5.14991209E-05  
  74               5.59705431E-01   2.11594501E+03   8.34741791E-01   1.59909553E-01   4.17249238E-03   5.29446836E-04   3.74865333E-04   6.06193707E-05   6.59140688E-05   5.15830647E-05  
  75               6.02061641E-01   2.15127881E+03   8.34006763E-01   1.59845432E-01   4.97209021E-03   5.29235259E-04   3.74556698E-04   6.05940304E-05   6.58459419E-05   5.16643729E-05  
  76               6.48458289E-01   2.18723237E+03   8.33152182E-01   1.59770886E-01   5.90173991E-03   5.28988983E-04   3.74209820E-04   6.05645992E-05   6.57710265E-05   5.17420665E-05  
  77               6.99265976E-01   2.22356994E+03   8.32171214E-01   1.59685321E-01   6.96887467E-03   5.28706025E-04   3.73822633E-04   6.05308290E-05   6.56890733E-05   5.18143428E-05  
  78               7.54891068E-01   2.26034422E+03   8.31048862E-01   1.59587429E-01   8.18980824E-03   5.28382062E-04   3.73389556E-04   6.04922087E-05   6.55994248E-05   5.18800729E-05  
  79               8.15779456E-01   2.29728055E+03   8.29781486E-01   1.59476688E-01   9.56635218E-03   5.28015355E-04   3.72909029E-04   6.04485105E-05   6.55018836E-05   5.19372035E-05  
  80               8.82306825E-01   2.33436104E+03   8.28354505E-01   1.59352690E-01   1.11090606E-02   5.27604085E-04   3.79134581E-04   6.03996635E-05   6.53962601E-05   5.20165754E-05  
  81               9.55009319E-01   2.37135236E+03   8.26787385E-01   1.59216024E-01   1.28137791E-02   5.27151149E-04   3.78583887E-04   6.03456503E-05   6.52827936E-05   5.20517984E-05  
  82               1.03458941E+00   2.40847589E+03   8.25053601E-01   1.59064830E-01   1.46998002E-02   5.26649896E-04   3.77967324E-04   6.02858251E-05   6.51604626E-05   5.20748387E-05  
  83               1.12167838E+00   2.44546671E+03   8.23163947E-01   1.58900049E-01   1.67553794E-02   5.26103429E-04   3.77288678E-04   6.02204915E-05   6.50296781E-05   5.20842794E-05  
  84               1.21695748E+00   2.48246320E+03   8.21106184E-01   1.58720615E-01   1.89938267E-02   5.25508209E-04   3.76543033E-04   6.01491887E-05   6.48898580E-05   5.20791728E-05  
  85               1.32115524E+00   2.51922300E+03   8.18897267E-01   1.58528006E-01   2.13966966E-02   5.24869114E-04   3.75735676E-04   6.00724020E-05   6.47416361E-05   5.20584866E-05  
  86               1.43508037E+00   2.55597504E+03   8.16519289E-01   1.58320661E-01   2.39834671E-02   5.24180966E-04   3.74858916E-04   5.99894482E-05   6.45841881E-05   5.20212231E-05  
  87               1.55960125E+00   2.59240273E+03   8.14002739E-01   1.58101239E-01   2.67209694E-02   5.23452544E-04   3.73922669E-04   5.99012224E-05   6.44186599E-05   5.19667251E-05  
  88               1.69564588E+00   2.62877164E+03   8.11326593E-01   1.57867906E-01   2.96320711E-02   5.22677765E-04   3.72917727E-04   5.98068815E-05   6.42441128E-05   5.18938184E-05  
  89               1.84420686E+00   2.66478069E+03   8.08527555E-01   1.57623863E-01   3.26768454E-02   5.21867197E-04   3.71856412E-04   5.97074696E-05   6.40619165E-05   5.18022388E-05  
  90               2.00633872E+00   2.70075943E+03   8.05575431E-01   1.57366477E-01   3.58881336E-02   5.21012105E-04   3.70725904E-04   5.96017425E-05   6.38707945E-05   5.16903151E-05  
  91               2.18316541E+00   2.73630109E+03   8.02526216E-01   1.57100629E-01   3.92050233E-02   5.20128619E-04   3.69546269E-04   5.94913042E-05   6.36728563E-05   5.15585031E-05  
  92               2.37588090E+00   2.77180127E+03   7.99338745E-01   1.56822730E-01   4.26722918E-02   5.19204832E-04   3.68300496E-04   5.93743929E-05   6.34664237E-05   5.14044803E-05  
  93               2.58575067E+00   2.80686276E+03   7.96075208E-01   1.56538203E-01   4.62222874E-02   5.18258655E-04   3.67011784E-04   5.92526947E-05   6.32538260E-05   5.12291999E-05  
  94               2.81410847E+00   2.84195977E+03   7.92677250E-01   1.56241958E-01   4.99184846E-02   5.17273214E-04   3.65656289E-04   5.91236166E-05   6.30327681E-05   5.10292034E-05  
  95               3.06236947E+00   2.87661082E+03   7.89225368E-01   1.55941015E-01   5.36733195E-02   5.16271697E-04   3.64265290E-04   5.89892893E-05   6.28062643E-05   5.08064415E-05  
  96               3.33203597E+00   2.91132599E+03   7.85648856E-01   1.55629208E-01   5.75637005E-02   5.15233654E-04   3.62809806E-04   5.88463145E-05   6.25715898E-05   5.05563733E-05  
  97               3.62471186E+00   2.94559316E+03   7.82040349E-01   1.55314613E-01   6.14888587E-02   5.14185770E-04   3.61327085E-04   5.86970007E-05   6.23321859E-05   5.02819459E-05  
  98               3.94211339E+00   2.97998135E+03   7.78311676E-01   1.54989542E-01   6.55447031E-02   5.13102542E-04   3.59780613E-04   5.85367410E-05   6.20847067E-05   4.99771391E-05  
  99               4.28607055E+00   3.01392209E+03   7.74572247E-01   1.54663536E-01   6.96122155E-02   5.12015488E-04   3.58215712E-04   5.83681278E-05   6.18331819E-05   4.96463283E-05  
  100              4.65847627E+00   3.04801260E+03   7.70720473E-01   1.54327735E-01   7.38018974E-02   5.10895220E-04   3.56589664E-04   5.81851946E-05   6.15738256E-05   4.92821306E-05  
  101              5.06127810E+00   3.08164260E+03   7.66880220E-01   1.53992939E-01   7.79790088E-02   5.09777419E-04   3.54955184E-04   5.79907128E-05   6.13111950E-05   4.88905897E-05  
