# ATMO chemical composition profiles
# Chemical abundances given as mole fraction for the 8 most abundant species
# Model Level      Pressure [Ba]    Temperature [K]  H2               He               H                CO               H2O              N2               Mg               Fe              
  1                1.00000000E-05   7.93294166E+02   8.38850205E-01   1.60272811E-01   6.30743348E-10   5.29996734E-04   2.49897043E-04   6.07894533E-05   3.93406468E-23   3.87601526E-15  
  2                3.70844089E-04   9.48614093E+02   8.38849464E-01   1.60272794E-01   2.52766512E-08   5.30394448E-04   2.50605705E-04   6.07886276E-05   2.07712695E-14   2.83245028E-12  
  3                7.32356410E-04   9.94246635E+02   8.38849293E-01   1.60272784E-01   6.54858224E-08   5.30446573E-04   2.50718019E-04   6.07882244E-05   2.25452317E-13   1.54961641E-11  
  4                1.12966051E-03   1.03893626E+03   8.38849076E-01   1.60272765E-01   1.67661400E-07   5.30493125E-04   2.50803756E-04   6.07880064E-05   1.40490771E-12   1.59425603E-10  
  5                1.57354445E-03   1.06095260E+03   8.38848952E-01   1.60272757E-01   2.42443128E-07   5.30506068E-04   2.50833467E-04   6.07876662E-05   5.71358525E-12   1.59425304E-10  
  6                2.07367322E-03   1.09365446E+03   8.38848674E-01   1.60272732E-01   4.49222763E-07   5.30530426E-04   2.50875037E-04   6.07874809E-05   1.90737126E-11   4.76938953E-10  
  7                2.63914466E-03   1.10953713E+03   8.38848529E-01   1.60272721E-01   5.65482031E-07   5.30536241E-04   2.50890488E-04   6.07871356E-05   4.59992883E-11   1.69028681E-09  
  8                3.28045594E-03   1.13783781E+03   8.38848121E-01   1.60272684E-01   9.25112371E-07   5.30552945E-04   2.50919770E-04   6.07869497E-05   1.21532371E-10   1.69028150E-09  
  9                4.00976371E-03   1.15111255E+03   8.38847925E-01   1.60272668E-01   1.09817126E-06   5.30556075E-04   2.50930472E-04   6.07865780E-05   2.34997311E-10   6.13331750E-09  
  10               4.84124594E-03   1.17750020E+03   8.38847312E-01   1.60272614E-01   1.68519069E-06   5.30568933E-04   2.50964587E-04   6.07863766E-05   5.48070261E-10   6.13329371E-09  
  11               5.79027015E-03   1.18972401E+03   8.38846995E-01   1.60272583E-01   1.94770030E-06   5.30570829E-04   2.50972894E-04   6.07859643E-05   9.57266846E-10   6.13327448E-09  
  12               6.87435323E-03   1.21545568E+03   8.38846029E-01   1.60272501E-01   2.88293747E-06   5.30581364E-04   2.51046110E-04   6.07857370E-05   2.06929362E-09   2.91015257E-08  
  13               8.11273782E-03   1.22748481E+03   8.38845508E-01   1.60272444E-01   3.29582288E-06   5.30582647E-04   2.51054577E-04   6.07852751E-05   3.46072468E-09   2.91014101E-08  
  14               9.52721953E-03   1.25321188E+03   8.38843854E-01   1.60272308E-01   4.76796664E-06   5.30591445E-04   2.51278817E-04   6.07850073E-05   7.09314299E-09   2.91012283E-08  
  15               1.11417786E-02   1.26550913E+03   8.38842801E-01   1.60272174E-01   5.43138139E-06   5.30592222E-04   2.51291110E-04   6.07844715E-05   1.16709052E-08   8.39975085E-08  
  16               1.29817761E-02   1.29172587E+03   8.38839867E-01   1.60271966E-01   7.74704243E-06   5.30599551E-04   2.52053222E-04   6.07841561E-05   2.29419478E-08   8.39968371E-08  
  17               1.50768748E-02   1.30476648E+03   8.38837208E-01   1.60271570E-01   8.85329894E-06   5.30599453E-04   2.52080269E-04   6.07834780E-05   3.80506408E-08   8.39961562E-08  
  18               1.74512724E-02   1.33187286E+03   8.38831398E-01   1.60271222E-01   1.25253240E-05   5.30605077E-04   2.54459762E-04   6.07830932E-05   7.22449469E-08   3.51249163E-07  
  19               2.01357307E-02   1.34589693E+03   8.38825649E-01   1.60270318E-01   1.43967458E-05   5.30603398E-04   2.54536875E-04   6.07821857E-05   1.21846875E-07   3.51244710E-07  
  20               2.31539176E-02   1.37410301E+03   8.38814742E-01   1.60269699E-01   2.02527696E-05   5.30606730E-04   2.59950429E-04   6.07816908E-05   2.22567342E-07   3.51239749E-07  
  21               2.65333169E-02   1.38947906E+03   8.38799183E-01   1.60267084E-01   2.35082098E-05   5.30599608E-04   2.60194102E-04   6.07801147E-05   3.86791529E-07   1.07092732E-06  
  22               3.02326808E-02   1.41911936E+03   8.38775152E-01   1.60266226E-01   3.30386062E-05   5.30599118E-04   2.76663434E-04   6.07795637E-05   6.73220155E-07   1.07090822E-06  
  23               3.42921326E-02   1.43609996E+03   8.38764439E-01   1.60264889E-01   3.88458684E-05   5.30596541E-04   2.77464455E-04   6.07784977E-05   1.21442725E-06   1.07088790E-06  
  24               3.87751354E-02   1.46743475E+03   8.38742392E-01   1.60262949E-01   5.45853439E-05   5.30595027E-04   2.81565176E-04   6.07775477E-05   3.91359469E-06   4.60430103E-06  
  25               4.35931280E-02   1.48579257E+03   8.38721223E-01   1.60260714E-01   6.46329987E-05   5.30588754E-04   2.86100251E-04   6.07761702E-05   6.88025901E-06   4.60417811E-06  
  26               4.87882287E-02   1.51861289E+03   8.38656019E-01   1.60254120E-01   9.05292202E-05   5.30568346E-04   3.04213400E-04   6.07735264E-05   1.87093918E-05   4.60390642E-06  
  27               5.39866768E-02   1.53888059E+03   8.38596400E-01   1.60247854E-01   1.08812802E-04   5.30546303E-04   3.22203880E-04   6.07707607E-05   3.04792283E-05   1.49982994E-05  
  28               5.87693573E-02   1.57131997E+03   8.38473825E-01   1.60238746E-01   1.49939826E-04   5.30509599E-04   3.77284932E-04   6.07673900E-05   6.66330243E-05   1.49971713E-05  
  29               6.35539580E-02   1.59180831E+03   8.38412192E-01   1.60229832E-01   1.79984510E-04   5.30482777E-04   3.77197530E-04   6.07637689E-05   6.66193217E-05   1.49961140E-05  
  30               6.82238197E-02   1.62006565E+03   8.38362761E-01   1.60225512E-01   2.33758607E-04   5.30472217E-04   3.77092980E-04   6.07621223E-05   6.66063454E-05   5.55430425E-05  
  31               7.23700444E-02   1.63567081E+03   8.38332902E-01   1.60222902E-01   2.66239355E-04   5.30465303E-04   3.77036336E-04   6.07609266E-05   6.65969619E-05   5.55414315E-05  
  32               7.70163448E-02   1.66075934E+03   8.38272895E-01   1.60217658E-01   3.31519127E-04   5.30450794E-04   3.76939708E-04   6.07589025E-05   6.65841158E-05   5.55386394E-05  
  33               8.22036887E-02   1.67934788E+03   8.38224217E-01   1.60213405E-01   3.84471109E-04   5.30438520E-04   3.76869324E-04   6.07570627E-05   6.65721447E-05   5.55362662E-05  
  34               8.79723973E-02   1.70787980E+03   8.38130135E-01   1.60205185E-01   4.86814316E-04   5.30414099E-04   3.76754148E-04   6.07538928E-05   6.65559017E-05   5.55322084E-05  
  35               9.43507028E-02   1.73076581E+03   8.38044446E-01   1.60197700E-01   5.80017814E-04   5.30391263E-04   3.76662910E-04   6.07508359E-05   6.65402487E-05   5.55284576E-05  
  36               1.01320989E-01   1.76808132E+03   8.37861083E-01   1.60181682E-01   7.79454537E-04   5.30341373E-04   3.76505152E-04   6.07448070E-05   6.65174374E-05   5.55212897E-05  
  37               1.08834645E-01   1.79505789E+03   8.37706586E-01   1.60168189E-01   9.47461225E-04   5.30298624E-04   3.76399808E-04   6.07394928E-05   6.64970257E-05   5.55151767E-05  
  38               1.16841500E-01   1.83273266E+03   8.37429890E-01   1.60144027E-01   1.24838269E-03   5.30221212E-04   3.76244577E-04   6.07303186E-05   6.64693597E-05   5.55049797E-05  
  39               1.25429444E-01   1.85971660E+03   8.37203769E-01   1.60124287E-01   1.49437567E-03   5.30157430E-04   3.76095117E-04   6.07225897E-05   6.64450435E-05   5.54965251E-05  
  40               1.34872521E-01   1.89844077E+03   8.36792098E-01   1.60088349E-01   1.94222829E-03   5.30040633E-04   3.75850131E-04   6.07088844E-05   6.64104816E-05   5.54819776E-05  
  41               1.45246066E-01   1.92697898E+03   8.36450039E-01   1.60058493E-01   2.31434554E-03   5.29943146E-04   3.75663593E-04   6.06972569E-05   6.63795819E-05   5.54697222E-05  
  42               1.56638274E-01   1.96707879E+03   8.35845038E-01   1.60005691E-01   2.97251366E-03   5.29770177E-04   3.75359360E-04   6.06770731E-05   6.63354701E-05   5.54489923E-05  
  43               1.69141404E-01   1.99678539E+03   8.35346458E-01   1.59962183E-01   3.51490199E-03   5.29627269E-04   3.75125333E-04   6.06601898E-05   6.62963679E-05   5.54316819E-05  
  44               1.82864819E-01   2.03773350E+03   8.34489942E-01   1.59887445E-01   4.44668002E-03   5.29381351E-04   3.74746203E-04   6.06315843E-05   6.62404856E-05   5.54029880E-05  
  45               1.97924062E-01   2.06820386E+03   8.33792907E-01   1.59826632E-01   5.20495563E-03   5.29180922E-04   3.74452966E-04   6.06080383E-05   6.61915091E-05   5.53793287E-05  
  46               2.14458624E-01   2.10949243E+03   8.32628825E-01   1.59725075E-01   6.47131228E-03   5.28845902E-04   3.73982462E-04   6.05691314E-05   6.61217008E-05   5.53409549E-05  
  47               2.32612264E-01   2.14046724E+03   8.31691271E-01   1.59643291E-01   7.49123000E-03   5.28575825E-04   3.73616612E-04   6.05375052E-05   6.60611195E-05   5.53096432E-05  
  48               2.52554913E-01   2.18177891E+03   8.30167193E-01   1.59510348E-01   9.14919668E-03   5.28136601E-04   3.73037027E-04   6.04865274E-05   6.59753061E-05   5.52599768E-05  
  49               2.74460809E-01   2.21303602E+03   8.28952968E-01   1.59404444E-01   1.04700790E-02   5.27786454E-04   3.72585355E-04   6.04455877E-05   6.59015876E-05   5.52198858E-05  
  50               2.98535672E-01   2.25406419E+03   8.27031476E-01   1.59236858E-01   1.25603526E-02   5.27232251E-04   3.71881286E-04   6.03812488E-05   6.57982334E-05   5.51577687E-05  
  51               3.24988559E-01   2.28545412E+03   8.25512767E-01   1.59104412E-01   1.42124516E-02   5.26794017E-04   3.71330990E-04   6.03300206E-05   6.57101284E-05   5.51080201E-05  
  52               3.54068121E-01   2.32583074E+03   8.23183166E-01   1.58901050E-01   1.67445224E-02   5.26121090E-04   3.70492691E-04   6.02518101E-05   6.55885993E-05   5.50330350E-05  
  53               3.85949786E-01   2.35709148E+03   8.21347280E-01   1.58741392E-01   1.87319932E-02   5.25591881E-04   3.76656268E-04   6.01900006E-05   6.54856815E-05   5.49733699E-05  
  54               4.20925056E-01   2.39653931E+03   8.18628810E-01   1.58504340E-01   2.16892001E-02   5.24807166E-04   3.75690491E-04   6.00986029E-05   6.53467887E-05   5.48862259E-05  
  55               4.59364479E-01   2.42777564E+03   8.16479587E-01   1.58316937E-01   2.40271573E-02   5.24186555E-04   3.74918366E-04   6.00258082E-05   6.52285244E-05   5.48164075E-05  
  56               5.01612899E-01   2.46639859E+03   8.13381558E-01   1.58046805E-01   2.73972458E-02   5.23292045E-04   3.73797000E-04   5.99212716E-05   6.50721094E-05   5.47172567E-05  
  57               5.47991744E-01   2.49763726E+03   8.10910330E-01   1.57831336E-01   3.00854763E-02   5.22578273E-04   3.72890145E-04   5.98372154E-05   6.49380514E-05   5.46371215E-05  
  58               5.98898486E-01   2.53535659E+03   8.07471397E-01   1.57531493E-01   3.38263914E-02   5.21585112E-04   3.71618031E-04   5.97205530E-05   6.47653400E-05   5.45270991E-05  
  59               6.54737300E-01   2.56668026E+03   8.04676377E-01   1.57287802E-01   3.68668343E-02   5.20777640E-04   3.70567461E-04   5.96248724E-05   6.46151842E-05   5.44365444E-05  
  60               7.15984648E-01   2.60347040E+03   8.00945467E-01   1.56962511E-01   4.09253491E-02   5.19699925E-04   3.69152789E-04   5.94972878E-05   6.44277158E-05   5.43170876E-05  
  61               7.83099973E-01   2.63491351E+03   7.97835976E-01   1.56691409E-01   4.43078607E-02   5.18801407E-04   3.67952965E-04   5.93898023E-05   6.42615559E-05   5.42163451E-05  
  62               8.56626206E-01   2.67074520E+03   7.93873322E-01   1.56345922E-01   4.86184475E-02   5.17656489E-04   3.66409277E-04   5.92526498E-05   6.40612940E-05   5.40892330E-05  
  63               9.37081313E-01   2.70238568E+03   7.90454141E-01   1.56047824E-01   5.23378241E-02   5.16668260E-04   3.65053099E-04   5.91327275E-05   6.38790985E-05   5.39783982E-05  
  64               1.02508306E+00   2.73723973E+03   7.86324622E-01   1.55687794E-01   5.68299019E-02   5.15474819E-04   3.63397933E-04   5.89871781E-05   6.36681989E-05   5.38455516E-05  
  65               1.12120866E+00   2.76909588E+03   7.82610771E-01   1.55364008E-01   6.08697986E-02   5.14401157E-04   3.61882887E-04   5.88540615E-05   6.34703662E-05   5.37250361E-05  
  66               1.22615948E+00   2.80288927E+03   7.78395422E-01   1.54996499E-01   6.54552137E-02   5.13182526E-04   3.60143222E-04   5.87013573E-05   6.32515995E-05   5.35888688E-05  
  67               1.34057431E+00   2.83506469E+03   7.74385547E-01   1.54646905E-01   6.98170965E-02   5.12022973E-04   3.58461283E-04   5.85529977E-05   6.30379701E-05   5.34585893E-05  
  68               1.46524506E+00   2.86784896E+03   7.70139175E-01   1.54276693E-01   7.44362248E-02   5.10794901E-04   3.56656909E-04   5.83927920E-05   6.28131563E-05   5.33207170E-05  
  69               1.60092968E+00   2.89998865E+03   7.65932264E-01   1.53909921E-01   7.90124062E-02   5.09577947E-04   3.54842951E-04   5.82296653E-05   6.25872566E-05   5.31836452E-05  
  70               1.74849207E+00   2.93224927E+03   7.61606306E-01   1.53532769E-01   8.37180671E-02   5.08326329E-04   3.52952842E-04   5.80568416E-05   6.23544337E-05   5.30425362E-05  
  71               1.90882392E+00   2.96423052E+03   7.57261708E-01   1.53153991E-01   8.84439801E-02   5.07069006E-04   3.51028609E-04   5.78767151E-05   6.21183174E-05   5.29004333E-05  
  72               2.08290599E+00   2.99619067E+03   7.52846682E-01   1.52769072E-01   9.32464777E-02   5.05790996E-04   3.49047830E-04   5.76857717E-05   6.18769867E-05   5.27557488E-05  
  73               2.27176538E+00   3.02805593E+03   7.48386878E-01   1.52380247E-01   9.80976557E-02   5.04499672E-04   3.47021362E-04   5.74830799E-05   6.16313422E-05   5.26092505E-05  
  74               2.47648786E+00   3.05972641E+03   7.43916602E-01   1.51990507E-01   1.02960191E-01   5.03204900E-04   3.44964585E-04   5.72678154E-05   6.13825897E-05   5.24619687E-05  
  75               2.69823616E+00   3.09135127E+03   7.39405619E-01   1.51597216E-01   1.07866972E-01   5.01897912E-04   3.42864242E-04   5.70360744E-05   6.11296110E-05   5.23129727E-05  
  76               2.93827890E+00   3.12279981E+03   7.34897308E-01   1.51204156E-01   1.12770806E-01   5.00591185E-04   3.40740386E-04   5.67866439E-05   6.08739154E-05   5.21635650E-05  
  77               3.19799720E+00   3.15425008E+03   7.30351727E-01   1.50807842E-01   1.17715138E-01   4.99273139E-04   3.38575074E-04   5.65139974E-05   6.06140249E-05   5.20125182E-05  
  78               3.47889537E+00   3.18556547E+03   7.25815131E-01   1.50412309E-01   1.22649645E-01   4.97957071E-04   3.36390238E-04   5.62160447E-05   6.03515225E-05   5.18612175E-05  
  79               3.78261488E+00   3.21694637E+03   7.21238969E-01   1.50013322E-01   1.27627135E-01   4.96628900E-04   3.34163376E-04   5.58851318E-05   6.00846179E-05   5.17081727E-05  
  80               4.11094502E+00   3.24823359E+03   7.16677107E-01   1.49615578E-01   1.32589007E-01   4.95304110E-04   3.31920513E-04   5.55182499E-05   5.98151343E-05   5.15549949E-05  
  81               4.46583137E+00   3.27963848E+03   7.12075544E-01   1.49214366E-01   1.37593994E-01   4.93967028E-04   3.29635860E-04   5.51051353E-05   5.95410878E-05   5.14000272E-05  
  82               4.84939474E+00   3.31098137E+03   7.07495485E-01   1.48815024E-01   1.42575512E-01   4.92635242E-04   3.27339560E-04   5.46416713E-05   5.92645310E-05   5.12450982E-05  
  83               5.26394657E+00   3.34248671E+03   7.02877057E-01   1.48412329E-01   1.47598678E-01   4.91291362E-04   3.25002164E-04   5.41142327E-05   5.89832744E-05   5.10883714E-05  
  84               5.71200808E+00   3.37396252E+03   6.98286562E-01   1.48012062E-01   1.52591360E-01   4.89954431E-04   3.22656934E-04   5.35173495E-05   5.86995159E-05   5.09318242E-05  
  85               6.19632564E+00   3.40565266E+03   6.93656293E-01   1.47608318E-01   1.57627195E-01   4.88604770E-04   3.20269524E-04   5.28330132E-05   5.84107989E-05   5.07733817E-05  
  86               6.71989107E+00   3.43735467E+03   6.89056914E-01   1.47207257E-01   1.62629308E-01   4.87262660E-04   3.17875953E-04   5.20543634E-05   5.81194418E-05   5.06151473E-05  
  87               7.28596307E+00   3.46932690E+03   6.84414329E-01   1.46802418E-01   1.67678278E-01   4.85906547E-04   3.15437420E-04   5.11582425E-05   5.78227794E-05   5.04548527E-05  
  88               7.89809700E+00   3.50135682E+03   6.79803413E-01   1.46400326E-01   1.72692649E-01   4.84557901E-04   3.12992643E-04   5.01368688E-05   5.75232425E-05   5.02947221E-05  
  89               8.56016143E+00   3.53371670E+03   6.75143978E-01   1.45993989E-01   1.77759623E-01   4.83193372E-04   3.10498251E-04   4.89614762E-05   5.72179757E-05   5.01323028E-05  
  90               9.27636113E+00   3.56618751E+03   6.70513712E-01   1.45590179E-01   1.82794686E-01   4.81835214E-04   3.07994951E-04   4.76245984E-05   5.69094780E-05   4.99698982E-05  
  91               1.00512703E+01   3.59904884E+03   6.65828538E-01   1.45181561E-01   1.87889265E-01   4.80458908E-04   3.05435734E-04   4.60928027E-05   5.65947895E-05   4.98049391E-05  
  92               1.08898649E+01   3.63207089E+03   6.61170337E-01   1.44775276E-01   1.92954289E-01   4.79087887E-04   3.02864122E-04   4.43625003E-05   5.62765217E-05   4.96398489E-05  
  93               1.17975662E+01   3.66553783E+03   6.56452455E-01   1.44363763E-01   1.98083989E-01   4.77696834E-04   3.00230064E-04   4.23990678E-05   5.59516579E-05   4.94719817E-05  
  94               1.27802795E+01   3.69921083E+03   6.51760476E-01   1.43954486E-01   2.03185275E-01   4.76310211E-04   2.97579814E-04   4.02093477E-05   5.56228995E-05   4.93038648E-05  
  95               1.38444444E+01   3.73338227E+03   6.47004342E-01   1.43539588E-01   2.08356088E-01   4.74901642E-04   2.94859739E-04   3.77646060E-05   5.52871501E-05   4.91327515E-05  
  96               1.49970697E+01   3.76781594E+03   6.42269363E-01   1.43126511E-01   2.13503654E-01   4.73495451E-04   2.92116707E-04   3.50915817E-05   5.49470697E-05   4.89611537E-05  
  97               1.62457967E+01   3.80280540E+03   6.37464616E-01   1.42707324E-01   2.18726872E-01   4.72064900E-04   2.89294878E-04   3.21799914E-05   5.45995758E-05   4.87863012E-05  
  98               1.75989588E+01   3.83810490E+03   6.32679146E-01   1.42289797E-01   2.23928938E-01   4.70635277E-04   2.86444299E-04   2.90908191E-05   5.42474146E-05   4.86108098E-05  
  99               1.90656676E+01   3.87400848E+03   6.27821927E-01   1.41865994E-01   2.29208893E-01   4.69179615E-04   2.83507547E-04   2.58463712E-05   5.38875411E-05   4.84319085E-05  
  100              2.06558854E+01   3.91026252E+03   6.22985274E-01   1.41443972E-01   2.34466415E-01   4.67723919E-04   2.80538020E-04   2.25496380E-05   5.35227617E-05   4.82523013E-05  
  101              2.23805289E+01   3.94716478E+03   6.18077365E-01   1.41015731E-01   2.39801442E-01   4.66240614E-04   2.77476574E-04   1.92581413E-05   5.31500456E-05   4.80691953E-05  
