# ATMO chemical composition profiles
# Chemical abundances given as mole fraction for the 8 most abundant species
# Model Level      Pressure [Ba]    Temperature [K]  H2               He               H2O              CH4              H                CO               NH3              N2              
  1                1.00000000E-05   9.33714404E+01   8.38729731E-01   1.60589401E-01   2.84733577E-52   5.31761114E-04   3.16563563E-109  1.79865898E-139  1.21819252E-04   1.08194273E-33  
  2                3.53318551E-04   1.10869438E+02   8.38729729E-01   1.60589401E-01   1.21865884E-09   5.31761113E-04   3.40152516E-79   7.15906045E-72   1.21819252E-04   9.96585422E-26  
  3                6.27833900E-04   1.38402435E+02   8.38729725E-01   1.60589400E-01   2.44039033E-09   5.31761110E-04   2.66944615E-78   3.10848278E-71   1.21819251E-04   2.09536516E-25  
  4                8.99367266E-04   1.39964677E+02   8.38729723E-01   1.60589400E-01   6.99558195E-09   5.31761109E-04   3.91347783E-76   6.23402764E-69   1.21819251E-04   6.90212113E-25  
  5                1.19513009E-03   1.44028850E+02   8.38729702E-01   1.60589396E-01   1.03518913E-08   5.31761096E-04   5.49927802E-75   5.06029964E-68   1.21819248E-04   1.41665671E-24  
  6                1.54330177E-03   1.46211139E+02   8.38729684E-01   1.60589392E-01   3.48426954E-08   5.31761084E-04   2.04803900E-72   4.20027073E-65   1.21819245E-04   6.90181700E-24  
  7                1.95296079E-03   1.51393302E+02   8.38729568E-01   1.60589370E-01   5.61093143E-08   5.31761011E-04   4.88025729E-71   5.71234750E-64   1.21819229E-04   1.92082761E-23  
  8                2.43476137E-03   1.54294239E+02   8.38729470E-01   1.60589351E-01   1.94669045E-07   5.31760948E-04   1.89500950E-68   5.25182099E-61   1.21819214E-04   1.10609244E-22  
  9                3.00112178E-03   1.60072668E+02   8.38728975E-01   1.60589257E-01   3.12529718E-07   5.31760635E-04   3.52280001E-67   5.92265092E-60   1.21819142E-04   3.03522516E-22  
  10               3.66682397E-03   1.63042007E+02   8.38728579E-01   1.60589181E-01   9.01964535E-07   5.31760384E-04   7.02797161E-65   2.34978253E-57   1.21819085E-04   1.44148900E-21  
  11               4.44926740E-03   1.68778523E+02   8.38727120E-01   1.60588902E-01   1.37525596E-06   5.31759459E-04   7.72716946E-64   1.70534378E-56   1.21818873E-04   3.38895167E-21  
  12               5.36872909E-03   1.71439109E+02   8.38726058E-01   1.60588698E-01   3.11400043E-06   5.31758785E-04   6.40555288E-62   2.15774927E-54   1.21818719E-04   1.18921350E-20  
  13               6.44886800E-03   1.76768136E+02   8.38717058E-01   1.60586975E-01   4.38944030E-06   5.31753079E-04   3.91146611E-61   9.57469759E-54   1.21817412E-04   2.28196840E-20  
  14               7.71731768E-03   1.78865507E+02   8.38709120E-01   1.60585455E-01   1.51189259E-05   5.31748047E-04   1.90600652E-59   1.42734975E-51   1.21816259E-04   6.46251647E-20  
  15               9.20536606E-03   1.84073835E+02   8.38701183E-01   1.60583935E-01   2.45825199E-05   5.31743014E-04   1.07399629E-58   5.99002035E-51   1.21815106E-04   1.15498019E-19  
  16               1.09496362E-02   1.86227995E+02   8.38676727E-01   1.60579253E-01   3.40596895E-05   5.31727509E-04   4.92959668E-57   1.47776710E-49   1.21811554E-04   3.19347405E-19  
  17               1.29897706E-02   1.91812079E+02   8.38652272E-01   1.60574570E-01   6.32173454E-05   5.31712004E-04   3.36806851E-56   2.18309974E-48   1.21808002E-04   6.01384483E-19  
  18               1.53681579E-02   1.94481540E+02   8.38627817E-01   1.60569888E-01   9.23750013E-05   5.31696500E-04   1.67829550E-54   6.91176644E-47   1.21804450E-04   1.76571950E-18  
  19               1.81378141E-02   2.00645937E+02   8.38443200E-01   1.60534540E-01   1.21484144E-04   5.31579451E-04   8.58829305E-54   2.66621246E-46   1.21777636E-04   3.17798032E-18  
  20               2.13224072E-02   2.03010843E+02   8.38258583E-01   1.60499192E-01   3.41598651E-04   5.31462403E-04   6.27154474E-52   6.53727174E-44   1.21750822E-04   1.04033534E-17  
  21               2.48672312E-02   2.10480593E+02   8.38073967E-01   1.60463844E-01   5.61713159E-04   5.31345355E-04   4.26758533E-50   2.68717474E-42   1.21724007E-04   4.10785312E-17  
  22               2.88149801E-02   2.18013493E+02   8.38073967E-01   1.60463844E-01   7.81854225E-04   5.31345355E-04   7.66712696E-48   2.69441458E-40   1.21724007E-04   2.43083086E-16  
  23               3.32676018E-02   2.28033477E+02   8.38073967E-01   1.60463844E-01   7.81854225E-04   5.31345355E-04   3.27609643E-46   7.24905559E-39   1.21724007E-04   9.56448980E-16  
  24               3.84571812E-02   2.35863834E+02   8.38073967E-01   1.60463844E-01   7.81854225E-04   5.31345355E-04   1.67961033E-44   2.29294967E-37   1.21724007E-04   3.71192199E-15  
  25               4.45089283E-02   2.44716747E+02   8.38073967E-01   1.60463844E-01   7.81854225E-04   5.31345355E-04   3.32471022E-43   3.04381634E-36   1.21724007E-04   1.07205869E-14  
  26               5.15678479E-02   2.51842858E+02   8.38073967E-01   1.60463844E-01   7.81854225E-04   5.31345355E-04   9.49819335E-42   5.58804808E-35   1.21724007E-04   3.22225425E-14  
  27               5.98016402E-02   2.60467225E+02   8.38073967E-01   1.60463844E-01   7.81854225E-04   5.31345355E-04   1.34497176E-40   5.45500725E-34   1.21724007E-04   7.97002881E-14  
  28               6.94046675E-02   2.67619727E+02   8.38073967E-01   1.60463844E-01   7.81854225E-04   5.31345355E-04   2.80693199E-39   7.49579337E-33   1.21724007E-04   2.09993248E-13  
  29               8.06029305E-02   2.76480658E+02   8.38073967E-01   1.60463844E-01   7.81854225E-04   5.31345355E-04   3.39630450E-38   6.34121172E-32   1.21724006E-04   4.80987329E-13  
  30               9.36580244E-02   2.84067622E+02   8.38073967E-01   1.60463844E-01   7.81854225E-04   5.31345355E-04   5.99945181E-37   7.49965712E-31   1.21724005E-04   1.18634769E-12  
  31               1.08874580E-01   2.93531385E+02   8.38073967E-01   1.60463844E-01   7.81854225E-04   5.31345355E-04   6.77694870E-36   5.97649490E-30   1.21724002E-04   2.62739502E-12  
  32               1.26604880E-01   3.01864862E+02   8.38073967E-01   1.60463844E-01   7.81854225E-04   5.31345354E-04   1.07695300E-34   6.45591350E-29   1.21723995E-04   6.26032947E-12  
  33               1.47261274E-01   3.12174283E+02   8.38073967E-01   1.60463844E-01   7.81854168E-04   5.31345354E-04   1.18678830E-33   5.05498049E-28   1.21723980E-04   1.37023658E-11  
  34               1.71323877E-01   3.21531836E+02   8.38073967E-01   1.60463844E-01   7.81854110E-04   5.31345354E-04   1.81315853E-32   5.31366490E-27   1.21723943E-04   3.23779407E-11  
  35               1.99350720E-01   3.33080291E+02   8.38073967E-01   1.60463844E-01   7.81853783E-04   5.31345354E-04   2.09755848E-31   4.38477706E-26   1.21723863E-04   7.21782155E-11  
  36               2.31981071E-01   3.44000357E+02   8.38073966E-01   1.60463844E-01   7.81853512E-04   5.31345353E-04   3.30808413E-30   4.81043403E-25   1.21723658E-04   1.74701208E-10  
  37               2.69950368E-01   3.57385550E+02   8.38073966E-01   1.60463843E-01   7.81851902E-04   5.31345353E-04   4.16710621E-29   4.34650142E-24   1.21723195E-04   4.05932195E-10  
  38               3.14112097E-01   3.70450673E+02   8.38073897E-01   1.60463830E-01   7.81850495E-04   5.31345307E-04   7.16062166E-28   5.25389058E-23   1.21721932E-04   1.03217495E-09  
  39               3.65442861E-01   3.86481530E+02   8.38073907E-01   1.60463822E-01   7.81765227E-04   5.31345283E-04   1.25492652E-26   6.57200678E-22   1.21718549E-04   2.72082543E-09  
  40               4.25024765E-01   4.03942237E+02   8.38073920E-01   1.60463814E-01   7.81681312E-04   5.31345256E-04   2.22412623E-25   8.39817721E-21   1.21709243E-04   7.37103333E-09  
  41               4.94100412E-01   4.23115870E+02   8.38074008E-01   1.60463817E-01   7.81598014E-04   5.31345264E-04   3.03202603E-24   8.45680110E-20   1.21686794E-04   1.85961826E-08  
  42               5.74140187E-01   4.42089642E+02   8.38073890E-01   1.60463782E-01   7.81616041E-04   5.31345149E-04   4.10876658E-23   8.49274212E-19   1.21631869E-04   4.60454753E-08  
  43               6.66862168E-01   4.62926122E+02   8.38072233E-01   1.60463554E-01   7.82261022E-04   5.31344394E-04   4.41020285E-22   6.90911703E-18   1.21512286E-04   1.05750757E-07  
  44               7.74268570E-01   4.83547083E+02   8.38071723E-01   1.60463395E-01   7.81766005E-04   5.31343867E-04   4.70778415E-21   5.56970054E-17   1.21247556E-04   2.38055509E-07  
  45               8.98726472E-01   5.06220762E+02   8.38071534E-01   1.60463220E-01   7.81253296E-04   5.31343287E-04   4.10133922E-20   3.73963649E-16   1.20724854E-04   4.99339825E-07  
  46               1.04314039E+00   5.28703633E+02   8.38073272E-01   1.60463144E-01   7.80113165E-04   5.31343035E-04   3.57047815E-19   2.51079018E-15   1.19681670E-04   1.02090327E-06  
  47               1.21119716E+00   5.53523548E+02   8.38074491E-01   1.60462848E-01   7.80111743E-04   5.31342056E-04   2.62004169E-18   1.44002720E-14   1.17839186E-04   1.94203289E-06  
  48               1.40759723E+00   5.78296620E+02   8.38076619E-01   1.60462332E-01   7.80109272E-04   5.31340348E-04   1.93962644E-17   8.31473757E-14   1.14623653E-04   3.54960392E-06  
  49               1.63843357E+00   6.05857682E+02   8.38079845E-01   1.60461550E-01   7.80105557E-04   5.31337757E-04   1.25028344E-16   4.21806432E-13   1.09748372E-04   5.98694758E-06  
  50               1.91171876E+00   6.33691315E+02   8.38084535E-01   1.60460413E-01   7.80100235E-04   5.31333990E-04   8.22358011E-16   2.17266996E-12   1.02662382E-04   9.52951142E-06  
  51               2.23807727E+00   6.64986463E+02   8.38090385E-01   1.60458994E-01   7.80093784E-04   5.31329282E-04   4.82611268E-15   1.00389973E-11   9.38196096E-05   1.39503593E-05  
  52               2.63046756E+00   6.96982396E+02   8.38097292E-01   1.60457316E-01   7.80086614E-04   5.31323689E-04   2.86668679E-14   4.67139080E-11   8.33728057E-05   1.91731249E-05  
  53               3.10280444E+00   7.32937468E+02   8.38104291E-01   1.60455589E-01   7.80080170E-04   5.31317819E-04   1.50767199E-13   1.93745558E-10   7.26905524E-05   2.45135964E-05  
  54               3.66858811E+00   7.69436523E+02   8.38111110E-01   1.60453871E-01   7.80075522E-04   5.31311532E-04   7.77332950E-13   7.86511289E-10   6.21616865E-05   2.97773778E-05  
  55               4.34182748E+00   8.09762818E+02   8.38117069E-01   1.60452362E-01   7.80074131E-04   5.31304495E-04   3.50055100E-12   2.81362201E-09   5.29348802E-05   3.43902086E-05  
  56               5.13603689E+00   8.50003714E+02   8.38122324E-01   1.60451043E-01   7.80075393E-04   5.31293313E-04   1.50077731E-11   9.60185920E-09   4.48452237E-05   3.84345363E-05  
  57               6.06106369E+00   8.93505913E+02   8.38126546E-01   1.60449985E-01   7.80074458E-04   5.31270670E-04   5.56805036E-11   2.86880222E-08   3.83663766E-05   4.16735576E-05  
  58               7.12277821E+00   9.35770427E+02   8.38129895E-01   1.60449067E-01   7.80053799E-04   5.31215501E-04   1.93708780E-10   8.07106290E-08   3.29954333E-05   4.43586782E-05  
  59               8.32822816E+00   9.80601914E+02   8.38132079E-01   1.60448265E-01   7.79977516E-04   5.31091884E-04   5.91934110E-10   2.01468829E-07   2.88563353E-05   4.64279150E-05  
  60               9.68919922E+00   1.02357324E+03   8.38133539E-01   1.60447498E-01   7.79765006E-04   5.30814110E-04   1.70822007E-09   4.76311004E-07   2.54540675E-05   4.81287364E-05  
  61               1.12159333E+01   1.06902277E+03   8.38134841E-01   1.60446828E-01   7.79356894E-04   5.30313665E-04   4.21363918E-09   9.73907574E-07   2.29615470E-05   4.93746978E-05  
  62               1.29205059E+01   1.10873565E+03   8.38136656E-01   1.60446191E-01   7.78613064E-04   5.29446155E-04   9.58581421E-09   1.83829586E-06   2.10448762E-05   5.03327014E-05  
  63               1.48180507E+01   1.14913154E+03   8.38138979E-01   1.60445580E-01   7.77506557E-04   5.28196239E-04   1.93222325E-08   3.08478088E-06   1.98082556E-05   5.09506277E-05  
  64               1.69342248E+01   1.18464815E+03   8.38141849E-01   1.60444829E-01   7.75832188E-04   5.26366685E-04   3.70331849E-08   4.90981329E-06   1.88711113E-05   5.14186573E-05  
  65               1.93002306E+01   1.22186324E+03   8.38145113E-01   1.60443979E-01   7.73669648E-04   5.24050041E-04   6.55096202E-08   7.22100640E-06   1.82962477E-05   5.17053838E-05  
  66               2.19455473E+01   1.25522221E+03   8.38149344E-01   1.60442885E-01   7.70704136E-04   5.20921861E-04   1.13202578E-07   1.03418613E-05   1.78343731E-05   5.19353102E-05  
  67               2.48978019E+01   1.29135162E+03   8.38154226E-01   1.60441625E-01   7.67124671E-04   5.17183496E-04   1.85740229E-07   1.40713043E-05   1.75720387E-05   5.20651644E-05  
  68               2.81822208E+01   1.32457005E+03   8.38160600E-01   1.60439986E-01   7.62376789E-04   5.12267926E-04   3.03055413E-07   1.89747305E-05   1.73223332E-05   5.21881422E-05  
  69               3.18255176E+01   1.36140223E+03   8.38167964E-01   1.60438089E-01   7.56778465E-04   5.06505173E-04   4.77813410E-07   2.47224606E-05   1.71850887E-05   5.22543291E-05  
  70               3.58728267E+01   1.39602666E+03   8.38177446E-01   1.60435640E-01   7.49514302E-04   4.99065509E-04   7.55583891E-07   3.21415884E-05   1.70212438E-05   5.23328050E-05  
  71               4.03777725E+01   1.43476109E+03   8.38188193E-01   1.60432827E-01   7.41131048E-04   4.90504415E-04   1.16533901E-06   4.06770370E-05   1.69360282E-05   5.23709552E-05  
  72               4.53877047E+01   1.47177742E+03   8.38201579E-01   1.60429286E-01   7.30614172E-04   4.79749107E-04   1.80784955E-06   5.13974867E-05   1.68154820E-05   5.24250227E-05  
  73               5.09391196E+01   1.51318257E+03   8.38216139E-01   1.60425247E-01   7.18765980E-04   4.67646215E-04   2.74831963E-06   6.34565462E-05   1.67516330E-05   5.24489792E-05  
  74               5.70537007E+01   1.55315237E+03   8.38233393E-01   1.60420307E-01   7.04622923E-04   4.52894201E-04   4.20273670E-06   7.81495888E-05   1.66431890E-05   5.24923398E-05  
  75               6.37414513E+01   1.59764385E+03   8.38251273E-01   1.60414772E-01   6.89075882E-04   4.36768658E-04   6.30928539E-06   9.42011789E-05   1.65736445E-05   5.25133804E-05  
  76               7.10304202E+01   1.64077090E+03   8.38266287E-01   1.60407305E-01   6.71474053E-04   4.17817903E-04   9.51526782E-06   1.13051048E-04   1.64557516E-05   5.25537594E-05  
  77               7.89092881E+01   1.68854654E+03   8.38276636E-01   1.60399203E-01   6.58068096E-04   3.97197558E-04   1.40401309E-05   1.33548595E-04   1.63756477E-05   5.25713803E-05  
  78               8.73464988E+01   1.73394281E+03   8.38286678E-01   1.60390580E-01   6.43736156E-04   3.75350122E-04   2.04246095E-05   1.55245933E-04   1.62930343E-05   5.25853924E-05  
  79               9.63158287E+01   1.78029751E+03   8.38297255E-01   1.60382945E-01   6.30636860E-04   3.54613239E-04   2.87730394E-05   1.75814691E-04   1.62844244E-05   5.25593562E-05  
  80               1.05760278E+02   1.82377553E+03   8.38304496E-01   1.60374914E-01   6.14888000E-04   3.34983183E-04   3.96770400E-05   1.95250035E-04   1.63027208E-05   5.25156780E-05  
  81               1.15544622E+02   1.86741679E+03   8.38298620E-01   1.60366230E-01   6.04941611E-04   3.16581754E-04   5.29479795E-05   2.13438806E-04   1.63768564E-05   5.24420721E-05  
  82               1.25428198E+02   1.90685763E+03   8.38273783E-01   1.60355654E-01   6.02980474E-04   2.97783851E-04   6.92347168E-05   2.32002983E-04   1.64639426E-05   5.23598344E-05  
  83               1.35578257E+02   1.94660954E+03   8.38226716E-01   1.60343587E-01   6.14145885E-04   2.78702544E-04   8.79882293E-05   2.50849312E-04   1.65916373E-05   5.22588942E-05  
  84               1.45755129E+02   1.98236926E+03   8.38184430E-01   1.60332904E-01   6.22410156E-04   2.61593892E-04   1.09683994E-04   2.67714480E-04   1.67203136E-05   5.21566272E-05  
  85               1.55615698E+02   2.01687341E+03   8.38154311E-01   1.60324996E-01   6.25026826E-04   2.48108776E-04   1.33298651E-04   2.80957804E-04   1.68768764E-05   5.20411046E-05  
  86               1.65459502E+02   2.04786136E+03   8.38142247E-01   1.60319769E-01   6.15369974E-04   2.38191031E-04   1.60222154E-04   2.90614857E-04   1.70296690E-05   5.19243940E-05  
  87               1.75774024E+02   2.08052981E+03   8.38122281E-01   1.60314057E-01   6.07083673E-04   2.29639609E-04   1.89582990E-04   2.98894888E-04   1.72081313E-05   5.17943877E-05  
  88               1.86118222E+02   2.11000541E+03   8.38099172E-01   1.60308371E-01   5.99481502E-04   2.21762284E-04   2.21378388E-04   3.06494088E-04   1.73742245E-05   5.16703126E-05  
  89               1.95275186E+02   2.13665163E+03   8.38074380E-01   1.60303204E-01   5.93400530E-04   2.15423190E-04   2.52803689E-04   3.12569027E-04   1.75488003E-05   5.15449934E-05  
  90               2.03881554E+02   2.15911777E+03   8.38051503E-01   1.60298847E-01   5.87905104E-04   2.09661483E-04   2.85484016E-04   3.18071406E-04   1.77037235E-05   5.14307287E-05  
  91               2.12700534E+02   2.18307630E+03   8.38025731E-01   1.60294551E-01   5.83131068E-04   2.04620495E-04   3.20265533E-04   3.22844868E-04   1.78797792E-05   5.13056333E-05  
  92               2.22665336E+02   2.20736607E+03   8.37994072E-01   1.60289622E-01   5.78099146E-04   1.99271805E-04   3.61820609E-04   3.27887542E-04   1.80614946E-05   5.11730176E-05  
  93               2.33903408E+02   2.23548937E+03   8.37948034E-01   1.60282628E-01   5.73530285E-04   1.94381152E-04   4.07576274E-04   3.32443543E-04   1.82718189E-05   5.10233507E-05  
  94               2.44906229E+02   2.26027939E+03   8.37899353E-01   1.60275523E-01   5.69180349E-04   1.89703690E-04   4.55880932E-04   3.36780879E-04   1.84664139E-05   5.08813984E-05  
  95               2.54194186E+02   2.28207054E+03   8.37852493E-01   1.60269022E-01   5.65837501E-04   1.86074772E-04   5.00759964E-04   3.40099304E-04   1.86569116E-05   5.07462715E-05  
  96               2.62709560E+02   2.29988430E+03   8.37815152E-01   1.60264464E-01   5.62865978E-04   1.82826945E-04   5.44806880E-04   3.43057491E-04   1.88248760E-05   5.06254855E-05  
  97               2.71418671E+02   2.31874627E+03   8.37773870E-01   1.60259793E-01   5.61853717E-04   1.79717029E-04   5.90209188E-04   3.45881678E-04   1.90097684E-05   5.04976993E-05  
  98               2.81407656E+02   2.33864325E+03   8.37726646E-01   1.60254606E-01   5.60867055E-04   1.76565410E-04   6.42031346E-04   3.48713011E-04   1.92152016E-05   5.03559921E-05  
  99               2.92842926E+02   2.36050246E+03   8.37672243E-01   1.60248912E-01   5.60011582E-04   1.73463582E-04   7.02173703E-04   3.51448215E-04   1.94581753E-05   5.01907642E-05  
  100              3.05900983E+02   2.38472874E+03   8.37610087E-01   1.60242492E-01   5.57687421E-04   1.70616269E-04   7.72974621E-04   3.53861965E-04   1.97362849E-05   5.00006839E-05  
  101              3.20793707E+02   2.41109082E+03   8.37540764E-01   1.60235451E-01   5.55365841E-04   1.67727342E-04   8.51555221E-04   3.56275230E-04   2.00383683E-05   4.97943061E-05  
