# ATMO chemical composition profiles
# Chemical abundances given as mole fraction for the 8 most abundant species
# Model Level      Pressure [Ba]    Temperature [K]  H2               He               CH4              H2O              NH3              H2S              N2               H2O(s)          
  1                1.00000000E-05   3.37436824E+01   8.38831838E-01   1.60608958E-01   5.31825872E-04   3.09852133E-17   9.01601763E-08   2.30031067E-05   5.92438554E-40   0.00000000E+00  
  2                9.77588022E-05   4.34664112E+01   8.38831838E-01   1.60608958E-01   5.31825872E-04   2.74751817E-17   9.01601763E-08   2.30031067E-05   6.19914179E-42   0.00000000E+00  
  3                2.00719696E-04   4.70614366E+01   8.38831838E-01   1.60608958E-01   5.31825872E-04   2.69562039E-17   9.01601763E-08   2.30031067E-05   1.47049426E-42   0.00000000E+00  
  4                3.21525768E-04   5.11407105E+01   8.38831838E-01   1.60608958E-01   5.31825872E-04   2.66220334E-17   9.01601763E-08   2.30031067E-05   5.73075373E-43   0.00000000E+00  
  5                4.63236186E-04   5.29688069E+01   8.38831838E-01   1.60608958E-01   5.31825872E-04   2.78506108E-17   9.01601763E-08   2.30031067E-05   2.76082170E-43   0.00000000E+00  
  6                6.29438963E-04   5.60253485E+01   8.38831838E-01   1.60608958E-01   5.31825872E-04   2.77485235E-17   9.01601763E-08   2.30031067E-05   1.49532663E-43   0.00000000E+00  
  7                8.24286677E-04   5.80461874E+01   8.38831838E-01   1.60608958E-01   5.31825872E-04   2.75871309E-17   9.01601763E-08   2.30031067E-05   8.71940304E-44   0.00000000E+00  
  8                1.05267485E-03   6.06948410E+01   8.38831838E-01   1.60608958E-01   5.31825872E-04   2.73947506E-17   9.01601763E-08   2.30031067E-05   5.34631835E-44   0.00000000E+00  
  9                1.32025627E-03   6.25067758E+01   8.38831838E-01   1.60608958E-01   5.31825872E-04   2.71943830E-17   9.01601763E-08   2.30031067E-05   3.39880960E-44   0.00000000E+00  
  10               1.63360547E-03   6.52002319E+01   8.38831838E-01   1.60608958E-01   5.31825872E-04   2.70052219E-17   9.01601763E-08   2.30031067E-05   2.21997947E-44   0.00000000E+00  
  11               2.00046893E-03   6.70498392E+01   8.38831838E-01   1.60608958E-01   5.31825872E-04   2.68417444E-17   9.01601763E-08   2.30031067E-05   1.48040209E-44   0.00000000E+00  
  12               2.42973088E-03   6.98878596E+01   8.38831838E-01   1.60608958E-01   5.31825872E-04   2.67126517E-17   9.01601763E-08   2.30031067E-05   1.00352216E-44   0.00000000E+00  
  13               2.93130603E-03   7.19263423E+01   8.38831838E-01   1.60608958E-01   5.31825872E-04   2.66277973E-17   9.01601763E-08   2.30031067E-05   6.89478916E-45   0.00000000E+00  
  14               3.51401142E-03   7.49318559E+01   8.38831838E-01   1.60608958E-01   5.31825872E-04   2.89574659E-17   9.01601763E-08   2.30031067E-05   4.79774294E-45   0.00000000E+00  
  15               4.18694961E-03   7.73013413E+01   8.38831838E-01   1.60608958E-01   5.31825872E-04   2.85417849E-17   9.01601763E-08   2.30031067E-05   3.37946415E-45   0.00000000E+00  
  16               4.96036169E-03   8.07486667E+01   8.38831838E-01   1.60608958E-01   5.31825872E-04   2.80985351E-17   9.01601763E-08   2.30031067E-05   2.40777901E-45   0.00000000E+00  
  17               5.84595863E-03   8.36865411E+01   8.38831838E-01   1.60608958E-01   5.31825872E-04   2.76572200E-17   9.01601763E-08   2.30031067E-05   1.73353190E-45   0.00000000E+00  
  18               6.85849565E-03   8.79945242E+01   8.38831838E-01   1.60608958E-01   5.31825872E-04   2.92063656E-17   9.01601763E-08   2.30031067E-05   1.25946348E-45   0.00000000E+00  
  19               8.01729766E-03   9.24402369E+01   8.38831838E-01   1.60608958E-01   5.31825872E-04   3.00783935E-17   9.01601763E-08   2.30031067E-05   9.21695139E-46   0.00000000E+00  
  20               9.34727809E-03   9.70077624E+01   8.38831838E-01   1.60608958E-01   5.31825872E-04   2.71817611E-17   9.01601763E-08   2.30031067E-05   6.78067589E-46   0.00000000E+00  
  21               1.08778836E-02   1.01765872E+02   8.38831543E-01   1.60608902E-01   5.31825685E-04   2.61424195E-17   9.05638019E-08   2.30030986E-05   2.80997715E-45   3.15594978E-16  
  22               1.26354493E-02   1.06669806E+02   8.38830304E-01   1.60608664E-01   5.31824900E-04   3.45643748E-16   4.43441619E-07   2.30030647E-05   4.39132254E-42   3.40683680E-15  
  23               1.46049005E-02   1.11662883E+02   8.38826248E-01   1.60607888E-01   5.31822328E-04   3.78180827E-15   1.92430170E-06   2.30029534E-05   3.99293751E-39   2.57844329E-14  
  24               1.66481532E-02   1.16361430E+02   8.38805647E-01   1.60603943E-01   5.31809267E-04   2.96757561E-14   6.78114914E-06   2.30023885E-05   1.40398543E-36   1.00748972E-13  
  25               1.83074203E-02   1.19993202E+02   8.38805647E-01   1.60603943E-01   5.31809267E-04   1.30682234E-13   3.13131757E-05   2.30023885E-05   3.33291285E-34   2.35333727E-13  
  26               1.96307763E-02   1.22665721E+02   8.38729728E-01   1.60589407E-01   5.31761134E-04   3.66769237E-13   3.13946548E-05   2.30003066E-05   1.79558937E-33   8.43405311E-13  
  27               2.06121127E-02   1.24670730E+02   8.38729728E-01   1.60589407E-01   5.31761134E-04   1.21017455E-12   1.21819257E-04   2.30003066E-05   9.13455013E-32   0.00000000E+00  
  28               2.12802270E-02   1.25912037E+02   8.38729728E-01   1.60589407E-01   5.31761134E-04   1.21247853E-12   1.21819257E-04   2.30003066E-05   1.89559555E-31   2.47098297E-12  
  29               2.20628427E-02   1.27455155E+02   8.38729728E-01   1.60589407E-01   5.31761134E-04   3.68346150E-12   1.21819257E-04   2.30003066E-05   4.63403607E-31   0.00000000E+00  
  30               2.29792423E-02   1.29097375E+02   8.38729728E-01   1.60589407E-01   5.31761134E-04   3.69341278E-12   1.21819257E-04   2.30003066E-05   1.16559030E-30   1.06725857E-11  
  31               2.40518787E-02   1.31090534E+02   8.38729728E-01   1.60589407E-01   5.31761134E-04   1.43659984E-11   1.21819257E-04   2.30003066E-05   3.48263223E-30   0.00000000E+00  
  32               2.53068735E-02   1.33222705E+02   8.38729728E-01   1.60589407E-01   5.31761134E-04   1.44195889E-11   1.21819257E-04   2.30003066E-05   1.07706638E-29   5.74749554E-11  
  33               2.67745910E-02   1.35754434E+02   8.38729728E-01   1.60589407E-01   5.31761134E-04   7.18945443E-11   1.21819257E-04   2.30003066E-05   3.95377939E-29   0.00000000E+00  
  34               2.84902991E-02   1.38466359E+02   8.38729727E-01   1.60589407E-01   5.31761133E-04   7.22523035E-11   1.21819257E-04   2.30003066E-05   1.50172564E-28   3.83691120E-10  
  35               3.04949260E-02   1.41625800E+02   8.38729727E-01   1.60589407E-01   5.31761133E-04   4.55943424E-10   1.21819257E-04   2.30003066E-05   6.70271443E-28   0.00000000E+00  
  36               3.28359229E-02   1.45010308E+02   8.38729727E-01   1.60589407E-01   5.31761133E-04   4.56692472E-10   1.21819257E-04   2.30003065E-05   3.07877821E-27   8.03343680E-10  
  37               3.55682633E-02   1.48891882E+02   8.38729725E-01   1.60589407E-01   5.31761132E-04   1.26213113E-09   1.21819256E-04   2.30003065E-05   1.63331266E-26   2.24684241E-09  
  38               3.87555965E-02   1.53036578E+02   8.38729719E-01   1.60589406E-01   5.31761128E-04   3.51547069E-09   1.21819255E-04   2.30003063E-05   8.78871161E-26   6.96821566E-09  
  39               4.24716135E-02   1.57723539E+02   8.38729702E-01   1.60589402E-01   5.31761117E-04   1.05029508E-08   1.21819253E-04   2.30003059E-05   5.32627802E-25   2.06618098E-08  
  40               4.68018795E-02   1.62705421E+02   8.38729646E-01   1.60589392E-01   5.31761082E-04   3.12265210E-08   1.21819245E-04   2.30003043E-05   3.20905209E-24   6.62475755E-08  
  41               5.18454167E-02   1.68266039E+02   8.38729477E-01   1.60589359E-01   5.31760975E-04   9.76615507E-08   1.21819220E-04   2.30002997E-05   2.11118527E-23   2.01139516E-07  
  42               5.77165719E-02   1.74140593E+02   8.38728936E-01   1.60589256E-01   5.31760632E-04   2.99400622E-07   1.21819142E-04   2.30002849E-05   1.34792615E-22   6.43996432E-07  
  43               6.45475913E-02   1.80615136E+02   8.38727313E-01   1.60588945E-01   5.31759603E-04   9.45191578E-07   1.21818906E-04   2.30002404E-05   9.08212698E-22   1.93366988E-06  
  44               7.24907140E-02   1.87413445E+02   8.38722297E-01   1.60587985E-01   5.31756423E-04   2.88435209E-06   1.21818178E-04   2.30001028E-05   5.80726950E-21   5.97472779E-06  
  45               8.17178063E-02   1.94811762E+02   8.38707894E-01   1.60585227E-01   5.31747291E-04   8.87439361E-06   1.21816086E-04   2.29997078E-05   3.78721331E-20   1.71576845E-05  
  46               9.24136825E-02   2.02525265E+02   8.38666327E-01   1.60577268E-01   5.31720937E-04   2.60725000E-05   1.21810048E-04   2.29985679E-05   2.29808812E-19   4.95191411E-05  
  47               1.04751939E-01   2.10798596E+02   8.38557077E-01   1.60556350E-01   5.31651672E-04   7.56712434E-05   1.21794181E-04   2.29955720E-05   1.37578743E-18   1.30176444E-04  
  48               1.18809672E-01   2.19267772E+02   8.38073935E-01   1.60463844E-01   5.31345356E-04   2.05729585E-04   1.21724008E-04   2.29823229E-05   7.42506361E-18   5.76158828E-04  
  49               1.34139665E-01   2.27840706E+02   8.38073935E-01   1.60463844E-01   5.31345356E-04   7.81888413E-04   1.21724008E-04   2.29823229E-05   3.61187728E-17   0.00000000E+00  
  50               1.50540763E-01   2.36126511E+02   8.38073935E-01   1.60463844E-01   5.31345356E-04   7.81888413E-04   1.21724008E-04   2.29823229E-05   1.48445582E-16   0.00000000E+00  
  51               1.69542247E-01   2.45071281E+02   8.38073935E-01   1.60463844E-01   5.31345356E-04   7.81888413E-04   1.21724008E-04   2.29823229E-05   6.14118103E-16   0.00000000E+00  
  52               1.91553760E-01   2.54437218E+02   8.38073935E-01   1.60463844E-01   5.31345356E-04   7.81888413E-04   1.21724008E-04   2.29823229E-05   2.42773941E-15   0.00000000E+00  
  53               2.17049644E-01   2.64479294E+02   8.38073935E-01   1.60463844E-01   5.31345356E-04   7.81888413E-04   1.21724008E-04   2.29823229E-05   9.51967845E-15   0.00000000E+00  
  54               2.46573078E-01   2.74973214E+02   8.38073935E-01   1.60463844E-01   5.31345356E-04   7.81888413E-04   1.21724008E-04   2.29823229E-05   3.54974729E-14   0.00000000E+00  
  55               2.80747776E-01   2.86158441E+02   8.38073935E-01   1.60463844E-01   5.31345356E-04   7.81888413E-04   1.21724007E-04   2.29823229E-05   1.29821937E-13   0.00000000E+00  
  56               3.20297560E-01   2.97831355E+02   8.38073935E-01   1.60463844E-01   5.31345356E-04   7.81888413E-04   1.21724007E-04   2.29823229E-05   4.50616457E-13   0.00000000E+00  
  57               3.66061274E-01   3.10218324E+02   8.38073935E-01   1.60463844E-01   5.31345356E-04   7.81888413E-04   1.21724005E-04   2.29823229E-05   1.52289685E-12   0.00000000E+00  
  58               4.19000299E-01   3.23131487E+02   8.38073935E-01   1.60463844E-01   5.31345356E-04   7.81888252E-04   1.21723998E-04   2.29823229E-05   4.88343842E-12   0.00000000E+00  
  59               4.80212409E-01   3.36781893E+02   8.38073934E-01   1.60463844E-01   5.31345355E-04   7.81888251E-04   1.21723977E-04   2.29823229E-05   1.51724439E-11   0.00000000E+00  
  60               5.50950803E-01   3.50996149E+02   8.38073935E-01   1.60463844E-01   5.31345355E-04   7.81887281E-04   1.21723918E-04   2.29823229E-05   4.47648555E-11   0.00000000E+00  
  61               6.32678538E-01   3.65983063E+02   8.38073924E-01   1.60463842E-01   5.31345349E-04   7.81887271E-04   1.21723751E-04   2.29823226E-05   1.27709036E-10   0.00000000E+00  
  62               7.27080346E-01   3.81577527E+02   8.38073936E-01   1.60463843E-01   5.31345352E-04   7.81874847E-04   1.21723314E-04   2.29823227E-05   3.46613538E-10   0.00000000E+00  
  63               8.36072163E-01   3.97994997E+02   8.38073937E-01   1.60463843E-01   5.31345351E-04   7.81874846E-04   1.21722187E-04   2.29823227E-05   9.09659495E-10   0.00000000E+00  
  64               9.61837136E-01   4.15053187E+02   8.38073592E-01   1.60463776E-01   5.31345130E-04   7.81874526E-04   1.21719407E-04   2.29823131E-05   2.27430842E-09   0.00000000E+00  
  65               1.10686056E+00   4.32982325E+02   8.38073975E-01   1.60463808E-01   5.31345236E-04   7.81461435E-04   1.21712979E-04   2.29823177E-05   5.50047352E-09   0.00000000E+00  
  66               1.27398973E+00   4.51585263E+02   8.38073962E-01   1.60463802E-01   5.31345217E-04   7.81465477E-04   1.21698584E-04   2.29823169E-05   1.26958550E-08   0.00000000E+00  
  67               1.46640800E+00   4.71104997E+02   8.38073508E-01   1.60463723E-01   5.31344955E-04   7.81553303E-04   1.21667189E-04   2.29823055E-05   2.83635638E-08   0.00000000E+00  
  68               1.68763206E+00   4.91312369E+02   8.38071705E-01   1.60463713E-01   5.31344921E-04   7.83399138E-04   1.21602824E-04   2.29823041E-05   6.05419335E-08   0.00000000E+00  
  69               1.94176050E+00   5.12469643E+02   8.38069067E-01   1.60463171E-01   5.31343126E-04   7.83396491E-04   1.21473328E-04   2.29822264E-05   1.25084536E-07   0.00000000E+00  
  70               2.23392973E+00   5.34375353E+02   8.38072215E-01   1.60463392E-01   5.31343859E-04   7.80148534E-04   1.21228774E-04   2.29822581E-05   2.47445459E-07   0.00000000E+00  
  71               2.56992429E+00   5.57337771E+02   8.38072516E-01   1.60463319E-01   5.31343618E-04   7.80148189E-04   1.20775266E-04   2.29822477E-05   4.74171949E-07   0.00000000E+00  
  72               2.95608481E+00   5.81111538E+02   8.38073039E-01   1.60463193E-01   5.31343198E-04   7.80147594E-04   1.19984806E-04   2.29822296E-05   8.69353884E-07   0.00000000E+00  
  73               3.39985529E+00   6.06011900E+02   8.38073923E-01   1.60462978E-01   5.31342487E-04   7.80146599E-04   1.18648780E-04   2.29821989E-05   1.53728514E-06   0.00000000E+00  
  74               3.91020830E+00   6.31806951E+02   8.38075314E-01   1.60462641E-01   5.31341369E-04   7.80145059E-04   1.16545935E-04   2.29821505E-05   2.58857963E-06   0.00000000E+00  
  75               4.49904791E+00   6.58916451E+02   8.38077415E-01   1.60462131E-01   5.31339681E-04   7.80142794E-04   1.13371355E-04   2.29820776E-05   4.17567678E-06   0.00000000E+00  
  76               5.18081092E+00   6.87177004E+02   8.38080330E-01   1.60461424E-01   5.31337336E-04   7.80139774E-04   1.08964296E-04   2.29819763E-05   6.37893804E-06   0.00000000E+00  
  77               5.97231800E+00   7.17008344E+02   8.38084148E-01   1.60460497E-01   5.31334254E-04   7.80136083E-04   1.03189909E-04   2.29818435E-05   9.26577985E-06   0.00000000E+00  
  78               6.89234130E+00   7.48181289E+02   8.38088690E-01   1.60459390E-01   5.31330554E-04   7.80132219E-04   9.63083274E-05   2.29816849E-05   1.27061509E-05   0.00000000E+00  
  79               7.96204113E+00   7.81041281E+02   8.38093756E-01   1.60458144E-01   5.31326312E-04   7.80128891E-04   8.85902068E-05   2.29815064E-05   1.65647385E-05   0.00000000E+00  
  80               9.20820427E+00   8.15401035E+02   8.38098855E-01   1.60456828E-01   5.31321600E-04   7.80127119E-04   8.06046557E-05   2.29813176E-05   2.05570147E-05   0.00000000E+00  
  81               1.06571911E+01   8.51528077E+02   8.38103873E-01   1.60455518E-01   5.31316232E-04   7.80127868E-04   7.26957468E-05   2.29811293E-05   2.45109722E-05   0.00000000E+00  
  82               1.23314427E+01   8.88955886E+02   8.38108713E-01   1.60454334E-01   5.31309506E-04   7.80133309E-04   6.53460191E-05   2.29809582E-05   2.81853869E-05   0.00000000E+00  
  83               1.42468865E+01   9.27629090E+02   8.38113047E-01   1.60453256E-01   5.31298754E-04   7.80141674E-04   5.87023976E-05   2.29933372E-05   3.15067882E-05   0.00000000E+00  
  84               1.64177296E+01   9.66996504E+02   8.38116689E-01   1.60452299E-01   5.31278673E-04   7.80149235E-04   5.29393120E-05   2.30321852E-05   3.43879661E-05   0.00000000E+00  
  85               1.88666693E+01   1.00717027E+03   8.38119508E-01   1.60451415E-01   5.31238311E-04   7.80145376E-04   4.79634646E-05   2.31501418E-05   3.68755498E-05   0.00000000E+00  
  86               2.16119320E+01   1.04777749E+03   8.38121075E-01   1.60450531E-01   5.31158510E-04   7.80108936E-04   4.37598246E-05   2.34757626E-05   3.89770233E-05   0.00000000E+00  
  87               2.46666883E+01   1.08875191E+03   8.38122090E-01   1.60449782E-01   5.31007674E-04   7.80004343E-04   4.02104458E-05   2.42840753E-05   4.07514037E-05   0.00000000E+00  
  88               2.80423987E+01   1.12979502E+03   8.38124287E-01   1.60449211E-01   5.30738053E-04   7.79852896E-04   3.72463841E-05   2.42838843E-05   4.22331657E-05   0.00000000E+00  
  89               3.17590298E+01   1.17090405E+03   8.38126392E-01   1.60448654E-01   5.30278954E-04   7.79530788E-04   3.47642812E-05   2.42836264E-05   4.34739037E-05   0.00000000E+00  
  90               3.58588382E+01   1.21224964E+03   8.38128592E-01   1.60448065E-01   5.29530547E-04   7.78937887E-04   3.26747026E-05   2.42832583E-05   4.45182788E-05   0.00000000E+00  
  91               4.03801418E+01   1.25383079E+03   8.38131089E-01   1.60447393E-01   5.28364236E-04   7.77943203E-04   3.09198493E-05   2.42827234E-05   4.53951114E-05   0.00000000E+00  
  92               4.53533765E+01   1.29573575E+03   8.38134132E-01   1.60446573E-01   5.26613954E-04   7.76377712E-04   2.94356627E-05   2.42819441E-05   4.61363149E-05   0.00000000E+00  
  93               5.08018548E+01   1.33766580E+03   8.38137938E-01   1.60445549E-01   5.24115607E-04   7.74071800E-04   2.82035557E-05   2.42808306E-05   4.67510398E-05   0.00000000E+00  
  94               5.67427532E+01   1.37977144E+03   8.38142797E-01   1.60444244E-01   5.20661555E-04   7.70815235E-04   2.71641643E-05   2.42792501E-05   4.72687644E-05   0.00000000E+00  
  95               6.32082465E+01   1.42173152E+03   8.38148849E-01   1.60442609E-01   5.16118489E-04   7.66471066E-04   2.63147782E-05   2.42770400E-05   4.76906272E-05   0.00000000E+00  
  96               7.02789851E+01   1.46416802E+03   8.38156397E-01   1.60440551E-01   5.10236379E-04   7.60795417E-04   2.55979073E-05   2.42738551E-05   4.80450259E-05   0.00000000E+00  
  97               7.80218481E+01   1.50678755E+03   8.38165382E-01   1.60438043E-01   5.02965640E-04   7.53750993E-04   2.50234628E-05   2.42691009E-05   4.83266870E-05   0.00000000E+00  
  98               8.64785460E+01   1.54993558E+03   8.38175874E-01   1.60435012E-01   4.94139277E-04   7.45217508E-04   2.45495507E-05   2.42613250E-05   4.85560826E-05   0.00000000E+00  
  99               9.56637374E+01   1.59299426E+03   8.38186425E-01   1.60431323E-01   4.83978105E-04   7.35417824E-04   2.41924297E-05   2.42474103E-05   4.87247222E-05   0.00000000E+00  
  100              1.05563872E+02   1.63613652E+03   8.38198150E-01   1.60427383E-01   4.72423909E-04   7.25486171E-04   2.39160683E-05   2.41741146E-05   4.88503149E-05   0.00000000E+00  
  101              1.16144778E+02   1.67864361E+03   8.38117935E-01   1.60405298E-01   4.60089477E-04   7.13402437E-04   2.37323445E-05   2.41617470E-05   4.89199977E-05   0.00000000E+00  
