# ATMO chemical composition profiles
# Chemical abundances given as mole fraction for the 8 most abundant species
# Model Level      Pressure [Ba]    Temperature [K]  H2               He               H2O              CH4              H                CO               NH3              N2              
  1                1.00000000E-05   1.62255330E+02   8.38073938E-01   1.60463844E-01   1.31591050E-04   5.31345356E-04   8.80404348E-66   3.26000590E-52   1.21724008E-04   5.89756052E-17  
  2                1.67539816E-05   1.70439240E+02   8.38073938E-01   1.60463844E-01   7.81884532E-04   5.31345356E-04   1.54304163E-62   8.42568702E-49   1.21724008E-04   4.41801575E-16  
  3                2.42841522E-05   1.82262436E+02   8.38073938E-01   1.60463844E-01   7.81884532E-04   5.31345356E-04   2.66005125E-58   3.82379021E-45   1.21724008E-04   1.07943799E-14  
  4                3.34357653E-05   1.98433668E+02   8.38073938E-01   1.60463844E-01   7.81884532E-04   5.31345356E-04   2.68850785E-53   9.91392359E-41   1.21724006E-04   6.03754390E-13  
  5                4.46069620E-05   2.04104121E+02   8.38073938E-01   1.60463844E-01   7.81884532E-04   5.31345356E-04   9.04307539E-52   1.65598106E-39   1.21724005E-04   1.47468658E-12  
  6                5.83000156E-05   2.14843944E+02   8.38073938E-01   1.60463844E-01   7.81884532E-04   5.31345356E-04   4.77853044E-49   3.70596658E-37   1.21723985E-04   1.14212776E-11  
  7                7.51187027E-05   2.17210797E+02   8.38073938E-01   1.60463844E-01   7.81884532E-04   5.31345356E-04   1.58597733E-48   7.66297591E-37   1.21723984E-04   1.17669648E-11  
  8                9.58074641E-05   2.25824362E+02   8.38073938E-01   1.60463844E-01   7.81884532E-04   5.31345356E-04   1.38752693E-46   3.38997435E-35   1.21723914E-04   4.66512994E-11  
  9                1.21269064E-04   2.27251231E+02   8.38073938E-01   1.60463844E-01   7.81884532E-04   5.31345356E-04   2.55245428E-46   4.16781314E-35   1.21723929E-04   3.91462382E-11  
  10               1.52617456E-04   2.35324195E+02   8.38073939E-01   1.60463844E-01   7.81884532E-04   5.31345356E-04   1.18137891E-44   1.04843404E-33   1.21723760E-04   1.23762171E-10  
  11               1.91211263E-04   2.36733685E+02   8.38073938E-01   1.60463844E-01   7.81884532E-04   5.31345356E-04   2.04631194E-44   1.23952437E-33   1.21723801E-04   1.03353806E-10  
  12               2.38736998E-04   2.44597547E+02   8.38073939E-01   1.60463844E-01   7.81884531E-04   5.31345355E-04   6.40327521E-43   2.20526367E-32   1.21723439E-04   2.84493011E-10  
  13               2.97256466E-04   2.46045795E+02   8.38073939E-01   1.60463844E-01   7.81884532E-04   5.31345356E-04   1.07735704E-42   2.56462809E-32   1.21723532E-04   2.37692453E-10  
  14               3.69332064E-04   2.53602309E+02   8.38073939E-01   1.60463844E-01   7.81884531E-04   5.31345355E-04   2.30192557E-41   3.23651946E-31   1.21722872E-04   5.67866734E-10  
  15               4.58100805E-04   2.55017166E+02   8.38073939E-01   1.60463844E-01   7.81884531E-04   5.31345355E-04   3.66509849E-41   3.59926851E-31   1.21723073E-04   4.67515842E-10  
  16               5.67451830E-04   2.62333405E+02   8.38073940E-01   1.60463844E-01   7.81884530E-04   5.31345355E-04   5.77196561E-40   3.44628728E-30   1.21722016E-04   9.95589574E-10  
  17               7.02152624E-04   2.63651890E+02   8.38073939E-01   1.60463844E-01   7.81884531E-04   5.31345355E-04   8.54861448E-40   3.59742215E-30   1.21722408E-04   7.99678945E-10  
  18               8.68099138E-04   2.70855087E+02   8.38073940E-01   1.60463844E-01   7.81884529E-04   5.31345354E-04   1.07959532E-38   2.82067739E-29   1.21720874E-04   1.56683994E-09  
  19               1.07251233E-03   2.72256081E+02   8.38073940E-01   1.60463844E-01   7.81884530E-04   5.31345354E-04   1.59768427E-38   2.95158936E-29   1.21721482E-04   1.26267187E-09  
  20               1.32427040E-03   2.79705550E+02   8.38073942E-01   1.60463844E-01   7.81884528E-04   5.31345353E-04   1.86549015E-37   2.16339573E-28   1.21719185E-04   2.41099100E-09  
  21               1.63423483E-03   2.81452977E+02   8.38073941E-01   1.60463844E-01   7.81884529E-04   5.31345354E-04   3.00417289E-37   2.45791389E-28   1.21719970E-04   2.01869864E-09  
  22               2.01576692E-03   2.89410830E+02   8.38073943E-01   1.60463843E-01   7.81884526E-04   5.31345352E-04   3.50024549E-36   1.80913013E-27   1.21716254E-04   3.87662128E-09  
  23               2.48521553E-03   2.91582690E+02   8.38073943E-01   1.60463843E-01   7.81884527E-04   5.31345352E-04   6.18882170E-36   2.25079571E-27   1.21717236E-04   3.38529420E-09  
  24               3.06264800E-03   3.00051393E+02   8.38073947E-01   1.60463842E-01   7.81884522E-04   5.31345349E-04   7.05146635E-35   1.63250009E-26   1.21711039E-04   6.48379971E-09  
  25               3.77262098E-03   3.02761981E+02   8.38073946E-01   1.60463842E-01   7.81884523E-04   5.31345349E-04   1.38921208E-34   2.25614666E-26   1.21712118E-04   5.94412318E-09  
  26               4.64531889E-03   3.11722829E+02   8.38073953E-01   1.60463841E-01   7.81884514E-04   5.31345344E-04   1.50979797E-33   1.57523260E-25   1.21701530E-04   1.12376016E-08  
  27               5.71752321E-03   3.14877296E+02   8.38073952E-01   1.60463841E-01   7.81884514E-04   5.31345344E-04   3.16155947E-33   2.31358794E-25   1.21702792E-04   1.06065424E-08  
  28               7.03447006E-03   3.24286356E+02   8.38073964E-01   1.60463838E-01   7.81883445E-04   5.31345335E-04   3.19672403E-32   1.51873192E-24   1.21684833E-04   1.95849813E-08  
  29               8.65135555E-03   3.27966331E+02   8.38073964E-01   1.60463838E-01   7.81883446E-04   5.31345335E-04   7.14594978E-32   2.38114538E-24   1.21685858E-04   1.90727153E-08  
  30               1.06357419E-02   3.37891278E+02   8.38073982E-01   1.60463833E-01   7.81883420E-04   5.31345318E-04   6.76055244E-31   1.47754198E-23   1.21655045E-04   3.44768490E-08  
  31               1.30695637E-02   3.42140154E+02   8.38073984E-01   1.60463833E-01   7.81880957E-04   5.31345318E-04   1.60032248E-30   2.45524190E-23   1.21654917E-04   3.45408024E-08  
  32               1.60538989E-02   3.52660046E+02   8.38074020E-01   1.60463824E-01   7.81880915E-04   5.31345290E-04   1.42448113E-29   1.44796581E-22   1.21601456E-04   6.12681992E-08  
  33               1.97116213E-02   3.57468830E+02   8.38074011E-01   1.60463822E-01   7.81880903E-04   5.31345282E-04   3.50038378E-29   2.50314987E-22   1.21598726E-04   6.26321235E-08  
  34               2.41926140E-02   3.68712834E+02   8.38074085E-01   1.60463808E-01   7.81868562E-04   5.31345235E-04   2.97006572E-28   1.42068375E-21   1.21504774E-04   1.09603117E-07  
  35               2.96784136E-02   3.74327039E+02   8.38074093E-01   1.60463806E-01   7.81868552E-04   5.31345228E-04   7.80739977E-28   2.63106172E-21   1.21492228E-04   1.15875441E-07  
  36               3.63919551E-02   3.86598202E+02   8.38074143E-01   1.60463765E-01   7.81868355E-04   5.31345094E-04   6.54601659E-27   1.48818720E-20   1.21317639E-04   2.03154417E-07  
  37               4.46016886E-02   3.93333156E+02   8.38074244E-01   1.60463765E-01   7.81790279E-04   5.31345092E-04   1.89417667E-26   3.03698314E-20   1.21273892E-04   2.25027724E-07  
  38               5.46368175E-02   4.06872840E+02   8.38074471E-01   1.60463710E-01   7.81790027E-04   5.31344909E-04   1.58287732E-25   1.72735619E-19   1.20930979E-04   3.96463372E-07  
  39               6.68934666E-02   4.15118300E+02   8.38074561E-01   1.60463687E-01   7.81789982E-04   5.31344836E-04   5.16571406E-25   3.98171068E-19   1.20793657E-04   4.65115755E-07  
  40               8.18659217E-02   4.30240950E+02   8.38074535E-01   1.60463477E-01   7.81790216E-04   5.31344138E-04   4.33278422E-24   2.29450865E-18   1.20076133E-04   8.23797883E-07  
  41               1.00153133E-01   4.40383716E+02   8.38075316E-01   1.60463455E-01   7.81200873E-04   5.31344068E-04   1.60278819E-23   6.00418775E-18   1.19675873E-04   1.02391975E-06  
  42               1.22520434E-01   4.57737201E+02   8.38075892E-01   1.60463122E-01   7.81317755E-04   5.31342965E-04   1.39794325E-22   3.62924596E-17   1.18052650E-04   1.83540509E-06  
  43               1.49889250E-01   4.70947926E+02   8.38074932E-01   1.60462916E-01   7.83129203E-04   5.31342280E-04   6.34979648E-22   1.17058501E-16   1.16764452E-04   2.47942582E-06  
  44               1.83530853E-01   4.91237102E+02   8.38074969E-01   1.60461821E-01   7.83123859E-04   5.31338654E-04   5.78783509E-21   7.45371782E-16   1.12926202E-04   4.39813540E-06  
  45               2.25021619E-01   5.06433209E+02   8.38079555E-01   1.60461614E-01   7.80136292E-04   5.31337970E-04   2.61637688E-20   2.38898287E-15   1.10144896E-04   5.78870974E-06  
  46               2.76642592E-01   5.29853666E+02   8.38084513E-01   1.60460412E-01   7.80130458E-04   5.31333990E-04   2.35946379E-19   1.51363998E-14   1.02653966E-04   9.53371889E-06  
  47               3.41244690E-01   5.48912153E+02   8.38088288E-01   1.60459497E-01   7.80126024E-04   5.31330960E-04   1.19794740E-18   5.45609539E-14   9.69502535E-05   1.23852281E-05  
  48               4.23071272E-01   5.76701076E+02   8.38096025E-01   1.60457621E-01   7.80116956E-04   5.31324748E-04   1.09334627E-17   3.49848462E-13   8.52596267E-05   1.82298301E-05  
  49               5.27288909E-01   6.00794387E+02   8.38101603E-01   1.60456269E-01   7.80110475E-04   5.31320269E-04   6.15462080E-17   1.38905502E-12   7.68303063E-05   2.24439773E-05  
  50               6.60619380E-01   6.33827246E+02   8.38110217E-01   1.60454180E-01   7.80100619E-04   5.31313346E-04   5.45568412E-16   8.63732558E-12   6.38150570E-05   2.89508099E-05  
  51               8.30602527E-01   6.63234213E+02   8.38115765E-01   1.60452834E-01   7.80094613E-04   5.31308861E-04   3.10107497E-15   3.45654845E-11   5.54276011E-05   3.31440272E-05  
  52               1.04571612E+00   7.01171192E+02   8.38122712E-01   1.60451146E-01   7.80087834E-04   5.31303113E-04   2.40116839E-14   1.89070498E-10   4.49158192E-05   3.83992778E-05  
  53               1.31462492E+00   7.35153854E+02   8.38126814E-01   1.60450128E-01   7.80085161E-04   5.31299236E-04   1.23100713E-13   6.90136339E-10   3.86362583E-05   4.15386721E-05  
  54               1.64550860E+00   7.77098534E+02   8.38131345E-01   1.60448946E-01   7.80083742E-04   5.31292873E-04   7.73182243E-13   3.12479200E-09   3.15022843E-05   4.51052109E-05  
  55               2.04757784E+00   8.14833857E+02   8.38133920E-01   1.60448233E-01   7.80084029E-04   5.31283651E-04   3.37955091E-12   9.95713978E-09   2.73113310E-05   4.72004169E-05  
  56               2.53140817E+00   8.60347075E+02   8.38136967E-01   1.60447477E-01   7.80076133E-04   5.31253732E-04   1.71081072E-11   3.72954100E-08   2.26934357E-05   4.95090775E-05  
  57               3.10712951E+00   9.01753201E+02   8.38138734E-01   1.60446990E-01   7.80039498E-04   5.31184904E-04   6.40177079E-11   1.04366377E-07   1.99312265E-05   5.08899958E-05  
  58               3.78387466E+00   9.50907355E+02   8.38140512E-01   1.60446356E-01   7.79868915E-04   5.30955381E-04   2.67691833E-10   3.31403855E-07   1.69039442E-05   5.24033897E-05  
  59               4.57467944E+00   9.96028193E+02   8.38140994E-01   1.60445706E-01   7.79446256E-04   5.30460123E-04   8.69009028E-10   8.23838917E-07   1.50533030E-05   5.33284459E-05  
  60               5.49484777E+00   1.04847896E+03   8.38142503E-01   1.60444795E-01   7.78162824E-04   5.29053261E-04   3.03771241E-09   2.22608392E-06   1.30787957E-05   5.43152940E-05  
  61               6.56057169E+00   1.09613486E+03   8.38146497E-01   1.60443769E-01   7.75771462E-04   5.26482064E-04   8.43827617E-09   4.79136924E-06   1.19119722E-05   5.48981812E-05  
  62               7.79223645E+00   1.14987058E+03   8.38154826E-01   1.60441666E-01   7.70133713E-04   5.20596630E-04   2.42821172E-08   1.06647199E-05   1.07006308E-05   5.55026903E-05  
  63               9.22202493E+00   1.19761120E+03   8.38166151E-01   1.60438833E-01   7.61922872E-04   5.12144791E-04   5.66035203E-08   1.91004248E-05   1.00683761E-05   5.58170850E-05  
  64               1.08922035E+01   1.25037341E+03   8.38186144E-01   1.60433865E-01   7.47140142E-04   4.97072311E-04   1.34255729E-07   3.41450018E-05   9.41452398E-06   5.61407182E-05  
  65               1.28485393E+01   1.29613693E+03   8.38207316E-01   1.60428607E-01   7.31192801E-04   4.80880012E-04   2.64247744E-07   5.03074014E-05   9.19400951E-06   5.62469666E-05  
  66               1.51427639E+01   1.34677325E+03   8.38238041E-01   1.60420977E-01   7.07943059E-04   4.57356597E-04   5.31682626E-07   7.37865972E-05   8.92424175E-06   5.63753691E-05  
  67               1.78348425E+01   1.39031214E+03   8.38263550E-01   1.60414591E-01   6.88365651E-04   4.37564349E-04   9.17058425E-07   9.35385954E-05   8.98435497E-06   5.63385798E-05  
  68               2.10007153E+01   1.43962358E+03   8.38297341E-01   1.60406071E-01   6.62313881E-04   4.11258792E-04   1.64320368E-06   1.19786933E-04   8.96155244E-06   5.63397943E-05  
  69               2.47078629E+01   1.48281840E+03   8.38321708E-01   1.60399725E-01   6.43011280E-04   3.91714970E-04   2.61696342E-06   1.39279221E-04   9.18986579E-06   5.62154701E-05  
  70               2.90111602E+01   1.53325454E+03   8.38354297E-01   1.60390973E-01   6.16800142E-04   3.65110513E-04   4.40011123E-06   1.65806847E-04   9.28795769E-06   5.61509538E-05  
  71               3.39558115E+01   1.57895076E+03   8.38376457E-01   1.60384155E-01   5.97391330E-04   3.45095967E-04   6.77919951E-06   1.85744788E-04   9.56131694E-06   5.59981397E-05  
  72               3.95950566E+01   1.63312720E+03   8.38403512E-01   1.60374168E-01   5.71416245E-04   3.17282061E-04   1.10927140E-05   2.13441525E-04   9.67392772E-06   5.59173503E-05  
  73               4.59155706E+01   1.68401981E+03   8.38410624E-01   1.60363826E-01   5.53042418E-04   2.94281120E-04   1.70153620E-05   2.36309169E-04   9.89552110E-06   5.57792257E-05  
  74               5.28242281E+01   1.74430725E+03   8.38426678E-01   1.60351991E-01   5.36767326E-04   2.61090827E-04   2.76953418E-05   2.69315480E-04   9.91746342E-06   5.57304873E-05  
  75               6.01565805E+01   1.80338759E+03   8.38434628E-01   1.60340160E-01   5.14407757E-04   2.33316821E-04   4.32391823E-05   2.96873696E-04   9.95608417E-06   5.56671650E-05  
  76               6.77706417E+01   1.86209446E+03   8.38411296E-01   1.60325346E-01   5.05229147E-04   2.04956589E-04   6.55490840E-05   3.24985888E-04   9.97681177E-06   5.56086361E-05  
  77               7.53595851E+01   1.91248844E+03   8.38345521E-01   1.60308829E-01   5.20008576E-04   1.80160569E-04   9.13835411E-05   3.49557125E-04   1.00882693E-05   5.55129913E-05  
  78               8.25675794E+01   1.95967940E+03   8.38288023E-01   1.60295721E-01   5.35185015E-04   1.58407538E-04   1.23046598E-04   3.71102820E-04   1.01602993E-05   5.54405501E-05  
  79               8.90851356E+01   1.99666927E+03   8.38272503E-01   1.60290322E-01   5.25825795E-04   1.48859907E-04   1.53302680E-04   3.80454769E-04   1.02885231E-05   5.53400198E-05  
  80               9.64844965E+01   2.03928191E+03   8.38235592E-01   1.60281259E-01   5.15147450E-04   1.37951816E-04   1.96001693E-04   3.91111153E-04   1.03904029E-05   5.52435857E-05  
  81               1.02717700E+02   2.07040297E+03   8.38210218E-01   1.60276422E-01   5.09004558E-04   1.31623317E-04   2.32318353E-04   3.97242517E-04   1.05276203E-05   5.51401589E-05  
  82               1.07624652E+02   2.09645268E+03   8.38185251E-01   1.60271845E-01   5.03461611E-04   1.25915164E-04   2.67396512E-04   4.02778504E-04   1.05976415E-05   5.50749626E-05  
  83               1.13376484E+02   2.12261547E+03   8.38155350E-01   1.60267411E-01   4.99201068E-04   1.21474746E-04   3.05937296E-04   4.07030560E-04   1.07318498E-05   5.49758642E-05  
  84               1.20077387E+02   2.15481170E+03   8.38112739E-01   1.60261234E-01   4.93509599E-04   1.15544483E-04   3.60369480E-04   4.12719678E-04   1.08444296E-05   5.48789303E-05  
  85               1.27829950E+02   2.18729808E+03   8.38032158E-01   1.60249212E-01   4.89088695E-04   1.10857559E-04   4.21724142E-04   4.17120029E-04   1.10222712E-05   5.47442155E-05  
  86               1.33965372E+02   2.21432217E+03   8.37983871E-01   1.60243333E-01   4.85053824E-04   1.06618775E-04   4.79918102E-04   4.21127919E-04   1.11287875E-05   5.46535936E-05  
  87               1.38710900E+02   2.23220878E+03   8.37948786E-01   1.60239472E-01   4.83140892E-04   1.04559537E-04   5.20748424E-04   4.23020113E-04   1.12458340E-05   5.45688859E-05  
  88               1.44370252E+02   2.25571069E+03   8.37898333E-01   1.60233746E-01   4.80033845E-04   1.01259156E-04   5.80026751E-04   4.26100518E-04   1.13457960E-05   5.44843018E-05  
  89               1.51085594E+02   2.27986936E+03   8.37841704E-01   1.60227840E-01   4.77715368E-04   9.87240196E-05   6.44844431E-04   4.28388684E-04   1.15043563E-05   5.43673430E-05  
  90               1.59014712E+02   2.30984813E+03   8.37761365E-01   1.60219247E-01   4.74451671E-04   9.51848383E-05   7.34660628E-04   4.31612260E-04   1.16560347E-05   5.42436509E-05  
  91               1.68328735E+02   2.34105896E+03   8.37664211E-01   1.60209970E-01   4.76836234E-04   9.15673376E-05   8.36435110E-04   4.34904543E-04   1.18694086E-05   5.40900696E-05  
  92               1.79219699E+02   2.37795145E+03   8.37543245E-01   1.60198118E-01   4.73856916E-04   8.80430547E-05   9.72164837E-04   4.37989053E-04   1.20885501E-05   5.39165662E-05  
  93               1.91896771E+02   2.41663775E+03   8.37400963E-01   1.60184717E-01   4.71549599E-04   8.51368336E-05   1.13007053E-03   4.40386621E-04   1.23698904E-05   5.37041729E-05  
  94               2.06596575E+02   2.46045153E+03   8.37217336E-01   1.60167617E-01   4.69027034E-04   8.19149785E-05   1.33324541E-03   4.42991511E-04   1.26735415E-05   5.34670275E-05  
  95               2.23581341E+02   2.50637426E+03   8.36999733E-01   1.60147853E-01   4.67155272E-04   7.92603062E-05   1.57239415E-03   4.44928221E-04   1.30420219E-05   5.31865676E-05  
  96               2.43158040E+02   2.55701116E+03   8.36725274E-01   1.60123152E-01   4.65326630E-04   7.65173570E-05   1.87330098E-03   4.46810172E-04   1.34456802E-05   5.28720393E-05  
  97               2.65683417E+02   2.60994087E+03   8.36399811E-01   1.60094303E-01   4.64159415E-04   7.43021291E-05   2.22868412E-03   4.48019904E-04   1.39190999E-05   5.25078866E-05  
  98               2.91581708E+02   2.66699375E+03   8.35999242E-01   1.60059036E-01   4.63293398E-04   7.22003334E-05   2.66529094E-03   4.48926464E-04   1.44440215E-05   5.20979744E-05  
  99               3.21351878E+02   2.72598407E+03   8.35531394E-01   1.60018249E-01   4.63215291E-04   7.06800227E-05   3.17388647E-03   4.49053541E-04   1.50526678E-05   5.16275496E-05  
  100              3.55583440E+02   2.78902506E+03   8.34963299E-01   1.59968897E-01   4.63566443E-04   6.93070929E-05   3.79085923E-03   4.48774242E-04   1.57248815E-05   5.10998653E-05  
  101              3.94979802E+02   2.85356446E+03   8.34312053E-01   1.59912694E-01   4.64851426E-04   6.85590955E-05   4.49686439E-03   4.47601353E-04   1.64987168E-05   5.04980118E-05  
