# ATMO chemical composition profiles
# Chemical abundances given as mole fraction for the 8 most abundant species
# Model Level      Pressure [Ba]    Temperature [K]  H2               He               H2O              H                CH4              CO               NH3              N2              
  1                1.00000000E-05   2.12173314E+02   8.38073947E-01   1.60463844E-01   7.81875170E-04   2.49329806E-49   5.31345355E-04   3.03296802E-36   1.21723590E-04   2.09002294E-10  
  2                3.80681119E-05   2.42548924E+02   8.38073957E-01   1.60463842E-01   7.81875159E-04   6.49461825E-43   5.31345347E-04   3.72391678E-31   1.21708567E-04   7.71954889E-09  
  3                7.16911568E-05   2.56621432E+02   8.38073980E-01   1.60463836E-01   7.81875132E-04   1.76034031E-40   5.31345329E-04   2.68305306E-29   1.21674277E-04   2.48620496E-08  
  4                1.12663601E-04   2.61088747E+02   8.38073974E-01   1.60463837E-01   7.81875138E-04   8.04845290E-40   5.31345333E-04   5.59199251E-29   1.21682551E-04   2.07255528E-08  
  5                1.62753093E-04   2.70375214E+02   8.38074002E-01   1.60463831E-01   7.81875106E-04   2.10006568E-38   5.31345311E-04   6.82811236E-28   1.21641096E-04   4.14508547E-08  
  6                2.24033175E-04   2.73543233E+02   8.38073993E-01   1.60463833E-01   7.81875116E-04   5.49762606E-38   5.31345318E-04   1.03584797E-27   1.21654194E-04   3.49023097E-08  
  7                2.99074273E-04   2.81500880E+02   8.38074027E-01   1.60463825E-01   7.81875076E-04   7.13466266E-37   5.31345291E-04   7.44936390E-27   1.21602874E-04   6.05595225E-08  
  8                3.90991782E-04   2.84087096E+02   8.38074014E-01   1.60463828E-01   7.81875092E-04   1.45622128E-36   5.31345302E-04   9.69230235E-27   1.21622948E-04   5.05234513E-08  
  9                5.03640773E-04   2.91360367E+02   8.38074053E-01   1.60463818E-01   7.81875046E-04   1.28362842E-35   5.31345270E-04   5.13658254E-26   1.21564213E-04   7.98875117E-08  
  10               6.41702518E-04   2.93787776E+02   8.38074036E-01   1.60463823E-01   7.81875065E-04   2.39146328E-35   5.31345284E-04   6.38692471E-26   1.21589432E-04   6.72793461E-08  
  11               8.10935600E-04   3.00933757E+02   8.38074083E-01   1.60463811E-01   7.81875010E-04   1.77053639E-34   5.31345246E-04   2.96738700E-25   1.21518568E-04   1.02707117E-07  
  12               1.01835645E-03   3.03472093E+02   8.38074064E-01   1.60463816E-01   7.81875032E-04   3.27454721E-34   5.31345261E-04   3.75132501E-25   1.21546737E-04   8.86244080E-08  
  13               1.27258839E-03   3.10695030E+02   8.38074122E-01   1.60463802E-01   7.81874963E-04   2.18377214E-33   5.31345214E-04   1.61197146E-24   1.21458880E-04   1.32547727E-07  
  14               1.58414222E-03   3.13361561E+02   8.38074099E-01   1.60463807E-01   7.81874988E-04   4.01440817E-33   5.31345231E-04   2.05616696E-24   1.21491879E-04   1.16049927E-07  
  15               1.96594971E-03   3.20726328E+02   8.38074172E-01   1.60463789E-01   7.81873671E-04   2.46340121E-32   5.31345174E-04   8.28156500E-24   1.21383542E-04   1.70211815E-07  
  16               2.43377048E-03   3.23512768E+02   8.38074145E-01   1.60463796E-01   7.81873703E-04   4.47879651E-32   5.31345195E-04   1.05560051E-23   1.21423926E-04   1.50022607E-07  
  17               3.00692829E-03   3.31069502E+02   8.38074233E-01   1.60463775E-01   7.81873599E-04   2.56590908E-31   5.31345125E-04   4.02424368E-23   1.21291754E-04   2.16100237E-07  
  18               3.70898259E-03   3.34104673E+02   8.38074200E-01   1.60463781E-01   7.81873632E-04   4.74694010E-31   5.31345148E-04   5.25097274E-23   1.21337125E-04   1.93417281E-07  
  19               4.56881513E-03   3.42024371E+02   8.38074314E-01   1.60463755E-01   7.81870218E-04   2.63728208E-30   5.31345059E-04   1.95993543E-22   1.21169367E-04   2.77286380E-07  
  20               5.62152147E-03   3.45341407E+02   8.38074280E-01   1.60463763E-01   7.81870258E-04   4.96938243E-30   5.31345087E-04   2.61621756E-22   1.21220638E-04   2.51653871E-07  
  21               6.91022386E-03   3.53640298E+02   8.38074412E-01   1.60463727E-01   7.81870083E-04   2.66891892E-29   5.31344968E-04   9.51950359E-22   1.21007991E-04   3.57964085E-07  
  22               8.48744473E-03   3.57300139E+02   8.38074385E-01   1.60463737E-01   7.81858817E-04   5.15258118E-29   5.31345000E-04   1.30603054E-21   1.21064177E-04   3.29874844E-07  
  23               1.04174670E-02   3.66034356E+02   8.38074565E-01   1.60463693E-01   7.81858604E-04   2.68726262E-28   5.31344856E-04   4.64868724E-21   1.20792112E-04   4.65890523E-07  
  24               1.27780276E-02   3.70088395E+02   8.38074525E-01   1.60463703E-01   7.81858651E-04   5.32582713E-28   5.31344888E-04   6.56444573E-21   1.20851797E-04   4.36051948E-07  
  25               1.56648482E-02   3.79395759E+02   8.38074730E-01   1.60463639E-01   7.81858340E-04   2.74505633E-27   5.31344676E-04   2.32361134E-20   1.20492683E-04   6.15584672E-07  
  26               1.91936046E-02   3.83978095E+02   8.38074731E-01   1.60463651E-01   7.81819565E-04   5.66807170E-27   5.31344715E-04   3.42472738E-20   1.20546394E-04   5.88733373E-07  
  27               2.35059004E-02   3.93925738E+02   8.38075050E-01   1.60463573E-01   7.81819194E-04   2.88517455E-26   5.31344459E-04   1.20461207E-19   1.20064013E-04   8.29894431E-07  
  28               2.87722907E-02   3.99118399E+02   8.38075025E-01   1.60463579E-01   7.81819223E-04   6.21408407E-26   5.31344478E-04   1.85576219E-19   1.20100953E-04   8.11426884E-07  
  29               3.52035975E-02   4.09869941E+02   8.38075347E-01   1.60463448E-01   7.81818627E-04   3.16350136E-25   5.31344044E-04   6.56643325E-19   1.19429173E-04   1.14726719E-06  
  30               4.30527297E-02   4.15866254E+02   8.38075490E-01   1.60463458E-01   7.81672252E-04   7.21635434E-25   5.31344075E-04   1.07300133E-18   1.19415517E-04   1.15409887E-06  
  31               5.26325108E-02   4.27608771E+02   8.38076133E-01   1.60463301E-01   7.81672601E-04   3.70837796E-24   5.31343558E-04   3.85444963E-18   1.18442613E-04   1.64049141E-06  
  32               6.43199226E-02   4.34525074E+02   8.38076196E-01   1.60463283E-01   7.81675116E-04   8.93431069E-24   5.31343496E-04   6.66719382E-18   1.18333757E-04   1.69491232E-06  
  33               7.85883209E-02   4.47466058E+02   8.38076569E-01   1.60462943E-01   7.81703014E-04   4.66061090E-23   5.31342372E-04   2.44487808E-17   1.16882499E-04   2.42041270E-06  
  34               9.60052863E-02   4.55764313E+02   8.38076941E-01   1.60462863E-01   7.81139325E-04   1.23108071E-22   5.31342106E-04   4.63801205E-17   1.16515143E-04   2.60405989E-06  
  35               1.17291210E-01   4.70632479E+02   8.38076705E-01   1.60462478E-01   7.82960516E-04   6.91398915E-22   5.31340832E-04   1.84264727E-16   1.14117397E-04   3.80278710E-06  
  36               1.43312938E-01   4.80985257E+02   8.38077377E-01   1.60462315E-01   7.82959721E-04   2.08724055E-21   5.31340292E-04   3.99875471E-16   1.13101662E-04   4.31059305E-06  
  37               1.75193042E-01   4.96605076E+02   8.38077166E-01   1.60461337E-01   7.82954952E-04   1.05814029E-20   5.31337055E-04   1.44229630E-15   1.09837944E-04   5.94208104E-06  
  38               2.14297425E-01   5.08658055E+02   8.38080927E-01   1.60461283E-01   7.80125536E-04   3.36686452E-20   5.31336875E-04   3.29268088E-15   1.08084975E-04   6.81854513E-06  
  39               2.62419014E-01   5.26355234E+02   8.38084100E-01   1.60460514E-01   7.80121802E-04   1.73987802E-19   5.31334327E-04   1.21510916E-14   1.03289500E-04   9.21599044E-06  
  40               3.21730640E-01   5.40731026E+02   8.38086036E-01   1.60460044E-01   7.80119529E-04   5.95936025E-19   5.31332773E-04   2.99812699E-14   1.00364452E-04   1.06783367E-05  
  41               3.95177554E-01   5.61133683E+02   8.38090438E-01   1.60458978E-01   7.80114366E-04   3.17422933E-18   5.31329240E-04   1.14306497E-13   9.37144780E-05   1.40029189E-05  
  42               4.86381245E-01   5.78607768E+02   8.38093376E-01   1.60458265E-01   7.80110939E-04   1.18590574E-17   5.31326881E-04   3.07313692E-13   8.92751931E-05   1.62222912E-05  
  43               6.00119662E-01   6.02509610E+02   8.38098893E-01   1.60456928E-01   7.80104530E-04   6.53913655E-17   5.31322451E-04   1.21417717E-12   8.09389366E-05   2.03899122E-05  
  44               7.42121934E-01   6.23783427E+02   8.38102668E-01   1.60456012E-01   7.80100229E-04   2.62806480E-16   5.31319418E-04   3.50853515E-12   7.52347990E-05   2.32416338E-05  
  45               9.19603236E-01   6.51829966E+02   8.38108623E-01   1.60454569E-01   7.80093582E-04   1.46554371E-15   5.31314625E-04   1.40534661E-11   6.62360064E-05   2.77404824E-05  
  46               1.14123590E+00   6.77492595E+02   8.38112661E-01   1.60453588E-01   7.80089415E-04   6.13230281E-15   5.31311350E-04   4.23715560E-11   6.01298722E-05   3.07931778E-05  
  47               1.41693914E+00   7.09964303E+02   8.38118107E-01   1.60452264E-01   7.80084347E-04   3.29523944E-14   5.31306841E-04   1.64593209E-10   5.18879450E-05   3.49136392E-05  
  48               1.75717174E+00   7.39761723E+02   8.38121609E-01   1.60451399E-01   7.80082203E-04   1.33328073E-13   5.31303654E-04   4.84102753E-10   4.65405023E-05   3.75870324E-05  
  49               2.17307704E+00   7.75957088E+02   8.38125716E-01   1.60450325E-01   7.80080921E-04   6.39807009E-13   5.31298869E-04   1.70334164E-09   4.00631269E-05   4.08253128E-05  
  50               2.67785472E+00   8.09281840E+02   8.38128214E-01   1.60449621E-01   7.80082248E-04   2.36229592E-12   5.31293582E-04   4.64496320E-09   3.59485819E-05   4.28823182E-05  
  51               3.28523631E+00   8.48695490E+02   8.38131324E-01   1.60448859E-01   7.80083949E-04   9.81909174E-12   5.31281252E-04   1.44135672E-08   3.12321864E-05   4.52402264E-05  
  52               4.00927639E+00   8.84907875E+02   8.38133241E-01   1.60448371E-01   7.80081395E-04   3.21055881E-11   5.31258529E-04   3.54666578E-08   2.82877392E-05   4.67122645E-05  
  53               4.86603829E+00   9.26967272E+02   8.38135346E-01   1.60447796E-01   7.80053930E-04   1.14354080E-10   5.31195811E-04   9.61532505E-08   2.49697874E-05   4.83710200E-05  
  54               5.87184258E+00   9.65839381E+02   8.38136372E-01   1.60447348E-01   7.79978273E-04   3.31691290E-10   5.31076411E-04   2.13870808E-07   2.28836847E-05   4.94138961E-05  
  55               7.04471182E+00   1.01079804E+03   8.38136969E-01   1.60446675E-01   7.79737310E-04   1.03651320E-09   5.30769697E-04   5.17922282E-07   2.04921396E-05   5.06093966E-05  
  56               8.40503502E+00   1.05270797E+03   8.38137128E-01   1.60446120E-01   7.79265654E-04   2.72135613E-09   5.30225298E-04   1.05981833E-06   1.89665671E-05   5.13719363E-05  
  57               9.97915648E+00   1.10051391E+03   8.38139753E-01   1.60445431E-01   7.78179166E-04   7.54079713E-09   5.28977206E-04   2.30426138E-06   1.72502488E-05   5.22297378E-05  
  58               1.17941555E+01   1.14483626E+03   8.38142890E-01   1.60444613E-01   7.76372199E-04   1.78126107E-08   5.26996800E-04   4.27994274E-06   1.61990379E-05   5.27548458E-05  
  59               1.38816526E+01   1.19451487E+03   8.38148651E-01   1.60443136E-01   7.72639892E-04   4.35297731E-08   5.23038742E-04   8.22927066E-06   1.50313293E-05   5.33377063E-05  
  60               1.62800844E+01   1.23996331E+03   8.38155937E-01   1.60441284E-01   7.67468284E-04   9.16748825E-08   5.17648227E-04   1.36084121E-05   1.43906045E-05   5.36566363E-05  
  61               1.90460231E+01   1.28993661E+03   8.38168078E-01   1.60438221E-01   7.58615857E-04   1.96414988E-07   5.08539461E-04   2.26980081E-05   1.36906380E-05   5.40040130E-05  
  62               2.22366510E+01   1.33463602E+03   8.38181213E-01   1.60434906E-01   7.48727403E-04   3.65752285E-07   4.98427976E-04   3.27874587E-05   1.34370353E-05   5.41275055E-05  
  63               2.59083556E+01   1.38343476E+03   8.38200216E-01   1.60430110E-01   7.34317106E-04   6.90892639E-07   4.83771209E-04   4.74108058E-05   1.31216159E-05   5.42798732E-05  
  64               3.01197509E+01   1.42663020E+03   8.38217454E-01   1.60425704E-01   7.20942153E-04   1.15659341E-06   4.70189284E-04   6.09581102E-05   1.31602441E-05   5.42545368E-05  
  65               3.49587687E+01   1.47453518E+03   8.38240470E-01   1.60419760E-01   7.02968222E-04   1.98587884E-06   4.51963938E-04   7.91329608E-05   1.31044147E-05   5.42733295E-05  
  66               4.05191382E+01   1.51731898E+03   8.38258666E-01   1.60414843E-01   6.88220914E-04   3.09329146E-06   4.36928425E-04   9.41175662E-05   1.33377583E-05   5.41469473E-05  
  67               4.68700802E+01   1.56585503E+03   8.38282361E-01   1.60408182E-01   6.68610644E-04   4.99895082E-06   4.16906940E-04   1.14063998E-04   1.34383228E-05   5.40822064E-05  
  68               5.40415218E+01   1.61010233E+03   8.38299207E-01   1.60402564E-01   6.53090909E-04   7.48863445E-06   4.00688767E-04   1.30202871E-04   1.37478758E-05   5.39119436E-05  
  69               6.20227801E+01   1.66130166E+03   8.38306850E-01   1.60391953E-01   6.32561590E-04   1.17447672E-05   3.78224196E-04   1.52539610E-04   1.38641241E-05   5.38297418E-05  
  70               7.07854667E+01   1.70941811E+03   8.38311266E-01   1.60384342E-01   6.30246297E-04   1.74109915E-05   3.56080783E-04   1.74550129E-04   1.41038055E-05   5.36849263E-05  
  71               8.03401822E+01   1.76610461E+03   8.38334590E-01   1.60374763E-01   6.04867721E-04   2.72160533E-05   3.29510788E-04   2.00924495E-04   1.41118389E-05   5.36436158E-05  
  72               9.05844278E+01   1.82206137E+03   8.38344647E-01   1.60364302E-01   5.83624911E-04   4.11242899E-05   3.04084192E-04   2.26115308E-04   1.41581984E-05   5.35766941E-05  
  73               1.01362766E+02   1.87690205E+03   8.38331665E-01   1.60351854E-01   5.71777710E-04   6.01484256E-05   2.78833193E-04   2.51090873E-04   1.42266319E-05   5.34933727E-05  
  74               1.12368063E+02   1.92715458E+03   8.38278100E-01   1.60335964E-01   5.77723111E-04   8.34042328E-05   2.54565628E-04   2.75070349E-04   1.43642269E-05   5.33763693E-05  
  75               1.23089721E+02   1.97349618E+03   8.38203830E-01   1.60320293E-01   6.05428525E-04   1.11084469E-04   2.28734553E-04   3.00637449E-04   1.44979644E-05   5.32678565E-05  
  76               1.33140059E+02   2.01305474E+03   8.38192740E-01   1.60314183E-01   5.93541181E-04   1.40148375E-04   2.16579671E-04   3.12525094E-04   1.46655840E-05   5.31396381E-05  
  77               1.44479257E+02   2.05593916E+03   8.38163111E-01   1.60305311E-01   5.81460559E-04   1.78518235E-04   2.04184992E-04   3.24591662E-04   1.48441276E-05   5.29975495E-05  
  78               1.54346340E+02   2.09016270E+03   8.38140837E-01   1.60299767E-01   5.73060844E-04   2.14692548E-04   1.95507573E-04   3.32985985E-04   1.50292700E-05   5.28605805E-05  
  79               1.62268847E+02   2.11718096E+03   8.38119179E-01   1.60295105E-01   5.66636727E-04   2.47405791E-04   1.88846768E-04   3.39406591E-04   1.51651243E-05   5.27556582E-05  
  80               1.71505873E+02   2.14639855E+03   8.38090833E-01   1.60290007E-01   5.60530073E-04   2.86897844E-04   1.82464204E-04   3.45510173E-04   1.53479685E-05   5.26223755E-05  
  81               1.82216945E+02   2.17955257E+03   8.38052643E-01   1.60283805E-01   5.53868540E-04   3.37874834E-04   1.75460960E-04   3.52173825E-04   1.55462563E-05   5.24732427E-05  
  82               1.94554730E+02   2.21507098E+03   8.37971337E-01   1.60270672E-01   5.47632819E-04   3.99894990E-04   1.68817390E-04   3.58401875E-04   1.57934317E-05   5.22908373E-05  
  83               2.03959178E+02   2.24151872E+03   8.37929276E-01   1.60265176E-01   5.43159632E-04   4.51893069E-04   1.64048457E-04   3.62856601E-04   1.59717034E-05   5.21576070E-05  
  84               2.10838555E+02   2.25973738E+03   8.37897333E-01   1.60261236E-01   5.40438289E-04   4.90466726E-04   1.61112227E-04   3.65563869E-04   1.61131724E-05   5.20554270E-05  
  85               2.19034811E+02   2.28141035E+03   8.37856065E-01   1.60256256E-01   5.37191310E-04   5.39932433E-04   1.57599218E-04   3.68793837E-04   1.62706819E-05   5.19381693E-05  
  86               2.28756364E+02   2.30571625E+03   8.37803345E-01   1.60250087E-01   5.33962750E-04   5.99644026E-04   1.54056182E-04   3.72000191E-04   1.64687261E-05   5.17943176E-05  
  87               2.40234713E+02   2.33379152E+03   8.37732188E-01   1.60242549E-01   5.34964204E-04   6.75100977E-04   1.49178134E-04   3.76499449E-04   1.66947450E-05   5.16323190E-05  
  88               2.53727858E+02   2.36499191E+03   8.37651987E-01   1.60234087E-01   5.31593805E-04   7.67041107E-04   1.45210888E-04   3.79986007E-04   1.69679326E-05   5.14341574E-05  
  89               2.69524096E+02   2.40009025E+03   8.37550928E-01   1.60223765E-01   5.28123053E-04   8.81795742E-04   1.41042743E-04   3.83575845E-04   1.72818483E-05   5.12047243E-05  
  90               2.87942639E+02   2.43869022E+03   8.37425850E-01   1.60211435E-01   5.24835917E-04   1.02238193E-03   1.36952230E-04   3.86979311E-04   1.76504320E-05   5.09365942E-05  
  91               3.09342337E+02   2.48100918E+03   8.37270825E-01   1.60196589E-01   5.21753979E-04   1.19521676E-03   1.32941250E-04   3.90172994E-04   1.80758089E-05   5.06268910E-05  
  92               3.34124127E+02   2.52712121E+03   8.37079133E-01   1.60178671E-01   5.18947492E-04   1.40750636E-03   1.29057261E-04   3.93085895E-04   1.85620696E-05   5.02717965E-05  
  93               3.62758204E+02   2.57642053E+03   8.36846668E-01   1.60157449E-01   5.16700797E-04   1.66329583E-03   1.25566944E-04   3.95434015E-04   1.91253910E-05   4.98627697E-05  
  94               3.95785869E+02   2.62992307E+03   8.36559110E-01   1.60131560E-01   5.14770725E-04   1.97852247E-03   1.22172869E-04   3.97468177E-04   1.97538878E-05   4.94013834E-05  
  95               4.33850406E+02   2.68604930E+03   8.36217338E-01   1.60101325E-01   5.13705084E-04   2.35141614E-03   1.19407416E-04   3.98646472E-04   2.04808127E-05   4.88725935E-05  
  96               4.77715548E+02   2.74655229E+03   8.35797689E-01   1.60064481E-01   5.13086128E-04   2.80833818E-03   1.16763762E-04   3.99403097E-04   2.12837470E-05   4.82806457E-05  
  97               5.28335409E+02   2.80961836E+03   8.35303844E-01   1.60021606E-01   5.13492395E-04   3.34442088E-03   1.14792478E-04   3.99173360E-04   2.22027084E-05   4.76076155E-05  
  98               5.86929359E+02   2.87728792E+03   8.34702792E-01   1.59969636E-01   5.14544458E-04   3.99613780E-03   1.12987944E-04   3.98361983E-04   2.32171876E-05   4.68545614E-05  
  99               6.54784028E+02   2.94755477E+03   8.34002454E-01   1.59909503E-01   5.16792260E-04   4.75404940E-03   1.11862674E-04   3.96437929E-04   2.43683983E-05   4.60034358E-05  
  100              7.33311457E+02   3.02228770E+03   8.33163460E-01   1.59837600E-01   5.19892436E-04   5.66148957E-03   1.10929242E-04   3.93773536E-04   2.56305514E-05   4.50566561E-05  
  101              8.23848103E+02   3.09887158E+03   8.32208645E-01   1.59756149E-01   5.24356262E-04   6.69285012E-03   1.10695892E-04   3.89865530E-04   2.70421832E-05   4.39998514E-05  
