# ATMO chemical composition profiles
# Chemical abundances given as mole fraction for the 8 most abundant species
# Model Level      Pressure [Ba]    Temperature [K]  H2               He               CH4              H2O              NH3              H2S              N2               H2O(s)          
  1                1.00000000E-05   3.76311719E+01   8.38831765E-01   1.60608946E-01   5.31825832E-04   5.28654774E-17   1.75834348E-07   2.30034364E-05   2.25331214E-39   0.00000000E+00  
  2                1.33346506E-04   4.79061552E+01   8.38831765E-01   1.60608946E-01   5.31825832E-04   5.10155370E-17   1.75834348E-07   2.30034364E-05   1.26723768E-41   0.00000000E+00  
  3                2.75670627E-04   5.35930849E+01   8.38831765E-01   1.60608946E-01   5.31825832E-04   5.08388465E-17   1.75834348E-07   2.30034364E-05   2.96510698E-42   0.00000000E+00  
  4                4.39908891E-04   5.79715604E+01   8.38831765E-01   1.60608946E-01   5.31825832E-04   5.12308821E-17   1.75834348E-07   2.30034364E-05   1.16438305E-42   0.00000000E+00  
  5                6.29406473E-04   6.13075558E+01   8.38831765E-01   1.60608946E-01   5.31825832E-04   5.11864426E-17   1.75834348E-07   2.30034364E-05   5.68799159E-43   0.00000000E+00  
  6                8.47954968E-04   6.45655140E+01   8.38831765E-01   1.60608946E-01   5.31825832E-04   5.11158062E-17   1.75834348E-07   2.30034364E-05   3.13383248E-43   0.00000000E+00  
  7                1.09996648E-03   6.72949298E+01   8.38831765E-01   1.60608946E-01   5.31825832E-04   5.10386401E-17   1.75834348E-07   2.30034364E-05   1.86235495E-43   0.00000000E+00  
  8                1.39042487E-03   7.04460287E+01   8.38831765E-01   1.60608946E-01   5.31825832E-04   5.09667778E-17   1.75834348E-07   2.30034364E-05   1.16553763E-43   0.00000000E+00  
  9                1.72441153E-03   7.31850460E+01   8.38831765E-01   1.60608946E-01   5.31825832E-04   5.09067907E-17   1.75834348E-07   2.30034364E-05   7.57773683E-44   0.00000000E+00  
  10               2.10512382E-03   7.65094826E+01   8.38831765E-01   1.60608946E-01   5.31825832E-04   5.08612191E-17   1.75834348E-07   2.30034364E-05   5.08470857E-44   0.00000000E+00  
  11               2.53587358E-03   7.96476181E+01   8.38831765E-01   1.60608946E-01   5.31825832E-04   5.48437901E-17   1.75834348E-07   2.30034364E-05   3.50401662E-44   0.00000000E+00  
  12               3.02061289E-03   8.35906213E+01   8.38831765E-01   1.60608946E-01   5.31825832E-04   5.45876033E-17   1.75834348E-07   2.30034364E-05   2.46962613E-44   0.00000000E+00  
  13               3.56391702E-03   8.80435833E+01   8.38831765E-01   1.60608946E-01   5.31825832E-04   5.17163640E-17   1.75834348E-07   2.30034364E-05   1.77405136E-44   0.00000000E+00  
  14               4.17533223E-03   9.25627885E+01   8.38831765E-01   1.60608946E-01   5.31825832E-04   5.15342415E-17   1.75834348E-07   2.30034364E-05   1.29252598E-44   0.00000000E+00  
  15               4.86562471E-03   9.71139944E+01   8.38831765E-01   1.60608946E-01   5.31825832E-04   5.13539733E-17   1.75834348E-07   2.30034364E-05   9.51796580E-45   0.00000000E+00  
  16               5.64723337E-03   1.01798405E+02   8.38831229E-01   1.60608843E-01   5.31825492E-04   5.13211995E-17   1.76567743E-07   2.30034217E-05   4.08816791E-44   5.62742250E-16  
  17               6.52677954E-03   1.06526713E+02   8.38829186E-01   1.60608452E-01   5.31824197E-04   6.20060609E-16   8.17873462E-07   2.30033657E-05   4.94085882E-41   5.24174613E-15  
  18               7.47565422E-03   1.11200994E+02   8.38823342E-01   1.60607333E-01   5.31820492E-04   5.89813391E-15   3.25825781E-06   2.30032054E-05   3.01723664E-38   3.21287872E-14  
  19               8.39820886E-03   1.15413331E+02   8.38799626E-01   1.60602792E-01   5.31805456E-04   3.83468966E-14   1.02471662E-05   2.30025550E-05   6.22723849E-36   2.96885344E-13  
  20               9.10025249E-03   1.18429691E+02   8.38799626E-01   1.60602792E-01   5.31805456E-04   3.35232241E-13   3.84899644E-05   2.30025550E-05   6.78124486E-34   0.00000000E+00  
  21               9.65848314E-03   1.20724635E+02   8.38729726E-01   1.60589409E-01   5.31761139E-04   3.36468203E-13   3.85643860E-05   2.30006382E-05   3.01094648E-33   1.35549396E-12  
  22               1.00880488E-02   1.22434729E+02   8.38729726E-01   1.60589409E-01   5.31761139E-04   1.69196216E-12   1.21819258E-04   2.30006382E-05   8.77649816E-32   0.00000000E+00  
  23               1.03997177E-02   1.23645278E+02   8.38729726E-01   1.60589409E-01   5.31761139E-04   1.69196216E-12   1.21819258E-04   2.30006382E-05   1.84100148E-31   0.00000000E+00  
  24               1.07591378E-02   1.25013351E+02   8.38729726E-01   1.60589409E-01   5.31761139E-04   1.69540991E-12   1.21819258E-04   2.30006382E-05   4.18019224E-31   3.69761011E-12  
  25               1.11735042E-02   1.26554368E+02   8.38729726E-01   1.60589409E-01   5.31761139E-04   5.39302002E-12   1.21819258E-04   2.30006382E-05   1.03078690E-30   0.00000000E+00  
  26               1.16510750E-02   1.28285609E+02   8.38729726E-01   1.60589409E-01   5.31761139E-04   5.40780322E-12   1.21819258E-04   2.30006382E-05   2.76910172E-30   1.58545414E-11  
  27               1.22013350E-02   1.30225146E+02   8.38729726E-01   1.60589409E-01   5.31761139E-04   2.12623446E-11   1.21819258E-04   2.30006382E-05   8.12182843E-30   0.00000000E+00  
  28               1.28351640E-02   1.32390665E+02   8.38729726E-01   1.60589409E-01   5.31761139E-04   2.13388105E-11   1.21819258E-04   2.30006382E-05   2.60195118E-29   8.20074385E-11  
  29               1.35650320E-02   1.34800033E+02   8.38729726E-01   1.60589409E-01   5.31761139E-04   1.03346249E-10   1.21819258E-04   2.30006382E-05   9.09597174E-29   0.00000000E+00  
  30               1.44052240E-02   1.37467419E+02   8.38729726E-01   1.60589409E-01   5.31761139E-04   1.03813367E-10   1.21819258E-04   2.30006382E-05   3.45439836E-28   5.00970353E-10  
  31               1.53720918E-02   1.40407026E+02   8.38729726E-01   1.60589409E-01   5.31761139E-04   6.04783720E-10   1.21819258E-04   2.30006382E-05   1.41731420E-27   0.00000000E+00  
  32               1.64843362E-02   1.43634057E+02   8.38729723E-01   1.60589408E-01   5.31761137E-04   6.08086535E-10   1.21819257E-04   2.30006381E-05   6.24482828E-27   3.54219250E-09  
  33               1.77633188E-02   1.47166721E+02   8.38729723E-01   1.60589408E-01   5.31761137E-04   4.15027904E-09   1.21819257E-04   2.30006381E-05   2.93864142E-26   0.00000000E+00  
  34               1.92334127E-02   1.51018647E+02   8.38729717E-01   1.60589407E-01   5.31761133E-04   4.15698657E-09   1.21819257E-04   2.30006379E-05   1.46430118E-25   7.19375868E-09  
  35               2.09223941E-02   1.55204274E+02   8.38729700E-01   1.60589404E-01   5.31761122E-04   1.13697356E-08   1.21819254E-04   2.30006374E-05   7.65999180E-25   2.03676331E-08  
  36               2.28619565E-02   1.59736073E+02   8.38729651E-01   1.60589394E-01   5.31761091E-04   3.17917325E-08   1.21819247E-04   2.30006361E-05   4.16603477E-24   5.83123479E-08  
  37               2.50884707E-02   1.64623208E+02   8.38729510E-01   1.60589367E-01   5.31761002E-04   9.02603547E-08   1.21819227E-04   2.30006322E-05   2.33007187E-23   1.67670964E-07  
  38               2.76434551E-02   1.69872611E+02   8.38729106E-01   1.60589290E-01   5.31760746E-04   2.58379342E-07   1.21819168E-04   2.30006212E-05   1.32525347E-22   4.81079583E-07  
  39               3.05741380E-02   1.75489836E+02   8.38727955E-01   1.60589070E-01   5.31760016E-04   7.40732978E-07   1.21819001E-04   2.30005896E-05   7.58240706E-22   1.37117240E-06  
  40               3.39340131E-02   1.81484706E+02   8.38724752E-01   1.60588456E-01   5.31757985E-04   2.11542800E-06   1.21818536E-04   2.30005018E-05   4.32738963E-21   3.81547505E-06  
  41               3.77830463E-02   1.87843505E+02   8.38692517E-01   1.60582284E-01   5.31737548E-04   5.96445035E-06   1.21813854E-04   2.29996178E-05   2.42766878E-20   3.84000339E-05  
  42               4.21800206E-02   1.94564632E+02   8.38692517E-01   1.60582284E-01   5.31737548E-04   4.43644842E-05   1.21813854E-04   2.29996178E-05   1.32785525E-19   0.00000000E+00  
  43               4.71827724E-02   2.01611167E+02   8.38491495E-01   1.60543795E-01   5.31610099E-04   4.44961361E-05   1.21784657E-04   2.29941051E-05   6.96784960E-19   2.39542220E-04  
  44               5.28199259E-02   2.08937962E+02   8.38491495E-01   1.60543795E-01   5.31610099E-04   2.84038356E-04   1.21784657E-04   2.29941051E-05   3.46675870E-18   0.00000000E+00  
  45               5.90215484E-02   2.16354196E+02   8.38073925E-01   1.60463844E-01   5.31345356E-04   2.83897336E-04   1.21724008E-04   2.29826540E-05   1.56998375E-17   4.98000947E-04  
  46               6.58223058E-02   2.23874112E+02   8.38073925E-01   1.60463844E-01   5.31345356E-04   7.81898282E-04   1.21724008E-04   2.29826540E-05   6.55781115E-17   0.00000000E+00  
  47               7.30946220E-02   2.31295649E+02   8.38073925E-01   1.60463844E-01   5.31345356E-04   7.81898282E-04   1.21724008E-04   2.29826540E-05   2.44700646E-16   0.00000000E+00  
  48               8.13971513E-02   2.39161534E+02   8.38073925E-01   1.60463844E-01   5.31345356E-04   7.81898282E-04   1.21724008E-04   2.29826540E-05   9.02784032E-16   0.00000000E+00  
  49               9.08733639E-02   2.47432461E+02   8.38073925E-01   1.60463844E-01   5.31345356E-04   7.81898282E-04   1.21724008E-04   2.29826540E-05   3.24970168E-15   0.00000000E+00  
  50               1.01686239E-01   2.56165783E+02   8.38073925E-01   1.60463844E-01   5.31345356E-04   7.81898282E-04   1.21724008E-04   2.29826540E-05   1.14747990E-14   0.00000000E+00  
  51               1.14019171E-01   2.65313561E+02   8.38073925E-01   1.60463844E-01   5.31345356E-04   7.81898282E-04   1.21724008E-04   2.29826540E-05   3.92527198E-14   0.00000000E+00  
  52               1.28079763E-01   2.74938725E+02   8.38073925E-01   1.60463844E-01   5.31345356E-04   7.81898282E-04   1.21724007E-04   2.29826540E-05   1.30907545E-13   0.00000000E+00  
  53               1.44103721E-01   2.84986463E+02   8.38073925E-01   1.60463844E-01   5.31345356E-04   7.81898282E-04   1.21724007E-04   2.29826540E-05   4.20848284E-13   0.00000000E+00  
  54               1.62362244E-01   2.95532132E+02   8.38073925E-01   1.60463844E-01   5.31345356E-04   7.81898282E-04   1.21724005E-04   2.29826540E-05   1.31443992E-12   0.00000000E+00  
  55               1.83167675E-01   3.06521957E+02   8.38073925E-01   1.60463844E-01   5.31345356E-04   7.81898282E-04   1.21724000E-04   2.29826540E-05   3.95098330E-12   0.00000000E+00  
  56               2.06875074E-01   3.18045322E+02   8.38073925E-01   1.60463844E-01   5.31345356E-04   7.81898146E-04   1.21723985E-04   2.29826540E-05   1.15291495E-11   0.00000000E+00  
  57               2.33882769E-01   3.30040248E+02   8.38073925E-01   1.60463844E-01   5.31345355E-04   7.81898146E-04   1.21723943E-04   2.29826540E-05   3.23678294E-11   0.00000000E+00  
  58               2.64638239E-01   3.42597726E+02   8.38073925E-01   1.60463844E-01   5.31345356E-04   7.81897436E-04   1.21723831E-04   2.29826540E-05   8.81369786E-11   0.00000000E+00  
  59               2.99648986E-01   3.55644907E+02   8.38073911E-01   1.60463841E-01   5.31345347E-04   7.81897422E-04   1.21723544E-04   2.29826536E-05   2.30782717E-10   0.00000000E+00  
  60               3.39499912E-01   3.69285010E+02   8.38073927E-01   1.60463843E-01   5.31345351E-04   7.81880660E-04   1.21722835E-04   2.29826538E-05   5.85988528E-10   0.00000000E+00  
  61               3.84850682E-01   3.83445590E+02   8.38073928E-01   1.60463842E-01   5.31345350E-04   7.81880659E-04   1.21721142E-04   2.29826538E-05   1.43231537E-09   0.00000000E+00  
  62               4.36442337E-01   3.98238972E+02   8.38073931E-01   1.60463842E-01   5.31345348E-04   7.81880656E-04   1.21717210E-04   2.29826537E-05   3.39780280E-09   0.00000000E+00  
  63               4.95102238E-01   4.13582425E+02   8.38073607E-01   1.60463777E-01   5.31345134E-04   7.81880348E-04   1.21708420E-04   2.29826444E-05   7.76832507E-09   0.00000000E+00  
  64               5.61761011E-01   4.29587602E+02   8.38073980E-01   1.60463806E-01   5.31345228E-04   7.81487065E-04   1.21689496E-04   2.29826485E-05   1.72410006E-08   0.00000000E+00  
  65               6.37490046E-01   4.46168407E+02   8.38073992E-01   1.60463797E-01   5.31345200E-04   7.81490129E-04   1.21650149E-04   2.29826473E-05   3.69116131E-08   0.00000000E+00  
  66               7.23496891E-01   4.63450707E+02   8.38073599E-01   1.60463709E-01   5.31344908E-04   7.81541281E-04   1.21570377E-04   2.29826346E-05   7.67639384E-08   0.00000000E+00  
  67               8.21124598E-01   4.81340183E+02   8.38071818E-01   1.60463684E-01   5.31344825E-04   7.83424635E-04   1.21415657E-04   2.29826311E-05   1.54114532E-07   0.00000000E+00  
  68               9.31932416E-01   4.99977455E+02   8.38069276E-01   1.60463113E-01   5.31342935E-04   7.83421848E-04   1.21122430E-04   2.29825493E-05   3.00511611E-07   0.00000000E+00  
  69               1.05784453E+00   5.19288809E+02   8.38072627E-01   1.60463290E-01   5.31343521E-04   7.80157905E-04   1.20592202E-04   2.29825746E-05   5.65692553E-07   0.00000000E+00  
  70               1.20110545E+00   5.39448945E+02   8.38073245E-01   1.60463140E-01   5.31343025E-04   7.80157183E-04   1.19658489E-04   2.29825532E-05   1.03249232E-06   0.00000000E+00  
  71               1.36435035E+00   5.60383979E+02   8.38074277E-01   1.60462890E-01   5.31342196E-04   7.80155979E-04   1.18098936E-04   2.29825173E-05   1.81217397E-06   0.00000000E+00  
  72               1.55089786E+00   5.82316865E+02   8.38075933E-01   1.60462489E-01   5.31340867E-04   7.80154057E-04   1.15597324E-04   2.29824599E-05   3.06282749E-06   0.00000000E+00  
  73               1.76490037E+00   6.05221354E+02   8.38078413E-01   1.60461887E-01   5.31338876E-04   7.80151194E-04   1.11850178E-04   2.29823737E-05   4.93617248E-06   0.00000000E+00  
  74               2.01173612E+00   6.29400293E+02   8.38081914E-01   1.60461038E-01   5.31336063E-04   7.80147192E-04   1.06558817E-04   2.29822521E-05   7.58153107E-06   0.00000000E+00  
  75               2.29831412E+00   6.54890437E+02   8.38086451E-01   1.60459938E-01   5.31332418E-04   7.80142095E-04   9.97027757E-05   2.29820946E-05   1.10091345E-05   0.00000000E+00  
  76               2.63306652E+00   6.82039870E+02   8.38091922E-01   1.60458611E-01   5.31328016E-04   7.80136142E-04   9.14344159E-05   2.29819045E-05   1.51428112E-05   0.00000000E+00  
  77               3.02541064E+00   7.10809468E+02   8.38097943E-01   1.60457150E-01   5.31323146E-04   7.80129988E-04   8.23288396E-05   2.29816951E-05   1.96950448E-05   0.00000000E+00  
  78               3.48504176E+00   7.41402774E+02   8.38104137E-01   1.60455640E-01   5.31318050E-04   7.80124421E-04   7.29429834E-05   2.29814789E-05   2.43874005E-05   0.00000000E+00  
  79               4.02155128E+00   7.73567459E+02   8.38110019E-01   1.60454189E-01   5.31312925E-04   7.80120461E-04   6.39662910E-05   2.29812709E-05   2.88751961E-05   0.00000000E+00  
  80               4.64518594E+00   8.07399039E+02   8.38115288E-01   1.60452831E-01   5.31307440E-04   7.80118893E-04   5.57256545E-05   2.29810762E-05   3.29949995E-05   0.00000000E+00  
  81               5.36511583E+00   8.42502310E+02   8.38119857E-01   1.60451639E-01   5.31300621E-04   7.80120152E-04   4.85271909E-05   2.29809047E-05   3.65937787E-05   0.00000000E+00  
  82               6.18831387E+00   8.78794195E+02   8.38123915E-01   1.60450642E-01   5.31289529E-04   7.80124147E-04   4.23593860E-05   2.29823129E-05   3.96773030E-05   0.00000000E+00  
  83               7.11930369E+00   9.15712382E+02   8.38127242E-01   1.60449803E-01   5.31267345E-04   7.80125144E-04   3.72406394E-05   2.29971133E-05   4.22363570E-05   0.00000000E+00  
  84               8.16243245E+00   9.53215093E+02   8.38129884E-01   1.60449075E-01   5.31219865E-04   7.80110940E-04   3.29912732E-05   2.30437108E-05   4.43607612E-05   0.00000000E+00  
  85               9.32526679E+00   9.90952782E+02   8.38131712E-01   1.60448402E-01   5.31121041E-04   7.80055749E-04   2.95161099E-05   2.31803673E-05   4.60980811E-05   0.00000000E+00  
  86               1.06148519E+01   1.02906473E+03   8.38132535E-01   1.60447696E-01   5.30923382E-04   7.79911316E-04   2.66361189E-05   2.35484915E-05   4.75377936E-05   0.00000000E+00  
  87               1.20374431E+01   1.06717449E+03   8.38133166E-01   1.60447078E-01   5.30554289E-04   7.79607813E-04   2.42801551E-05   2.42836678E-05   4.87155081E-05   0.00000000E+00  
  88               1.35993578E+01   1.10546375E+03   8.38135211E-01   1.60446542E-01   5.29895793E-04   7.79073917E-04   2.23168573E-05   2.42834870E-05   4.96968864E-05   0.00000000E+00  
  89               1.53087868E+01   1.14361182E+03   8.38137592E-01   1.60445917E-01   5.28792381E-04   7.78113934E-04   2.07017741E-05   2.42832297E-05   5.05040628E-05   0.00000000E+00  
  90               1.71822194E+01   1.18204471E+03   8.38140684E-01   1.60445111E-01   5.27004998E-04   7.76489206E-04   1.93373515E-05   2.42828481E-05   5.11857333E-05   0.00000000E+00  
  91               1.92376282E+01   1.22055647E+03   8.38144859E-01   1.60444033E-01   5.24261720E-04   7.73923940E-04   1.82017755E-05   2.42822864E-05   5.17527033E-05   0.00000000E+00  
  92               2.14922333E+01   1.25952061E+03   8.38150663E-01   1.60442546E-01   5.20173175E-04   7.70027081E-04   1.72318630E-05   2.42814596E-05   5.22364055E-05   0.00000000E+00  
  93               2.39626627E+01   1.29860962E+03   8.38158530E-01   1.60440544E-01   5.14406562E-04   7.64459685E-04   1.64232570E-05   2.42802775E-05   5.26388409E-05   0.00000000E+00  
  94               2.66650345E+01   1.33815609E+03   8.38169064E-01   1.60437872E-01   5.06510672E-04   7.56768649E-04   1.57310928E-05   2.42786009E-05   5.29821793E-05   0.00000000E+00  
  95               2.96147937E+01   1.37776355E+03   8.38182472E-01   1.60434472E-01   4.96308818E-04   7.46771907E-04   1.51582379E-05   2.42762862E-05   5.32647464E-05   0.00000000E+00  
  96               3.28408805E+01   1.41793093E+03   8.38199186E-01   1.60430222E-01   4.83451432E-04   7.34122781E-04   1.46681614E-05   2.42730491E-05   5.35044310E-05   0.00000000E+00  
  97               3.63847823E+01   1.45847216E+03   8.38218939E-01   1.60425155E-01   4.68068203E-04   7.18956078E-04   1.42662178E-05   2.42684468E-05   5.36982472E-05   0.00000000E+00  
  98               4.02811871E+01   1.49984344E+03   8.38241700E-01   1.60419229E-01   4.50078433E-04   7.01234799E-04   1.39257221E-05   2.42613719E-05   5.38590510E-05   0.00000000E+00  
  99               4.45551232E+01   1.54155969E+03   8.38265662E-01   1.60412523E-01   4.30200860E-04   6.81654496E-04   1.36569226E-05   2.42493679E-05   5.39814264E-05   0.00000000E+00  
  100              4.92180426E+01   1.58385622E+03   8.38291259E-01   1.60405401E-01   4.08627502E-04   6.61284436E-04   1.34383063E-05   2.41883377E-05   5.40757937E-05   0.00000000E+00  
  101              5.42661253E+01   1.62600576E+03   8.38223609E-01   1.60380178E-01   3.86684135E-04   6.39561578E-04   1.32792065E-05   2.41741793E-05   5.41306554E-05   0.00000000E+00  
