# ATMO chemical composition profiles
# Chemical abundances given as mole fraction for the 8 most abundant species
# Model Level      Pressure [Ba]    Temperature [K]  H2               He               H                H2O              CO               CH4              N2               Mg              
  1                1.00000000E-05   3.26172138E+02   8.38149399E-01   1.60445370E-01   1.35361019E-30   7.77944141E-04   1.16620266E-18   5.31284183E-04   5.66444513E-05   0.00000000E+00  
  2                1.07040544E-04   3.75495465E+02   8.38148878E-01   1.60445497E-01   1.61744161E-26   7.77944758E-04   2.48084477E-16   5.31284601E-04   5.62513380E-05   0.00000000E+00  
  3                2.15306359E-04   3.98695608E+02   8.38149905E-01   1.60445247E-01   6.69910034E-25   7.77944258E-04   3.08173851E-15   5.31283773E-04   5.70289433E-05   0.00000000E+00  
  4                3.40667282E-04   4.11775187E+02   8.38149892E-01   1.60445240E-01   4.32774147E-24   7.77951453E-04   9.29050319E-15   5.31283751E-04   5.70383550E-05   0.00000000E+00  
  5                4.86290860E-04   4.25836961E+02   8.38150253E-01   1.60445103E-01   2.98667426E-23   7.78040697E-04   3.50620768E-14   5.31283297E-04   5.74277420E-05   0.00000000E+00  
  6                6.55884226E-04   4.34804130E+02   8.38149553E-01   1.60445058E-01   9.19859657E-23   7.78348664E-04   6.62719256E-14   5.31283150E-04   5.73743533E-05   0.00000000E+00  
  7                8.53522740E-04   4.46276352E+02   8.38148381E-01   1.60444971E-01   3.82307432E-22   7.79880315E-04   1.77503835E-13   5.31282861E-04   5.76463516E-05   0.00000000E+00  
  8                1.08403216E-03   4.53126890E+02   8.38148215E-01   1.60445011E-01   8.27709483E-22   7.79880512E-04   2.61793460E-13   5.31282994E-04   5.75207875E-05   0.00000000E+00  
  9                1.35308739E-03   4.62414824E+02   8.38148384E-01   1.60444970E-01   2.38082360E-21   7.79880314E-04   5.23150770E-13   5.31282858E-04   5.76486616E-05   0.00000000E+00  
  10               1.66725231E-03   4.68167678E+02   8.38148167E-01   1.60445023E-01   4.31906951E-21   7.79880571E-04   6.81342887E-13   5.31283032E-04   5.74845882E-05   0.00000000E+00  
  11               2.03417085E-03   4.76962260E+02   8.38148316E-01   1.60444987E-01   1.10369816E-20   7.79880398E-04   1.25889853E-12   5.31282911E-04   5.75974491E-05   0.00000000E+00  
  12               2.46277895E-03   4.82330976E+02   8.38148092E-01   1.60445041E-01   1.85528469E-20   7.79880665E-04   1.56528910E-12   5.31283091E-04   5.74278695E-05   0.00000000E+00  
  13               2.96344613E-03   4.90971220E+02   8.38148233E-01   1.60445007E-01   4.42457108E-20   7.79880502E-04   2.76630064E-12   5.31282976E-04   5.75351280E-05   0.00000000E+00  
  14               3.54830622E-03   4.96291816E+02   8.38148017E-01   1.60445059E-01   7.19046275E-20   7.79880760E-04   3.38802888E-12   5.31283149E-04   5.73717750E-05   0.00000000E+00  
  15               4.23143554E-03   5.05080870E+02   8.38148168E-01   1.60445023E-01   1.65972320E-19   7.79880590E-04   5.88944328E-12   5.31283025E-04   5.74856076E-05   0.00000000E+00  
  16               5.02925296E-03   5.10491305E+02   8.38147962E-01   1.60445073E-01   2.64768651E-19   7.79880839E-04   7.17057433E-12   5.31283189E-04   5.73297593E-05   0.00000000E+00  
  17               5.96095496E-03   5.19432029E+02   8.38148110E-01   1.60445037E-01   5.91866835E-19   7.79880676E-04   1.22123585E-11   5.31283065E-04   5.74415790E-05   0.00000000E+00  
  18               7.04907034E-03   5.25064911E+02   8.38147917E-01   1.60445083E-01   9.38567707E-19   7.79880911E-04   1.49112652E-11   5.31283216E-04   5.72964041E-05   0.00000000E+00  
  19               8.31975004E-03   5.34428668E+02   8.38148080E-01   1.60445044E-01   2.08405610E-18   7.79880737E-04   2.54333685E-11   5.31283074E-04   5.74195004E-05   0.00000000E+00  
  20               9.80347349E-03   5.40494342E+02   8.38147916E-01   1.60445084E-01   3.34185693E-18   7.79880945E-04   3.15986434E-11   5.31283200E-04   5.72950621E-05   0.00000000E+00  
  21               1.15355066E-02   5.50541202E+02   8.38148107E-01   1.60445037E-01   7.51246950E-18   7.79880745E-04   5.49005205E-11   5.31283022E-04   5.74395649E-05   0.00000000E+00  
  22               1.35568751E-02   5.57415933E+02   8.38147996E-01   1.60445064E-01   1.25209196E-17   7.79880897E-04   7.12189755E-11   5.31283094E-04   5.73562248E-05   0.00000000E+00  
  23               1.59149176E-02   5.68534433E+02   8.38148233E-01   1.60445006E-01   2.91926465E-17   7.79880649E-04   1.28967121E-10   5.31282844E-04   5.75355140E-05   0.00000000E+00  
  24               1.86643009E-02   5.76424685E+02   8.38148183E-01   1.60445019E-01   5.09249746E-17   7.79880738E-04   1.75794604E-10   5.31282836E-04   5.74974728E-05   0.00000000E+00  
  25               2.18675902E-02   5.88680263E+02   8.38148450E-01   1.60444954E-01   1.22200278E-16   7.79880441E-04   3.29198005E-10   5.31282464E-04   5.76990953E-05   0.00000000E+00  
  26               2.55964948E-02   5.97773594E+02   8.38148457E-01   1.60444952E-01   2.23646330E-16   7.79880444E-04   4.72615391E-10   5.31282311E-04   5.77049678E-05   0.00000000E+00  
  27               2.99325985E-02   6.11524906E+02   8.38148756E-01   1.60444879E-01   5.59253136E-16   7.79879980E-04   9.26752374E-10   5.31281608E-04   5.79303769E-05   0.00000000E+00  
  28               3.49683928E-02   6.22173359E+02   8.38148822E-01   1.60444862E-01   1.08487130E-15   7.79879743E-04   1.41624902E-09   5.31281055E-04   5.79818003E-05   0.00000000E+00  
  29               4.08103276E-02   6.37706592E+02   8.38149140E-01   1.60444784E-01   2.82990973E-15   7.79878582E-04   2.91257359E-09   5.31279280E-04   5.82216999E-05   0.00000000E+00  
  30               4.75808555E-02   6.50278135E+02   8.38149252E-01   1.60444753E-01   5.84779591E-15   7.79877330E-04   4.76389017E-09   5.31277302E-04   5.83126019E-05   0.00000000E+00  
  31               5.54173486E-02   6.67933308E+02   8.38149571E-01   1.60444671E-01   1.59010862E-14   7.79872971E-04   1.02724296E-08   5.31271469E-04   5.85552805E-05   0.00000000E+00  
  32               6.44730193E-02   6.82693867E+02   8.38149681E-01   1.60444622E-01   3.47580687E-14   7.79866859E-04   1.78703627E-08   5.31263644E-04   5.86704652E-05   0.00000000E+00  
  33               7.49172720E-02   7.02548138E+02   8.38149962E-01   1.60444533E-01   9.66128987E-14   7.79848020E-04   3.96529732E-08   5.31241409E-04   5.88969249E-05   0.00000000E+00  
  34               8.69340060E-02   7.19661277E+02   8.38150045E-01   1.60444460E-01   2.20096706E-13   7.79818890E-04   7.23592480E-08   5.31208265E-04   5.90198914E-05   0.00000000E+00  
  35               1.00722612E-01   7.41965646E+02   8.38150223E-01   1.60444325E-01   6.19530208E-13   7.79734126E-04   1.63827517E-07   5.31115876E-04   5.92225516E-05   0.00000000E+00  
  36               1.16496733E-01   7.61588810E+02   8.38150561E-01   1.60444239E-01   1.44853608E-12   7.79597147E-04   3.09114678E-07   5.30969678E-04   5.93412901E-05   0.00000000E+00  
  37               1.34511159E-01   7.86377977E+02   8.38151286E-01   1.60444055E-01   4.04865618E-12   7.79220627E-04   7.00201018E-07   5.30576535E-04   5.95130373E-05   0.00000000E+00  
  38               1.55062809E-01   8.08590955E+02   8.38152235E-01   1.60443810E-01   9.54522586E-12   7.78597464E-04   1.34050339E-06   5.29933448E-04   5.96187264E-05   0.00000000E+00  
  39               1.78487183E-01   8.36074837E+02   8.38154525E-01   1.60443219E-01   2.62389730E-11   7.76968083E-04   2.99745625E-06   5.28270157E-04   5.97596383E-05   0.00000000E+00  
  40               2.05158127E-01   8.61147825E+02   8.38158055E-01   1.60442275E-01   6.18506635E-11   7.74257271E-04   5.73908756E-06   5.25519369E-04   5.98497854E-05   0.00000000E+00  
  41               2.35550066E-01   8.91777337E+02   8.38166562E-01   1.60439988E-01   1.67044935E-10   7.67556245E-04   1.24839303E-05   5.18754345E-04   5.99634658E-05   0.00000000E+00  
  42               2.70268553E-01   9.20269652E+02   8.38179778E-01   1.60436279E-01   3.93547673E-10   7.56711788E-04   2.33738517E-05   5.07835545E-04   6.00380181E-05   0.00000000E+00  
  43               3.10327520E-01   9.54597630E+02   8.38209844E-01   1.60428483E-01   1.04194185E-09   7.33028754E-04   4.71215646E-05   4.84032737E-04   6.01255121E-05   0.00000000E+00  
  44               3.57344546E-01   9.87214826E+02   8.38254183E-01   1.60417676E-01   2.44721608E-09   6.99597818E-04   8.06519787E-05   4.50435909E-04   6.01814038E-05   0.00000000E+00  
  45               4.14190121E-01   1.02649242E+03   8.38329760E-01   1.60399260E-01   6.40645271E-09   6.42574034E-04   1.37849647E-04   3.93141719E-04   6.02422464E-05   1.14712647E-15  
  46               4.84963978E-01   1.06441645E+03   8.38409415E-01   1.60379838E-01   1.49879112E-08   5.82449608E-04   1.98212858E-04   3.32695197E-04   6.02760034E-05   9.68434721E-15  
  47               5.75490003E-01   1.10832704E+03   8.38502394E-01   1.60357150E-01   3.72896662E-08   5.12260114E-04   2.68740305E-04   2.62086989E-04   6.03073522E-05   9.70650447E-14  
  48               6.91997228E-01   1.14928661E+03   8.38571304E-01   1.60340312E-01   8.05424678E-08   4.60212756E-04   3.21095312E-04   2.09683043E-04   6.03152655E-05   6.80490400E-13  
  49               8.40689548E-01   1.19434812E+03   8.38634176E-01   1.60324924E-01   1.76380939E-07   4.12677410E-04   3.68926855E-04   1.61811651E-04   6.03202680E-05   4.91764379E-12  
  50               1.02686763E+00   1.23516920E+03   8.38673234E-01   1.60315322E-01   3.35668231E-07   3.83051353E-04   3.98757824E-04   1.31958554E-04   6.03079131E-05   2.46180295E-11  
  51               1.25503700E+00   1.27989198E+03   8.38708889E-01   1.60306501E-01   6.49801334E-07   3.55873304E-04   4.26115406E-04   1.04579874E-04   6.02970580E-05   1.27528101E-10  
  52               1.52905300E+00   1.32050163E+03   8.38730503E-01   1.60301045E-01   1.12416048E-06   3.39156604E-04   4.42959493E-04   8.77219612E-05   6.02743309E-05   4.93392120E-10  
  53               1.85181598E+00   1.36547231E+03   8.38751559E-01   1.60295564E-01   2.00040974E-06   3.22535297E-04   4.59731767E-04   7.09333940E-05   6.02566652E-05   2.03183629E-09  
  54               2.22673606E+00   1.40634069E+03   8.38763624E-01   1.60292050E-01   3.23875264E-06   3.12318402E-04   4.70174814E-04   6.04770211E-05   6.02296872E-05   6.57126906E-09  
  55               2.65729097E+00   1.45149567E+03   8.38774494E-01   1.60288262E-01   5.38701584E-06   3.02119885E-04   4.80946966E-04   4.96879975E-05   6.02083983E-05   2.25306204E-08  
  56               3.14585021E+00   1.49243231E+03   8.38777087E-01   1.60285333E-01   8.25012283E-06   2.96358504E-04   4.87714485E-04   4.29034389E-05   6.01787041E-05   6.27090137E-08  
  57               3.69110022E+00   1.53794473E+03   8.38765070E-01   1.60279727E-01   1.30209452E-05   2.91980178E-04   4.95222712E-04   3.53667989E-05   6.01555523E-05   1.85353473E-07  
  58               4.28118299E+00   1.57918448E+03   8.38749990E-01   1.60277102E-01   1.91448894E-05   3.04607744E-04   5.01555068E-04   2.90151288E-05   6.01299132E-05   2.96126149E-07  
  59               4.90861312E+00   1.62534956E+03   8.38742896E-01   1.60274045E-01   2.91054175E-05   3.01044575E-04   5.06712103E-04   2.38352265E-05   6.01128383E-05   1.31880362E-06  
  60               5.56475571E+00   1.66822977E+03   8.38723171E-01   1.60270266E-01   4.19716410E-05   3.02345729E-04   5.10579138E-04   1.99421661E-05   6.00935698E-05   4.61612747E-06  
  61               6.20713712E+00   1.71741593E+03   8.38669459E-01   1.60262693E-01   6.33229315E-05   3.15829753E-04   5.15487447E-04   1.49984851E-05   6.00910327E-05   1.63137662E-05  
  62               6.78154840E+00   1.75811102E+03   8.38589180E-01   1.60253906E-01   8.73591497E-05   3.45482658E-04   5.19050028E-04   1.14022894E-05   6.00887848E-05   3.74435927E-05  
  63               7.25720341E+00   1.78969981E+03   8.38504766E-01   1.60246779E-01   1.10936292E-04   3.85794583E-04   5.21497477E-04   8.93061152E-06   6.00877806E-05   6.46678851E-05  
  64               7.76228958E+00   1.82155315E+03   8.38469315E-01   1.60242175E-01   1.39911052E-04   3.84682887E-04   5.22539184E-04   7.86499606E-06   6.00811381E-05   6.45439702E-05  
  65               8.18599289E+00   1.84689678E+03   8.38445114E-01   1.60239764E-01   1.67234496E-04   3.83930818E-04   5.23242010E-04   7.14665891E-06   6.00753592E-05   6.44428719E-05  
  66               8.51350124E+00   1.86585572E+03   8.38424359E-01   1.60237752E-01   1.90475215E-04   3.83427294E-04   5.23707477E-04   6.66857091E-06   6.00706180E-05   6.43657411E-05  
  67               8.88303516E+00   1.88641107E+03   8.38399082E-01   1.60235354E-01   2.18607280E-04   3.82936958E-04   5.24155516E-04   6.20572333E-06   6.00647585E-05   6.42801253E-05  
  68               9.29829934E+00   1.90880751E+03   8.38367926E-01   1.60232447E-01   2.53112824E-04   3.82454180E-04   5.24591288E-04   5.75245147E-06   6.00579123E-05   6.41851348E-05  
  69               9.76249604E+00   1.93277421E+03   8.38298066E-01   1.60222852E-01   2.94841086E-04   3.81986805E-04   5.24978933E-04   5.32404954E-06   6.00473925E-05   6.40784135E-05  
  70               1.00983647E+01   1.94965627E+03   8.38268322E-01   1.60220159E-01   3.27552060E-04   3.81686282E-04   5.25238135E-04   5.04931654E-06   6.00413379E-05   6.40038770E-05  
  71               1.03326038E+01   1.96105518E+03   8.38246740E-01   1.60218208E-01   3.51235322E-04   3.81509918E-04   5.25397866E-04   4.87845350E-06   6.00368647E-05   6.39525536E-05  
  72               1.06014364E+01   1.97402043E+03   8.38220601E-01   1.60215852E-01   3.79909507E-04   3.81303977E-04   5.25570257E-04   4.69284771E-06   6.00317640E-05   6.38938899E-05  
  73               1.09087603E+01   1.98836317E+03   8.38189666E-01   1.60213079E-01   4.13765661E-04   3.81116145E-04   5.25744718E-04   4.50295198E-06   6.00256404E-05   6.38277423E-05  
  74               1.12587060E+01   2.00444270E+03   8.38152293E-01   1.60209738E-01   4.54666490E-04   3.80890020E-04   5.25926693E-04   4.30270690E-06   6.00186431E-05   6.37529437E-05  
  75               1.16554305E+01   2.02201484E+03   8.38108038E-01   1.60205801E-01   5.02977342E-04   3.80708732E-04   5.26105558E-04   4.10254755E-06   6.00103505E-05   6.36694523E-05  
  76               1.21031513E+01   2.04141686E+03   8.38054809E-01   1.60201080E-01   5.61146839E-04   3.80471768E-04   5.26285274E-04   3.89773617E-06   6.00008963E-05   6.35761519E-05  
  77               1.26092380E+01   2.06246004E+03   8.37991617E-01   1.60195494E-01   6.30143670E-04   3.80236062E-04   5.26456040E-04   3.69761915E-06   5.99897514E-05   6.34725402E-05  
  78               1.31793665E+01   2.08550538E+03   8.37915241E-01   1.60188759E-01   7.13478713E-04   3.79994990E-04   5.26622263E-04   3.49668862E-06   5.99770200E-05   6.33573027E-05  
  79               1.38195512E+01   2.11020047E+03   8.37824716E-01   1.60180795E-01   8.12187158E-04   3.79759398E-04   5.26773148E-04   3.30528093E-06   5.99621554E-05   6.32305068E-05  
  80               1.45361781E+01   2.13690491E+03   8.37715675E-01   1.60171221E-01   9.31027371E-04   3.79522342E-04   5.26912819E-04   3.11780320E-06   5.99452339E-05   6.30908063E-05  
  81               1.53360804E+01   2.16519428E+03   8.37586884E-01   1.60159932E-01   1.07132536E-03   3.79293666E-04   5.27031486E-04   2.94346921E-06   5.99256574E-05   6.29384277E-05  
  82               1.62265667E+01   2.19544434E+03   8.37432454E-01   1.60146413E-01   1.23949751E-03   3.79065687E-04   5.27133191E-04   2.77627974E-06   5.99034690E-05   6.27719566E-05  
  83               1.72155059E+01   2.22714477E+03   8.37251117E-01   1.60130557E-01   1.43690895E-03   3.78847468E-04   5.27209094E-04   2.62443865E-06   5.98780074E-05   6.25918311E-05  
  84               1.83113917E+01   2.26069819E+03   8.37035116E-01   1.60111684E-01   1.67200625E-03   3.78630564E-04   5.27263003E-04   2.48157791E-06   5.98492673E-05   6.23965440E-05  
  85               1.95234550E+01   2.29550816E+03   8.36781613E-01   1.60089346E-01   1.94570931E-03   3.78422606E-04   5.27285828E-04   2.35495256E-06   5.98163860E-05   6.21866256E-05  
  86               2.08612055E+01   2.33202924E+03   8.36476150E-01   1.60063213E-01   2.26900182E-03   3.84423321E-04   5.27325519E-04   2.20169960E-06   5.97818284E-05   6.19607031E-05  
  87               2.23356456E+01   2.36958046E+03   8.36133546E-01   1.60033332E-01   2.64158952E-03   3.84335613E-04   5.27289791E-04   2.10147157E-06   5.97404337E-05   6.17196871E-05  
  88               2.39591993E+01   2.40872082E+03   8.35732347E-01   1.59998349E-01   3.07790455E-03   3.84233121E-04   5.27223726E-04   2.01007812E-06   5.96940940E-05   6.14615184E-05  
  89               2.57449668E+01   2.44867613E+03   8.35275022E-01   1.59958484E-01   3.57525145E-03   3.84123635E-04   5.27121405E-04   1.93363206E-06   5.96420058E-05   6.11874783E-05  
  90               2.77072654E+01   2.49009293E+03   8.34744664E-01   1.59912258E-01   4.15202502E-03   3.83998949E-04   5.26984428E-04   1.86502336E-06   5.95839295E-05   6.08953487E-05  
  91               2.98621109E+01   2.53210170E+03   8.34147454E-01   1.59860216E-01   4.80148632E-03   3.83869493E-04   5.26807897E-04   1.81027975E-06   5.95190469E-05   6.05867789E-05  
  92               3.22272579E+01   2.57546567E+03   8.33461811E-01   1.59800472E-01   5.54711449E-03   3.83726379E-04   5.26591845E-04   1.76231953E-06   5.94469449E-05   6.02591455E-05  
  93               3.48224006E+01   2.61921849E+03   8.32699423E-01   1.59734051E-01   6.37617959E-03   3.83582803E-04   5.26332718E-04   1.72723567E-06   5.93668221E-05   5.99145236E-05  
  94               3.76693163E+01   2.66425203E+03   8.31832739E-01   1.59658547E-01   7.31865192E-03   3.83428714E-04   5.26028580E-04   1.69795174E-06   5.92780196E-05   5.95498418E-05  
  95               4.07920916E+01   2.70949411E+03   8.30881159E-01   1.59575657E-01   8.35341240E-03   3.83280635E-04   5.25677651E-04   1.68078016E-06   5.91797829E-05   5.91677004E-05  
  96               4.42172562E+01   2.75594104E+03   8.29810557E-01   1.59482402E-01   9.51758041E-03   3.83127574E-04   5.25275651E-04   1.66878804E-06   5.90710945E-05   5.87646385E-05  
  97               4.79739387E+01   2.80243445E+03   8.28649832E-01   1.59381308E-01   1.07797040E-02   3.82989671E-04   5.24823099E-04   1.66843910E-06   5.89512648E-05   5.83438150E-05  
  98               5.20939011E+01   2.85011235E+03   8.27355530E-01   1.59268583E-01   1.21870466E-02   3.82854233E-04   5.24312804E-04   1.67263761E-06   5.88187236E-05   5.79012715E-05  
  99               5.66116328E+01   2.89771754E+03   8.25968286E-01   1.59147775E-01   1.36953890E-02   3.82745454E-04   5.23748022E-04   1.68815499E-06   5.86728075E-05   5.74408576E-05  
  100              6.15643808E+01   2.94646850E+03   8.24435626E-01   1.59014308E-01   1.53618019E-02   3.82649344E-04   5.23118442E-04   1.70795914E-06   5.85111061E-05   5.69583328E-05  
  101              6.69914535E+01   2.99501246E+03   8.22812131E-01   1.58872946E-01   1.71268984E-02   3.82593952E-04   5.22430658E-04   1.73912883E-06   5.83328945E-05   5.64583640E-05  
