# ATMO chemical composition profiles
# Chemical abundances given as mole fraction for the 8 most abundant species
# Model Level      Pressure [Ba]    Temperature [K]  H2               He               CH4              H2O              NH3              H                CO               H2S             
  1                1.00000000E-05   8.65402643E+01   8.38831204E-01   1.60608834E-01   5.31825461E-04   1.86524556E-16   8.48942416E-07   3.16582712E-109  1.17798862E-103  2.30035633E-05  
  2                6.51248401E-05   7.41312104E+01   8.38831204E-01   1.60608834E-01   5.31825461E-04   1.86962612E-16   8.48942416E-07   1.24054882E-109  2.78398253E-105  2.30035633E-05  
  3                1.33229417E-04   8.71127853E+01   8.38831204E-01   1.60608834E-01   5.31825461E-04   1.86827849E-16   8.48942416E-07   8.67335515E-110  6.64731768E-106  2.30035633E-05  
  4                2.15971429E-04   7.89062775E+01   8.38831204E-01   1.60608834E-01   5.31825461E-04   1.86683903E-16   8.48942416E-07   6.81222594E-110  2.52766402E-106  2.30035633E-05  
  5                3.16430534E-04   9.28557454E+01   8.38831204E-01   1.60608834E-01   5.31825461E-04   1.86607707E-16   8.48942416E-07   5.62792113E-110  1.17700386E-106  2.30035633E-05  
  6                4.37876617E-04   8.64726043E+01   8.38831204E-01   1.60608834E-01   5.31825461E-04   1.87099929E-16   8.48942416E-07   4.78422193E-110  6.16275912E-107  2.30035633E-05  
  7                5.87700040E-04   9.41116728E+01   8.38831204E-01   1.60608834E-01   5.31825461E-04   1.87057113E-16   8.48942416E-07   4.12961281E-110  3.42032887E-107  2.30035633E-05  
  8                7.66852207E-04   1.00693034E+02   8.38824016E-01   1.60607457E-01   5.31820903E-04   1.96972266E-16   8.58636674E-07   2.17115131E-109  1.07337888E-106  2.30033662E-05  
  9                9.65643013E-04   1.08133582E+02   8.38795847E-01   1.60602064E-01   5.31803044E-04   9.74696047E-15   9.45443491E-06   1.04203410E-101  3.43407787E-98   2.30025937E-05  
  10               1.10899494E-03   1.13409441E+02   8.38729730E-01   1.60589405E-01   5.31761126E-04   2.95310610E-13   4.30696033E-05   7.18291482E-97   2.08123005E-92   2.30007806E-05  
  11               1.18832180E-03   1.15612557E+02   8.38729730E-01   1.60589405E-01   5.31761126E-04   2.96686560E-13   1.21819255E-04   5.53455329E-95   9.74918267E-91   2.30007806E-05  
  12               1.25275814E-03   1.17981930E+02   8.38729730E-01   1.60589405E-01   5.31761126E-04   1.77239915E-12   1.21819255E-04   4.98655948E-93   3.21678440E-88   2.30007806E-05  
  13               1.33230816E-03   1.19971253E+02   8.38729730E-01   1.60589405E-01   5.31761126E-04   1.77918762E-12   1.21819255E-04   1.88535936E-91   8.00123221E-87   2.30007806E-05  
  14               1.43046657E-03   1.23180208E+02   8.38729730E-01   1.60589405E-01   5.31761126E-04   9.05984973E-12   1.21819255E-04   5.22703808E-89   6.11418490E-84   2.30007806E-05  
  15               1.55164237E-03   1.24383399E+02   8.38729730E-01   1.60589405E-01   5.31761126E-04   9.19210757E-12   1.21819255E-04   3.88784869E-88   3.40298226E-83   2.30007806E-05  
  16               1.70099359E-03   1.30322478E+02   8.38729730E-01   1.60589405E-01   5.31761126E-04   1.51039234E-10   1.21819255E-04   5.23017582E-84   2.81643239E-78   2.30007806E-05  
  17               1.88498501E-03   1.32522705E+02   8.38729729E-01   1.60589405E-01   5.31761125E-04   1.52104877E-10   1.21819255E-04   1.37723305E-82   4.78651364E-77   2.30007805E-05  
  18               2.11177992E-03   1.37788516E+02   8.38729729E-01   1.60589405E-01   5.31761125E-04   1.29501278E-09   1.21819255E-04   2.40280355E-79   3.12175042E-73   2.30007805E-05  
  19               2.39135546E-03   1.39780329E+02   8.38729724E-01   1.60589404E-01   5.31761122E-04   1.30155973E-09   1.21819254E-04   3.35154861E-78   2.87972734E-72   2.30007804E-05  
  20               2.73597605E-03   1.45001678E+02   8.38729724E-01   1.60589404E-01   5.31761122E-04   8.32327998E-09   1.21819254E-04   2.59810704E-75   6.57677144E-69   2.30007804E-05  
  21               3.16069300E-03   1.46983534E+02   8.38729705E-01   1.60589400E-01   5.31761110E-04   8.34389120E-09   1.21819251E-04   2.73521128E-74   4.55368471E-68   2.30007799E-05  
  22               3.68403461E-03   1.52306057E+02   8.38729623E-01   1.60589384E-01   5.31761058E-04   3.05416769E-08   1.21819239E-04   1.25346577E-71   3.60999277E-65   2.30007776E-05  
  23               4.32851872E-03   1.54968539E+02   8.38729623E-01   1.60589384E-01   5.31761058E-04   1.28270973E-07   1.21819239E-04   2.19609164E-70   1.63391228E-63   2.30007776E-05  
  24               5.12219925E-03   1.59328059E+02   8.38729280E-01   1.60589319E-01   5.31760840E-04   1.28651409E-07   1.21819190E-04   2.02556837E-68   8.03918837E-62   2.30007682E-05  
  25               6.09897723E-03   1.62509578E+02   8.38729280E-01   1.60589319E-01   5.31760840E-04   5.37007123E-07   1.21819190E-04   4.58865172E-67   4.50606406E-60   2.30007682E-05  
  26               7.30059311E-03   1.67101985E+02   8.38728093E-01   1.60589091E-01   5.31760088E-04   5.38321484E-07   1.21819017E-04   3.46850528E-65   1.82636038E-58   2.30007357E-05  
  27               8.77816249E-03   1.70306401E+02   8.38728093E-01   1.60589091E-01   5.31760088E-04   1.95232308E-06   1.21819017E-04   5.98418303E-64   6.85472299E-57   2.30007357E-05  
  28               1.05938551E-02   1.75044693E+02   8.38724601E-01   1.60588423E-01   5.31757874E-04   1.95616297E-06   1.21818510E-04   3.45815359E-62   2.15686507E-55   2.30006399E-05  
  29               1.28231575E-02   1.78313636E+02   8.38724601E-01   1.60588423E-01   5.31757874E-04   6.11568950E-06   1.21818510E-04   4.84558541E-61   5.72938633E-54   2.30006399E-05  
  30               1.55580397E-02   1.83019994E+02   8.38715209E-01   1.60586625E-01   5.31751919E-04   6.12582190E-06   1.21817146E-04   1.90279815E-59   1.26012134E-52   2.30003823E-05  
  31               1.89097872E-02   1.86304636E+02   8.38715209E-01   1.60586625E-01   5.31751919E-04   1.73138684E-05   1.21817146E-04   2.13802326E-58   2.46345389E-51   2.30003823E-05  
  32               2.30114998E-02   1.91188864E+02   8.38684321E-01   1.60580711E-01   5.31732336E-04   1.73451650E-05   1.21812660E-04   6.97249833E-57   4.57172627E-50   2.29995353E-05  
  33               2.80189006E-02   1.94938688E+02   8.38684321E-01   1.60580711E-01   5.31732336E-04   5.41407530E-05   1.21812660E-04   8.76023478E-56   1.09627381E-48   2.29995353E-05  
  34               3.41120792E-02   2.00776362E+02   8.38572646E-01   1.60559328E-01   5.31661533E-04   5.42279152E-05   1.21796440E-04   3.91522822E-54   2.74010183E-47   2.29964728E-05  
  35               4.14816771E-02   2.05007937E+02   8.38572646E-01   1.60559328E-01   5.31661533E-04   1.87288788E-04   1.21796440E-04   5.21742347E-53   7.73523125E-46   2.29964728E-05  
  36               5.03069552E-02   2.12054245E+02   8.38073950E-01   1.60463844E-01   5.31345356E-04   1.87177923E-04   1.21724008E-04   3.27927276E-51   2.68713628E-44   2.29827969E-05  
  37               6.06152855E-02   2.17422075E+02   8.38073950E-01   1.60463844E-01   5.31345356E-04   7.81873457E-04   1.21724008E-04   6.27614386E-50   1.31215992E-42   2.29827969E-05  
  38               7.21500473E-02   2.28867551E+02   8.38073950E-01   1.60463844E-01   5.31345356E-04   7.81873457E-04   1.21724008E-04   2.35943070E-47   2.51258685E-40   2.29827969E-05  
  39               8.61563972E-02   2.40433696E+02   8.38073950E-01   1.60463844E-01   5.31345356E-04   7.81873457E-04   1.21724008E-04   5.28333978E-45   2.99272357E-38   2.29827969E-05  
  40               1.03181203E-01   2.49882382E+02   8.38073950E-01   1.60463844E-01   5.31345356E-04   7.81873457E-04   1.21724008E-04   2.96181490E-43   9.82429321E-37   2.29827969E-05  
  41               1.23881524E-01   2.60446793E+02   8.38073950E-01   1.60463844E-01   5.31345356E-04   7.81873457E-04   1.21724008E-04   1.89553118E-41   3.66709598E-35   2.29827969E-05  
  42               1.49048120E-01   2.69790440E+02   8.38073950E-01   1.60463844E-01   5.31345356E-04   7.81873457E-04   1.21724008E-04   5.62513252E-40   6.68223002E-34   2.29827969E-05  
  43               1.79646737E-01   2.80580099E+02   8.38073950E-01   1.60463844E-01   5.31345356E-04   7.81873457E-04   1.21724007E-04   2.14478849E-38   1.54799681E-32   2.29827969E-05  
  44               2.16856205E-01   2.90605198E+02   8.38073950E-01   1.60463844E-01   5.31345356E-04   7.81873457E-04   1.21724007E-04   4.89649907E-37   2.22161165E-31   2.29827969E-05  
  45               2.62111360E-01   3.02333103E+02   8.38073950E-01   1.60463844E-01   5.31345356E-04   7.81873457E-04   1.21724005E-04   1.47398440E-35   4.16064991E-30   2.29827969E-05  
  46               3.17144301E-01   3.13639805E+02   8.38073950E-01   1.60463844E-01   5.31345356E-04   7.81873456E-04   1.21724002E-04   3.05589667E-34   5.50465621E-29   2.29827969E-05  
  47               3.84049625E-01   3.26945178E+02   8.38073950E-01   1.60463844E-01   5.31345356E-04   7.81873246E-04   1.21723990E-04   8.35382056E-33   9.52639380E-28   2.29827969E-05  
  48               4.65343231E-01   3.40424084E+02   8.38073949E-01   1.60463844E-01   5.31345355E-04   7.81873245E-04   1.21723961E-04   1.82174043E-31   1.33921928E-26   2.29827968E-05  
  49               5.64036867E-01   3.56466572E+02   8.38073950E-01   1.60463844E-01   5.31345355E-04   7.81871769E-04   1.21723867E-04   5.32250943E-30   2.50897666E-25   2.29827968E-05  
  50               6.83775542E-01   3.73206212E+02   8.38073744E-01   1.60463805E-01   5.31345224E-04   7.81871576E-04   1.21723578E-04   1.31741370E-28   4.04898475E-24   2.29827912E-05  
  51               8.28910332E-01   3.93243478E+02   8.38073971E-01   1.60463824E-01   5.31345289E-04   7.81625258E-04   1.21722689E-04   4.32735943E-27   8.66294985E-23   2.29827940E-05  
  52               1.00452838E+00   4.15583960E+02   8.38073973E-01   1.60463824E-01   5.31345288E-04   7.81625261E-04   1.21719670E-04   1.43112237E-25   1.89069324E-21   2.29827939E-05  
  53               1.21657883E+00   4.41236996E+02   8.38073971E-01   1.60463820E-01   5.31345277E-04   7.81625946E-04   1.21708876E-04   5.16225303E-24   4.55464032E-20   2.29827934E-05  
  54               1.47229501E+00   4.66075700E+02   8.38073551E-01   1.60463740E-01   5.31345010E-04   7.81666109E-04   1.21681035E-04   1.12898794E-22   6.84981078E-19   2.29827819E-05  
  55               1.78000482E+00   4.94561290E+02   8.38068837E-01   1.60463176E-01   5.31343143E-04   7.83560429E-04   1.21595790E-04   2.66569121E-21   1.12821388E-17   2.29827012E-05  
  56               2.15001540E+00   5.22061884E+02   8.38072111E-01   1.60463421E-01   5.31343955E-04   7.80133727E-04   1.21409582E-04   4.02492946E-20   1.20762370E-16   2.29827363E-05  
  57               2.59519247E+00   5.53665211E+02   8.38072437E-01   1.60463342E-01   5.31343693E-04   7.80133352E-04   1.20917480E-04   6.56490603E-19   1.41727459E-15   2.29827250E-05  
  58               3.13034866E+00   5.84171921E+02   8.38073050E-01   1.60463194E-01   5.31343201E-04   7.80132656E-04   1.19991021E-04   7.22222871E-18   1.14094385E-14   2.29827037E-05  
  59               3.77360610E+00   6.19243218E+02   8.38074429E-01   1.60462859E-01   5.31342094E-04   7.80131116E-04   1.17907423E-04   8.53954403E-17   9.96525283E-14   2.29826558E-05  
  60               4.54881754E+00   6.52693758E+02   8.38076523E-01   1.60462351E-01   5.31340410E-04   7.80128849E-04   1.14742214E-04   6.95328766E-16   6.06097251E-13   2.29825830E-05  
  61               5.48766813E+00   6.88203085E+02   8.38079762E-01   1.60461565E-01   5.31337804E-04   7.80125515E-04   1.09845707E-04   5.14050378E-15   3.36758144E-12   2.29824705E-05  
  62               6.62732734E+00   7.25081606E+02   8.38084063E-01   1.60460520E-01   5.31334326E-04   7.80121501E-04   1.03335824E-04   3.32055940E-14   1.64266923E-11   2.29823206E-05  
  63               8.01243653E+00   7.66504114E+02   8.38089885E-01   1.60459091E-01   5.31329527E-04   7.80117022E-04   9.44791340E-05   2.18433332E-13   8.19515845E-11   2.29821160E-05  
  64               9.70334928E+00   8.11752522E+02   8.38096519E-01   1.60457394E-01   5.31323589E-04   7.80114027E-04   8.41450649E-05   1.37150710E-12   3.91388917E-10   2.29818727E-05  
  65               1.17642658E+01   8.58718369E+02   8.38102920E-01   1.60455750E-01   5.31316894E-04   7.80115313E-04   7.41497693E-05   7.48334037E-12   1.62779474E-09   2.29816363E-05  
  66               1.42487070E+01   9.09061059E+02   8.38109196E-01   1.60454207E-01   5.31307062E-04   7.80124169E-04   6.45889025E-05   3.79150071E-11   6.31667741E-09   2.29851603E-05  
  67               1.71974227E+01   9.59908578E+02   8.38114221E-01   1.60452905E-01   5.31288029E-04   7.80136084E-04   5.67004831E-05   1.63380479E-10   2.09787805E-08   2.30188125E-05  
  68               2.06638717E+01   1.01326093E+03   8.38118048E-01   1.60451677E-01   5.31240468E-04   7.80135087E-04   4.98468926E-05   6.45382542E-10   6.43535478E-08   2.31681544E-05  
  69               2.46886476E+01   1.06614443E+03   8.38120152E-01   1.60450615E-01   5.31130442E-04   7.80080727E-04   4.45764426E-05   2.18764190E-09   1.70625226E-07   2.37052404E-05  
  70               2.92992510E+01   1.11541323E+03   8.38121605E-01   1.60449884E-01   5.30923840E-04   7.79964028E-04   4.10435604E-05   6.09259932E-09   3.74397331E-07   2.42840373E-05  
  71               3.45500254E+01   1.16232716E+03   8.38123555E-01   1.60449364E-01   5.30573791E-04   7.79755243E-04   3.85752200E-05   1.48077665E-08   7.22044851E-07   2.42837966E-05  
  72               4.05499505E+01   1.20667353E+03   8.38125137E-01   1.60448928E-01   5.30051745E-04   7.79383378E-04   3.69788308E-05   3.19450815E-08   1.24158158E-06   2.42834770E-05  
  73               4.73885501E+01   1.25023003E+03   8.38126703E-01   1.60448486E-01   5.29292593E-04   7.78785578E-04   3.58385895E-05   6.42047884E-08   1.99759125E-06   2.42830213E-05  
  74               5.51355250E+01   1.29296777E+03   8.38128363E-01   1.60448010E-01   5.28253361E-04   7.77914346E-04   3.50636636E-05   1.21225815E-07   3.03267163E-06   2.42823795E-05  
  75               6.38479007E+01   1.33645842E+03   8.38130440E-01   1.60447415E-01   5.26795471E-04   7.76635624E-04   3.44065099E-05   2.21865672E-07   4.48451387E-06   2.42814421E-05  
  76               7.36573628E+01   1.38060389E+03   8.38133026E-01   1.60446669E-01   5.24822007E-04   7.74848848E-04   3.38852481E-05   3.93681445E-07   6.44917410E-06   2.42800927E-05  
  77               8.47252770E+01   1.42647490E+03   8.38136424E-01   1.60445682E-01   5.22109987E-04   7.72335274E-04   3.34057761E-05   6.88151815E-07   9.14789430E-06   2.42780879E-05  
  78               9.72023317E+01   1.47391628E+03   8.38140752E-01   1.60444395E-01   5.18489181E-04   7.68926953E-04   3.29948933E-05   1.18174746E-06   1.27487958E-05   2.42750479E-05  
  79               1.11177678E+02   1.52358472E+03   8.38146319E-01   1.60442673E-01   5.13622784E-04   7.64310720E-04   3.25877799E-05   2.00932959E-06   1.75849207E-05   2.42700308E-05  
  80               1.26671588E+02   1.57530505E+03   8.38153126E-01   1.60440385E-01   5.07221624E-04   7.58267619E-04   3.21857301E-05   3.37288328E-06   2.39404968E-05   2.42606865E-05  
  81               1.43738635E+02   1.62974452E+03   8.38161076E-01   1.60437253E-01   4.98772819E-04   7.50361353E-04   3.17436321E-05   5.62402664E-06   3.23199871E-05   2.42398178E-05  
  82               1.62412791E+02   1.68398749E+03   8.38153380E-01   1.60430587E-01   4.88884361E-04   7.41657945E-04   3.14551704E-05   9.04293086E-06   4.21027030E-05   2.41899030E-05  
  83               1.82678474E+02   1.73733037E+03   8.38144376E-01   1.60426211E-01   4.76817968E-04   7.50343090E-04   3.13253867E-05   1.39877276E-05   5.40416021E-05   2.33511846E-05  
  84               2.04600465E+02   1.79020106E+03   8.38152290E-01   1.60421703E-01   4.64904855E-04   7.39024682E-04   3.13093063E-05   2.09778408E-05   6.57905705E-05   2.33488228E-05  
  85               2.28300195E+02   1.84230354E+03   8.38156387E-01   1.60416680E-01   4.52531839E-04   7.28195611E-04   3.14133102E-05   3.05195838E-05   7.79562920E-05   2.33299609E-05  
  86               2.53788317E+02   1.89392406E+03   8.38150660E-01   1.60410393E-01   4.39617303E-04   7.19705240E-04   3.16010491E-05   4.33029216E-05   9.06108827E-05   2.32729399E-05  
  87               2.80872161E+02   1.94420936E+03   8.38128953E-01   1.60402570E-01   4.26225842E-04   7.17694222E-04   3.18788562E-05   5.97173650E-05   1.03689965E-04   2.31358313E-05  
  88               3.09027237E+02   1.99270008E+03   8.38074917E-01   1.60390944E-01   4.11727216E-04   7.27408824E-04   3.22085652E-05   8.00899717E-05   1.17821501E-04   2.28698951E-05  
  89               3.40311721E+02   2.04239431E+03   8.37977780E-01   1.60376552E-01   3.92647406E-04   7.69216211E-04   3.26240164E-05   1.06499222E-04   1.36475678E-04   2.23034450E-05  
  90               3.72539799E+02   2.08998656E+03   8.37962951E-01   1.60370611E-01   3.81237514E-04   7.58287962E-04   3.30824300E-05   1.38023878E-04   1.47414992E-04   2.22884704E-05  
  91               4.04571966E+02   2.13395293E+03   8.37942665E-01   1.60364815E-01   3.71244461E-04   7.48803510E-04   3.35648603E-05   1.73404774E-04   1.56907435E-04   2.22707421E-05  
  92               4.41152784E+02   2.18097812E+03   8.37900843E-01   1.60355849E-01   3.61076869E-04   7.39252166E-04   3.41248490E-05   2.18915678E-04   1.66455063E-04   2.22471502E-05  
  93               4.74433766E+02   2.22084045E+03   8.37868477E-01   1.60349932E-01   3.53036563E-04   7.31809894E-04   3.46525620E-05   2.64426737E-04   1.73909856E-04   2.22243742E-05  
  94               5.02314607E+02   2.25269287E+03   8.37837480E-01   1.60344856E-01   3.46878599E-04   7.26183195E-04   3.50910550E-05   3.05927285E-04   1.79552385E-04   2.22038588E-05  
  95               5.34937360E+02   2.28794932E+03   8.37795271E-01   1.60338553E-01   3.40481852E-04   7.20464726E-04   3.56141820E-05   3.57550493E-04   1.85325946E-04   2.21792242E-05  
  96               5.72995977E+02   2.32707684E+03   8.37736876E-01   1.60331225E-01   3.33021151E-04   7.18830737E-04   3.62177464E-05   4.22559741E-04   1.92040747E-04   2.21578628E-05  
  97               6.17423904E+02   2.36989133E+03   8.37639807E-01   1.60317234E-01   3.26189554E-04   7.13107207E-04   3.69262670E-05   5.03634660E-04   1.97942152E-04   2.21214226E-05  
  98               6.55428283E+02   2.40474982E+03   8.37576527E-01   1.60310044E-01   3.20927903E-04   7.08824584E-04   3.75197670E-05   5.78142143E-04   2.02392353E-04   2.20897496E-05  
  99               6.86641659E+02   2.43198665E+03   8.37521672E-01   1.60303987E-01   3.17107820E-04   7.05811027E-04   3.80097137E-05   6.41868916E-04   2.05532736E-04   2.20637279E-05  
  100              7.23930721E+02   2.46341043E+03   8.37452071E-01   1.60296540E-01   3.12867531E-04   7.02549288E-04   3.85824057E-05   7.21951422E-04   2.08937204E-04   2.20318927E-05  
  101              7.68256516E+02   2.49880446E+03   8.37365186E-01   1.60287613E-01   3.08478474E-04   6.99326550E-04   3.92634720E-05   8.20718016E-04   2.12316325E-04   2.19943799E-05  
