# ATMO chemical composition profiles
# Chemical abundances given as mole fraction for the 8 most abundant species
# Model Level      Pressure [Ba]    Temperature [K]  H2               He               H2O              H                CH4              CO               N2               NH3             
  1                1.00000000E-05   2.18637052E+02   8.38073945E-01   1.60463844E-01   7.81878272E-04   9.53432746E-48   5.31345355E-04   8.97890805E-35   9.12694272E-10   1.21722182E-04  
  2                5.31500366E-05   2.51827763E+02   8.38073971E-01   1.60463838E-01   7.81878242E-04   2.93159071E-41   5.31345334E-04   7.90306125E-30   2.03020912E-08   1.21683399E-04  
  3                1.02533872E-04   2.71114386E+02   8.38074098E-01   1.60463807E-01   7.81878092E-04   3.44575635E-38   5.31345232E-04   2.20570111E-27   1.16278285E-07   1.21491423E-04  
  4                1.60076038E-04   2.76549461E+02   8.38074084E-01   1.60463810E-01   7.81878109E-04   1.84217554E-37   5.31345244E-04   5.40761469E-27   1.05258156E-07   1.21513466E-04  
  5                2.27463289E-04   2.89042584E+02   8.38074325E-01   1.60463752E-01   7.81877825E-04   9.28440643E-36   5.31345050E-04   1.27411014E-25   2.87364050E-07   1.21149210E-04  
  6                3.06465360E-04   2.92349407E+02   8.38074267E-01   1.60463766E-01   7.81877893E-04   2.23094978E-35   5.31345096E-04   1.84941385E-25   2.43855616E-07   1.21236237E-04  
  7                3.99257549E-04   3.03295465E+02   8.38074680E-01   1.60463666E-01   7.81877405E-04   4.97303833E-34   5.31344765E-04   2.32693751E-24   5.55794621E-07   1.20612283E-04  
  8                5.08258461E-04   3.06007206E+02   8.38074572E-01   1.60463691E-01   7.81877529E-04   9.48292521E-34   5.31344850E-04   2.96674147E-24   4.75330291E-07   1.20773231E-04  
  9                6.36499827E-04   3.16148544E+02   8.38075210E-01   1.60463537E-01   7.81875010E-04   1.32458561E-32   5.31344339E-04   2.56553713E-23   9.56205369E-07   1.19811364E-04  
  10               7.87349097E-04   3.18352427E+02   8.38075006E-01   1.60463587E-01   7.81875252E-04   2.11520942E-32   5.31344503E-04   2.89268916E-23   8.01763774E-07   1.20120285E-04  
  11               9.65047520E-04   3.27976874E+02   8.38075881E-01   1.60463375E-01   7.81874218E-04   2.14508767E-31   5.31343801E-04   1.91827172E-22   1.46251349E-06   1.18798625E-04  
  12               1.17428008E-03   3.29785294E+02   8.38075531E-01   1.60463458E-01   7.81874622E-04   3.01557461E-31   5.31344075E-04   1.96691015E-22   1.20180316E-06   1.19320108E-04  
  13               1.42094674E-03   3.39126259E+02   8.38076645E-01   1.60463189E-01   7.81868137E-04   2.45433305E-30   5.31343187E-04   1.08400387E-21   2.03927989E-06   1.17644951E-04  
  14               1.71157084E-03   3.40758803E+02   8.38076154E-01   1.60463308E-01   7.81868716E-04   3.24018597E-30   5.31343580E-04   1.06407679E-21   1.66880086E-06   1.18385999E-04  
  15               2.05441923E-03   3.50118673E+02   8.38077534E-01   1.60462974E-01   7.81867087E-04   2.31949966E-29   5.31342473E-04   5.27506828E-21   2.71083623E-06   1.16301675E-04  
  16               2.45860046E-03   3.51714351E+02   8.38076882E-01   1.60463126E-01   7.81867830E-04   2.97960079E-29   5.31342978E-04   5.09833919E-21   2.22836102E-06   1.17266741E-04  
  17               2.93578240E-03   3.61378479E+02   8.38078632E-01   1.60462706E-01   7.81850811E-04   2.00823690E-28   5.31341588E-04   2.41450259E-20   3.53972465E-06   1.14643695E-04  
  18               3.49879045E-03   3.63256122E+02   8.38077903E-01   1.60462883E-01   7.81851672E-04   2.67839524E-28   5.31342173E-04   2.43597137E-20   2.98919740E-06   1.15744884E-04  
  19               4.16441539E-03   3.73440090E+02   8.38080103E-01   1.60462332E-01   7.81848988E-04   1.76421525E-27   5.31340349E-04   1.13870227E-19   4.68140978E-06   1.12360041E-04  
  20               4.95069349E-03   3.75619803E+02   8.38079307E-01   1.60462540E-01   7.81801255E-04   2.43394843E-27   5.31341036E-04   1.19212402E-19   4.04664138E-06   1.13629735E-04  
  21               5.88190825E-03   3.86421759E+02   8.38082190E-01   1.60461841E-01   7.81797852E-04   1.57848693E-26   5.31338722E-04   5.52853593E-19   6.22414261E-06   1.09274203E-04  
  22               6.98388641E-03   3.89079612E+02   8.38081291E-01   1.60462059E-01   7.81798913E-04   2.30540104E-26   5.31339444E-04   6.13133350E-19   5.54549088E-06   1.10631672E-04  
  23               8.29234201E-03   4.00569819E+02   8.38084802E-01   1.60461144E-01   7.81794500E-04   1.46958721E-25   5.31336413E-04   2.81191337E-18   8.30891476E-06   1.05104130E-04  
  24               9.84469518E-03   4.03803634E+02   8.38084057E-01   1.60461378E-01   7.81619052E-04   2.28161124E-25   5.31337188E-04   3.31132442E-18   7.62411097E-06   1.06473915E-04  
  25               1.16941803E-02   4.16184207E+02   8.38088657E-01   1.60460262E-01   7.81614702E-04   1.45319407E-24   5.31333495E-04   1.52364651E-17   1.10991668E-05   9.95229570E-05  
  26               1.38972686E-02   4.20373763E+02   8.38087985E-01   1.60460422E-01   7.81615481E-04   2.50283994E-24   5.31334024E-04   1.98372149E-17   1.05969964E-05   1.00527419E-04  
  27               1.65372431E-02   4.34020401E+02   8.38093035E-01   1.60458891E-01   7.81638638E-04   1.64217610E-23   5.31328954E-04   9.41890167E-17   1.49560121E-05   9.18082261E-05  
  28               1.97032929E-02   4.39470910E+02   8.38093532E-01   1.60458987E-01   7.80814724E-04   3.19172722E-23   5.31329270E-04   1.37448360E-16   1.48181920E-05   9.20839388E-05  
  29               2.35272840E-02   4.54833277E+02   8.38099851E-01   1.60457225E-01   7.81175875E-04   2.20946937E-22   5.31323439E-04   6.88325791E-16   2.01136975E-05   8.14915918E-05  
  30               2.81587486E-02   4.62587729E+02   8.38099341E-01   1.60456976E-01   7.82711449E-04   5.33110440E-22   5.31322614E-04   1.23804482E-15   2.08896776E-05   7.99394427E-05  
  31               3.38007002E-02   4.79763793E+02   8.38104770E-01   1.60454714E-01   7.82700412E-04   3.73834074E-21   5.31315121E-04   6.27047218E-15   2.66384691E-05   6.84401432E-05  
  32               4.06653108E-02   4.88636698E+02   8.38108288E-01   1.60454650E-01   7.80096355E-04   9.24163999E-21   5.31314910E-04   1.14384215E-14   2.74882120E-05   6.67406090E-05  
  33               4.90390973E-02   5.07907873E+02   8.38115744E-01   1.60452842E-01   7.80087575E-04   6.51948632E-20   5.31308925E-04   5.83187031E-14   3.31201249E-05   5.54754122E-05  
  34               5.92452778E-02   5.19299623E+02   8.38117561E-01   1.60452402E-01   7.80085440E-04   1.85320374E-19   5.31307466E-04   1.22119660E-13   3.44928253E-05   5.27296771E-05  
  35               7.16868868E-02   5.41376965E+02   8.38124332E-01   1.60450760E-01   7.80077486E-04   1.33823435E-18   5.31302030E-04   6.39358060E-13   3.96077883E-05   4.24985059E-05  
  36               8.68132829E-02   5.55668305E+02   8.38126444E-01   1.60450248E-01   7.80075027E-04   4.26289712E-18   5.31300334E-04   1.49997845E-12   4.12032321E-05   3.93072300E-05  
  37               1.05115587E-01   5.80891354E+02   8.38131973E-01   1.60448908E-01   7.80068617E-04   3.05274098E-17   5.31295888E-04   7.85589428E-12   4.53800249E-05   3.09526274E-05  
  38               1.27132945E-01   5.98733816E+02   8.38134082E-01   1.60448396E-01   7.80066262E-04   1.07727310E-16   5.31294182E-04   2.05595615E-11   4.69731863E-05   2.77659167E-05  
  39               1.53389697E-01   6.27419168E+02   8.38138197E-01   1.60447398E-01   7.80061799E-04   7.39157148E-16   5.31290791E-04   1.04826256E-10   5.00823568E-05   2.15468188E-05  
  40               1.84443240E-01   6.48576446E+02   8.38139898E-01   1.60446984E-01   7.80060229E-04   2.66918206E-15   5.31289237E-04   2.85108969E-10   5.13700527E-05   1.89711129E-05  
  41               2.20864101E-01   6.80196317E+02   8.38142665E-01   1.60446310E-01   7.80057729E-04   1.62846405E-14   5.31285956E-04   1.32108772E-09   5.34661880E-05   1.47783304E-05  
  42               2.63246747E-01   7.04398443E+02   8.38143853E-01   1.60446000E-01   7.80056390E-04   5.69117846E-14   5.31282688E-04   3.54790075E-09   5.43987069E-05   1.29130579E-05  
  43               3.12152243E-01   7.38770491E+02   8.38145497E-01   1.60445527E-01   7.80049264E-04   3.01469416E-13   5.31269989E-04   1.46138312E-08   5.57612324E-05   1.01876475E-05  
  44               3.68126051E-01   7.65982238E+02   8.38146165E-01   1.60445268E-01   7.80032766E-04   9.95321274E-13   5.31245747E-04   3.78947149E-08   5.64122791E-05   8.88535776E-06  
  45               4.31832838E-01   8.03355717E+02   8.38147451E-01   1.60444947E-01   7.79948324E-04   4.61642089E-12   5.31142400E-04   1.39820083E-07   5.73010088E-05   7.10765411E-06  
  46               5.04069113E-01   8.33936193E+02   8.38148268E-01   1.60444726E-01   7.79761890E-04   1.43897129E-11   5.30931816E-04   3.49092506E-07   5.77549059E-05   6.19969028E-06  
  47               5.85636632E-01   8.74727460E+02   8.38149922E-01   1.60444250E-01   7.78997056E-04   5.91716851E-11   5.30115737E-04   1.16178428E-06   5.83386483E-05   5.03183695E-06  
  48               6.77257152E-01   9.09604317E+02   8.38151934E-01   1.60443520E-01   7.77395389E-04   1.76987001E-10   5.28451733E-04   2.82040755E-06   5.86637681E-05   4.38102436E-06  
  49               7.80036406E-01   9.51419735E+02   8.38157404E-01   1.60441634E-01   7.72571436E-04   5.98571520E-10   5.23524200E-04   7.73449182E-06   5.90114139E-05   3.68423915E-06  
  50               8.95762430E-01   9.86979847E+02   8.38167112E-01   1.60438809E-01   7.64457503E-04   1.53567222E-09   5.15294589E-04   1.59450061E-05   5.92020360E-05   3.30072510E-06  
  51               1.02754562E+00   1.03085480E+03   8.38194462E-01   1.60432108E-01   7.44053684E-04   4.54119806E-09   4.94677024E-04   3.65204783E-05   5.94241488E-05   2.85104941E-06  
  52               1.17977340E+00   1.06890629E+03   8.38231317E-01   1.60423098E-01   7.16357312E-04   1.06790814E-08   4.66759088E-04   6.43879495E-05   5.95435004E-05   2.60487741E-06  
  53               1.36056678E+00   1.11778372E+03   8.38304723E-01   1.60405178E-01   6.61071653E-04   2.97544642E-08   4.11121429E-04   1.19936149E-04   5.96932864E-05   2.29012623E-06  
  54               1.58044744E+00   1.16030710E+03   8.38375596E-01   1.60387872E-01   6.07597618E-04   6.65170714E-08   3.57316941E-04   1.73665493E-04   5.97616226E-05   2.13805255E-06  
  55               1.85256264E+00   1.20669745E+03   8.38455053E-01   1.60368458E-01   5.47586823E-04   1.49551177E-07   2.96942840E-04   2.33963872E-04   5.98172353E-05   2.00837815E-06  
  56               2.18946974E+00   1.24733987E+03   8.38511187E-01   1.60354710E-01   5.05098957E-04   2.84244001E-07   2.54182508E-04   2.76675185E-04   5.98238184E-05   1.98037722E-06  
  57               2.60318078E+00   1.29211213E+03   8.38566940E-01   1.60341013E-01   4.62790238E-04   5.50408786E-07   2.11611757E-04   3.19198024E-04   5.98287681E-05   1.95371956E-06  
  58               3.10341264E+00   1.33117297E+03   8.38601119E-01   1.60332536E-01   4.36656723E-04   9.29189981E-07   1.85299151E-04   3.45480087E-04   5.97995971E-05   1.99866419E-06  
  59               3.69785210E+00   1.37463465E+03   8.38636322E-01   1.60323699E-01   4.09515091E-04   1.61462615E-06   1.57967171E-04   3.72777524E-04   5.97762266E-05   2.02917827E-06  
  60               4.39493241E+00   1.41244043E+03   8.38655959E-01   1.60318435E-01   3.93718428E-04   2.50435982E-06   1.41990495E-04   3.88729110E-04   5.97265959E-05   2.11436638E-06  
  61               5.20366513E+00   1.45528851E+03   8.38678245E-01   1.60312336E-01   3.75811639E-04   4.04065031E-06   1.23439071E-04   4.07248092E-04   5.96874209E-05   2.17473458E-06  
  62               6.13180734E+00   1.49314973E+03   8.38687827E-01   1.60308113E-01   3.64951221E-04   5.96062271E-06   1.12465293E-04   4.18192604E-04   5.96272795E-05   2.27766559E-06  
  63               7.18146726E+00   1.53711150E+03   8.38700248E-01   1.60302932E-01   3.53944340E-04   9.24610659E-06   9.75013652E-05   4.33118036E-04   5.95832961E-05   2.34387897E-06  
  64               8.35551649E+00   1.57694757E+03   8.38693990E-01   1.60296889E-01   3.44938955E-04   1.33741530E-05   8.82084274E-05   4.42366004E-04   5.95231130E-05   2.44026574E-06  
  65               9.63861816E+00   1.62372534E+03   8.38689394E-01   1.60291235E-01   3.48383615E-04   2.04262197E-05   7.29223701E-05   4.57604900E-04   5.94870652E-05   2.48875680E-06  
  66               1.10092088E+01   1.66724921E+03   8.38688404E-01   1.60287060E-01   3.40992454E-04   2.95555780E-05   6.38536417E-05   4.66625813E-04   5.94425404E-05   2.55072741E-06  
  67               1.24313890E+01   1.71828190E+03   8.38671389E-01   1.60279890E-01   3.36461663E-04   4.51033718E-05   5.19917555E-05   4.78425757E-04   5.94245700E-05   2.55546388E-06  
  68               1.38304676E+01   1.76757794E+03   8.38623045E-01   1.60270473E-01   3.46958319E-04   6.64531745E-05   4.09768321E-05   4.89379701E-04   5.94148507E-05   2.54996660E-06  
  69               1.51175599E+01   1.80921701E+03   8.38542059E-01   1.60259464E-01   3.75688318E-04   9.05537539E-05   3.22512343E-05   4.98055285E-04   5.94059827E-05   2.55452635E-06  
  70               1.62582126E+01   1.84411793E+03   8.38474779E-01   1.60252127E-01   4.03224794E-04   1.16061932E-04   2.64303015E-05   5.03842564E-04   5.93984417E-05   2.56166601E-06  
  71               1.72593820E+01   1.87283803E+03   8.38454765E-01   1.60249345E-01   4.00795461E-04   1.41258101E-04   2.40056515E-05   5.06234643E-04   5.93846156E-05   2.57256836E-06  
  72               1.83679808E+01   1.90347673E+03   8.38418382E-01   1.60244155E-01   3.98514250E-04   1.73036212E-04   2.17350308E-05   5.08461756E-04   5.93682051E-05   2.58530394E-06  
  73               1.92881713E+01   1.92744063E+03   8.38393953E-01   1.60241381E-01   3.96976699E-04   2.01748365E-04   2.02022022E-05   5.09963303E-04   5.93535714E-05   2.59919258E-06  
  74               2.00116269E+01   1.94597326E+03   8.38372494E-01   1.60239047E-01   3.95876388E-04   2.26620018E-04   1.91052001E-05   5.11034956E-04   5.93423300E-05   2.60945125E-06  
  75               2.08289746E+01   1.96584661E+03   8.38346885E-01   1.60236373E-01   3.94824907E-04   2.55925791E-04   1.80562125E-05   5.12055055E-04   5.93282949E-05   2.62377708E-06  
  76               2.17484678E+01   1.98786106E+03   8.38315039E-01   1.60233143E-01   3.93741196E-04   2.92048687E-04   1.69735561E-05   5.13104170E-04   5.93128801E-05   2.63894569E-06  
  77               2.27767533E+01   2.01118287E+03   8.38246098E-01   1.60223483E-01   3.92727508E-04   3.34597362E-04   1.59599655E-05   5.14060028E-04   5.92920543E-05   2.65860338E-06  
  78               2.35290339E+01   2.02807519E+03   8.38215684E-01   1.60220567E-01   3.92028041E-04   3.68602062E-04   1.52670072E-05   5.14724231E-04   5.92789139E-05   2.67189057E-06  
  79               2.40648631E+01   2.03949619E+03   8.38193736E-01   1.60218481E-01   3.91624922E-04   3.93006735E-04   1.48446608E-05   5.15126031E-04   5.92686874E-05   2.68314435E-06  
  80               2.46802447E+01   2.05280217E+03   8.38166531E-01   1.60215908E-01   3.91130419E-04   4.23251617E-04   1.43553704E-05   5.15590940E-04   5.92576636E-05   2.69441105E-06  
  81               2.53844060E+01   2.06724935E+03   8.38135115E-01   1.60212975E-01   3.90684606E-04   4.57996747E-04   1.38754273E-05   5.16043008E-04   5.92440167E-05   2.70947225E-06  
  82               2.61871327E+01   2.08377001E+03   8.38096504E-01   1.60209393E-01   3.90143662E-04   5.00717664E-04   1.33407255E-05   5.16544857E-04   5.92290960E-05   2.72508671E-06  
  83               2.71017371E+01   2.10163415E+03   8.38051630E-01   1.60205275E-01   3.89619986E-04   5.50219410E-04   1.28233258E-05   5.17024556E-04   5.92109759E-05   2.74514633E-06  
  84               2.81402568E+01   2.12177839E+03   8.37996514E-01   1.60200248E-01   3.89052670E-04   6.10916719E-04   1.22634959E-05   5.17540077E-04   5.91909541E-05   2.76647199E-06  
  85               2.93154756E+01   2.14337121E+03   8.37932269E-01   1.60194441E-01   3.88513567E-04   6.81493570E-04   1.17317318E-05   5.18021033E-04   5.91670847E-05   2.79298286E-06  
  86               3.06409618E+01   2.16734162E+03   8.37853776E-01   1.60187383E-01   3.87947619E-04   7.67596586E-04   1.11742852E-05   5.18518999E-04   5.91406087E-05   2.82150222E-06  
  87               3.21311084E+01   2.19278810E+03   8.37762251E-01   1.60179211E-01   3.87421129E-04   8.67807995E-04   1.06557852E-05   5.18969383E-04   5.91095362E-05   2.85601562E-06  
  88               3.38012136E+01   2.22063186E+03   8.37651081E-01   1.60169324E-01   3.86883865E-04   9.89390574E-04   1.01274538E-05   5.19418248E-04   5.90750386E-05   2.89333905E-06  
  89               3.56675834E+01   2.24989909E+03   8.37521740E-01   1.60157879E-01   3.86395523E-04   1.13065559E-03   9.64688596E-06   5.19807985E-04   5.90350860E-05   2.93752006E-06  
  90               3.77476856E+01   2.28150382E+03   8.37365756E-01   1.60144118E-01   3.85910020E-04   1.30088052E-03   9.16956882E-06   5.20179710E-04   5.89907524E-05   2.98538145E-06  
  91               4.00603146E+01   2.31440340E+03   8.37183195E-01   1.60127862E-01   3.85479332E-04   1.49776383E-03   8.74568083E-06   5.20481982E-04   5.89398303E-05   3.04103314E-06  
  92               4.26251132E+01   2.34953644E+03   8.36958994E-01   1.60108696E-01   3.91079621E-04   1.73322136E-03   8.20686804E-06   5.20895907E-04   5.88877662E-05   3.10124440E-06  
  93               4.54642470E+01   2.38578684E+03   8.36710462E-01   1.60086941E-01   3.90836373E-04   2.00373723E-03   7.85266777E-06   5.21093412E-04   5.88243500E-05   3.17016419E-06  
  94               4.86023555E+01   2.42414197E+03   8.36415710E-01   1.60061169E-01   3.90601022E-04   2.32449470E-03   7.51451356E-06   5.21250687E-04   5.87542544E-05   3.24450823E-06  
  95               5.20658283E+01   2.46344066E+03   8.36079559E-01   1.60031819E-01   3.90412038E-04   2.69019244E-03   7.22983365E-06   5.21330627E-04   5.86753294E-05   3.32860841E-06  
  96               5.58834439E+01   2.50469753E+03   8.35684733E-01   1.59997370E-01   3.90235093E-04   3.11966524E-03   6.96269006E-06   5.21362474E-04   5.85882690E-05   3.41907282E-06  
  97               6.00880563E+01   2.54671739E+03   8.35238562E-01   1.59958476E-01   3.90107551E-04   3.60488850E-03   6.74598319E-06   5.21314013E-04   5.84908758E-05   3.52039122E-06  
  98               6.47168204E+01   2.59055781E+03   8.34719866E-01   1.59913279E-01   3.89998894E-04   4.16893544E-03   6.54705313E-06   5.21209574E-04   5.83835403E-05   3.62924344E-06  
  99               6.98109459E+01   2.63502604E+03   8.34139019E-01   1.59862696E-01   3.89945318E-04   4.80047054E-03   6.39461680E-06   5.21021517E-04   5.82640489E-05   3.75019925E-06  
  100              7.54164496E+01   2.68119683E+03   8.33470734E-01   1.59804513E-01   3.89920271E-04   5.52703046E-03   6.25938157E-06   5.20769007E-04   5.81324384E-05   3.88000617E-06  
  101              8.15845018E+01   2.72786871E+03   8.32729690E-01   1.59740023E-01   3.89960066E-04   6.33259868E-03   6.16727527E-06   5.20427822E-04   5.79864585E-05   4.02337747E-06  
