# ATMO chemical composition profiles
# Chemical abundances given as mole fraction for the 8 most abundant species
# Model Level      Pressure [Ba]    Temperature [K]  H2               He               H                CO               H2O              N2               Mg               CH4             
  1                1.00000000E-05   6.12918155E+02   8.38770366E-01   1.60294930E-01   3.37707930E-14   4.59657549E-04   3.11432012E-04   6.07969575E-05   0.00000000E+00   6.69518953E-05  
  2                1.62676456E-05   6.25572852E+02   8.38762714E-01   1.60296640E-01   6.33981796E-14   4.54887908E-04   3.17364269E-04   6.07972875E-05   0.00000000E+00   7.22920096E-05  
  3                2.43335084E-05   6.45991732E+02   8.38793167E-01   1.60289026E-01   1.97442725E-13   4.79405797E-04   2.94552722E-04   6.07942805E-05   0.00000000E+00   4.85660251E-05  
  4                3.44144742E-05   6.50328159E+02   8.38768784E-01   1.60294926E-01   2.18201878E-13   4.61097388E-04   3.13006905E-04   6.07960568E-05   0.00000000E+00   6.69653174E-05  
  5                4.69361504E-05   6.67972148E+02   8.38794091E-01   1.60288629E-01   5.47853468E-13   4.81198658E-04   2.94016493E-04   6.07935607E-05   0.00000000E+00   4.73527760E-05  
  6                6.25641576E-05   6.71117191E+02   8.38772214E-01   1.60293935E-01   5.71437841E-13   4.64701023E-04   3.10558788E-04   6.07950260E-05   0.00000000E+00   6.38951929E-05  
  7                8.20124820E-05   6.87912778E+02   8.38795210E-01   1.60288224E-01   1.30883828E-12   4.82829531E-04   2.93284089E-04   6.07927524E-05   0.00000000E+00   4.61184439E-05  
  8                1.06293726E-04   6.90686184E+02   8.38775324E-01   1.60293049E-01   1.34203343E-12   4.67814169E-04   3.08310260E-04   6.07939248E-05   0.00000000E+00   6.11647740E-05  
  9                1.36512112E-04   7.07125873E+02   8.38796184E-01   1.60287869E-01   2.89088830E-12   4.84196466E-04   2.92627166E-04   6.07918342E-05   0.00000000E+00   4.50488196E-05  
  10               1.74193787E-04   7.09783021E+02   8.38777663E-01   1.60292362E-01   2.94491917E-12   4.70207184E-04   3.06609441E-04   6.07927377E-05   0.00000000E+00   5.90631037E-05  
  11               2.21043727E-04   7.26139066E+02   8.38796764E-01   1.60287610E-01   6.06694491E-12   4.85184403E-04   2.92229977E-04   6.07907770E-05   0.00000000E+00   4.42938136E-05  
  12               2.79374773E-04   7.28837187E+02   8.38779291E-01   1.60291842E-01   6.17820332E-12   4.71995957E-04   3.05401183E-04   6.07914027E-05   0.00000000E+00   5.75046062E-05  
  13               3.51836199E-04   7.45381297E+02   8.38797155E-01   1.60287381E-01   1.23545875E-11   4.86008407E-04   2.91919544E-04   6.07895106E-05   0.00000000E+00   4.36586175E-05  
  14               4.41954629E-04   7.48243211E+02   8.38780608E-01   1.60291374E-01   1.26319763E-11   4.73545310E-04   3.04359639E-04   6.07898259E-05   0.00000000E+00   5.61429030E-05  
  15               5.53816926E-04   7.65137912E+02   8.38797429E-01   1.60287141E-01   2.47074499E-11   4.86786382E-04   2.91601770E-04   6.07879659E-05   0.00000000E+00   4.30368823E-05  
  16               6.92836250E-04   7.68185587E+02   8.38781550E-01   1.60290943E-01   2.53518730E-11   4.74877837E-04   3.03481811E-04   6.07879341E-05   0.00000000E+00   5.49654894E-05  
  17               8.65328182E-04   7.85485307E+02   8.38797284E-01   1.60286925E-01   4.85943677E-11   4.87377351E-04   2.91427511E-04   6.07860782E-05   0.00000000E+00   4.25760680E-05  
  18               1.07954749E-03   7.88762487E+02   8.38781890E-01   1.60290557E-01   5.00734739E-11   4.75926394E-04   3.02845836E-04   6.07856406E-05   0.00000000E+00   5.40461463E-05  
  19               1.34510792E-03   8.06499369E+02   8.38796467E-01   1.60286733E-01   9.41425716E-11   4.87726241E-04   2.91458705E-04   6.07837511E-05   0.00000000E+00   4.23362463E-05  
  20               1.67450789E-03   8.10025418E+02   8.38781308E-01   1.60290205E-01   9.73989711E-11   4.76632522E-04   3.02516492E-04   6.07828286E-05   0.00000000E+00   5.34481133E-05  
  21               2.08227894E-03   8.28203297E+02   8.38794522E-01   1.60286542E-01   1.79584875E-10   4.87771010E-04   2.91760610E-04   6.07808548E-05   0.00000000E+00   4.23830721E-05  
  22               2.58711156E-03   8.31921155E+02   8.38780089E-01   1.60290060E-01   1.85988343E-10   4.76837318E-04   3.02654846E-04   6.07794140E-05   0.00000000E+00   5.33342315E-05  
  23               3.21074343E-03   8.50452202E+02   8.38793541E-01   1.60286713E-01   3.35246704E-10   4.87284943E-04   2.92561044E-04   6.07773540E-05   0.00000000E+00   4.29468142E-05  
  24               3.98085340E-03   8.54290731E+02   8.38779032E-01   1.60290250E-01   3.46551334E-10   4.76292079E-04   3.03509929E-04   6.07752398E-05   0.00000000E+00   5.39561583E-05  
  25               4.92965824E-03   8.73152355E+02   8.38791753E-01   1.60287084E-01   6.10697142E-10   4.86162631E-04   2.93963997E-04   6.07729773E-05   0.00000000E+00   4.41348043E-05  
  26               6.09774184E-03   8.77041731E+02   8.38776895E-01   1.60290708E-01   6.28650572E-10   4.74903956E-04   3.05173980E-04   6.07700318E-05   0.00000000E+00   5.54091430E-05  
  27               7.53292576E-03   8.96307043E+02   8.38789187E-01   1.60287650E-01   1.08681443E-09   4.84429297E-04   2.95947397E-04   6.07674759E-05   0.00000000E+00   4.59241828E-05  
  28               9.29515000E-03   9.00315851E+02   8.38773979E-01   1.60291359E-01   1.11690971E-09   4.72906038E-04   3.07420185E-04   6.07635007E-05   0.00000000E+00   5.74627069E-05  
  29               1.14547907E-02   9.20029229E+02   8.38785996E-01   1.60288373E-01   1.89788259E-09   4.82204887E-04   2.98396215E-04   6.07605501E-05   0.00000000E+00   4.81970090E-05  
  30               1.41002077E-02   9.24223899E+02   8.38770450E-01   1.60292163E-01   1.95115976E-09   4.70428300E-04   3.10122811E-04   6.07553039E-05   0.00000000E+00   5.99887226E-05  
  31               1.73384827E-02   9.44644876E+02   8.38782606E-01   1.60289147E-01   3.28433748E-09   4.79817818E-04   3.00989647E-04   6.07518679E-05   0.00000000E+00   5.06265149E-05  
  32               2.13040343E-02   9.49223810E+02   8.38766981E-01   1.60292955E-01   3.39556825E-09   4.67987528E-04   3.12774232E-04   6.07450700E-05   0.00000000E+00   6.24719914E-05  
  33               2.61565000E-02   9.70499249E+02   8.38779333E-01   1.60289894E-01   5.67749111E-09   4.77513505E-04   3.03487407E-04   6.07410317E-05   0.00000000E+00   5.29683714E-05  
  34               3.21008433E-02   9.75838857E+02   8.38764230E-01   1.60293573E-01   5.95778254E-09   4.66087065E-04   3.14878055E-04   6.07324085E-05   1.23165349E-15   6.44100748E-05  
  35               3.93818032E-02   9.98444281E+02   8.38777190E-01   1.60290366E-01   9.99817172E-09   4.76065223E-04   3.05126552E-04   6.07277225E-05   5.32814979E-15   5.44500750E-05  
  36               4.83127348E-02   1.00489478E+03   8.38763197E-01   1.60293771E-01   1.07192323E-08   4.65491046E-04   3.15678055E-04   6.07169994E-05   5.32771069E-15   6.50392643E-05  
  37               5.92674930E-02   1.02927257E+03   8.38776874E-01   1.60290391E-01   1.81756813E-08   4.76005955E-04   3.05378239E-04   6.07116491E-05   2.55768488E-14   5.45387891E-05  
  38               7.27354574E-02   1.03743511E+03   8.38764906E-01   1.60293299E-01   2.01293550E-08   4.66978566E-04   3.14400508E-04   6.06986826E-05   2.55737174E-14   6.35804252E-05  
  39               8.92872886E-02   1.06405459E+03   8.38779119E-01   1.60289788E-01   3.46403420E-08   4.77896157E-04   3.03684476E-04   6.06926850E-05   5.02702640E-14   5.26739378E-05  
  40               1.09673327E-01   1.07448369E+03   8.38769788E-01   1.60292049E-01   3.99018351E-08   4.70881233E-04   3.10712301E-04   6.06774298E-05   1.39967449E-13   5.97017066E-05  
  41               1.34772611E-01   1.10419930E+03   8.38784520E-01   1.60288410E-01   7.04083694E-08   4.82195604E-04   2.99584962E-04   6.06710413E-05   4.52415369E-13   4.83954322E-05  
  42               1.65739146E-01   1.11773096E+03   8.38778419E-01   1.60289878E-01   8.51786138E-08   4.77646143E-04   3.04164711E-04   6.06537643E-05   9.16006358E-13   5.29556864E-05  
  43               2.03875967E-01   1.15124050E+03   8.38792914E-01   1.60286286E-01   1.54403476E-07   4.88800159E-04   2.93177200E-04   6.06472411E-05   2.90966087E-12   4.18071681E-05  
  44               2.50975377E-01   1.16899705E+03   8.38790256E-01   1.60286902E-01   1.98282640E-07   4.86889458E-04   2.95132139E-04   6.06286204E-05   7.36226239E-12   4.37260983E-05  
  45               3.09005262E-01   1.20749286E+03   8.38803705E-01   1.60283533E-01   3.71665621E-07   4.97318486E-04   2.84845851E-04   6.06224839E-05   2.31567808E-11   3.33003991E-05  
  46               3.80497720E-01   1.23063068E+03   8.38803822E-01   1.60283436E-01   5.08943845E-07   4.97592820E-04   2.84622324E-04   6.06034413E-05   7.41606248E-11   3.30315141E-05  
  47               4.67967644E-01   1.27516171E+03   8.38814952E-01   1.60280536E-01   9.84372510E-07   5.06481597E-04   2.75863343E-04   6.05982646E-05   2.30350346E-10   2.41442910E-05  
  48               5.74578698E-01   1.30465499E+03   8.38816395E-01   1.60279990E-01   1.43157866E-06   5.08031574E-04   2.74367852E-04   6.05799866E-05   9.13568971E-10   2.25969690E-05  
  49               7.03066505E-01   1.35575722E+03   8.38823553E-01   1.60277697E-01   2.81838343E-06   5.14711544E-04   2.67890806E-04   6.05761158E-05   4.64519438E-09   1.59168127E-05  
  50               8.56389137E-01   1.39174595E+03   8.38823303E-01   1.60276822E-01   4.27092187E-06   5.16491713E-04   2.66359078E-04   6.05593928E-05   1.25938184E-08   1.41359811E-05  
  51               1.03727280E+00   1.44874047E+03   8.38821952E-01   1.60274641E-01   8.32270680E-06   5.20864863E-04   2.63163084E-04   6.05563181E-05   6.10858144E-08   9.75895677E-06  
  52               1.24819197E+00   1.48999665E+03   8.38802198E-01   1.60270931E-01   1.27154975E-05   5.22254173E-04   2.64341447E-04   6.05399196E-05   1.65553592E-07   8.35655735E-06  
  53               1.48464754E+00   1.55115237E+03   8.38775471E-01   1.60268685E-01   2.38496279E-05   5.25194260E-04   2.81587459E-04   6.05387249E-05   5.55081982E-07   5.40706506E-06  
  54               1.73843141E+00   1.59524854E+03   8.38756887E-01   1.60266276E-01   3.57077091E-05   5.26060434E-04   2.83355701E-04   6.05264735E-05   2.27928284E-06   4.53066350E-06  
  55               2.00148237E+00   1.65631735E+03   8.38692768E-01   1.60258925E-01   6.22598701E-05   5.27531971E-04   2.98974471E-04   6.05257419E-05   1.33087138E-05   3.03245010E-06  
  56               2.24738339E+00   1.70816167E+03   8.38585509E-01   1.60249333E-01   9.65944908E-05   5.28496266E-04   3.41320488E-04   6.05241905E-05   4.12617427E-05   2.03247866E-06  
  57               2.46072631E+00   1.74957203E+03   8.38482936E-01   1.60240209E-01   1.34479933E-04   5.28988891E-04   3.78425324E-04   6.05215331E-05   6.55768260E-05   1.50621256E-06  
  58               2.64940841E+00   1.78385086E+03   8.38446238E-01   1.60236921E-01   1.74677963E-04   5.29188127E-04   3.78141650E-04   6.05188660E-05   6.54966179E-05   1.29512560E-06  
  59               2.81193116E+00   1.81176669E+03   8.38409854E-01   1.60233689E-01   2.14437975E-04   5.29317958E-04   3.77940381E-04   6.05160606E-05   6.54288173E-05   1.15347332E-06  
  60               3.00291832E+00   1.84298079E+03   8.38329681E-01   1.60223372E-01   2.67580454E-04   5.29415494E-04   3.77726194E-04   6.05100131E-05   6.53479980E-05   1.02018975E-06  
  61               3.15556255E+00   1.86671568E+03   8.38286224E-01   1.60219553E-01   3.14947081E-04   5.29487757E-04   3.77589578E-04   6.05066312E-05   6.52864530E-05   9.33826261E-07  
  62               3.27192434E+00   1.88427265E+03   8.38250089E-01   1.60216378E-01   3.54315215E-04   5.29533265E-04   3.77495899E-04   6.05038859E-05   6.52399677E-05   8.76602374E-07  
  63               3.41149144E+00   1.90456467E+03   8.38203768E-01   1.60212314E-01   4.04755754E-04   5.29577613E-04   3.77395897E-04   6.05003495E-05   6.51849288E-05   8.17250344E-07  
  64               3.57761663E+00   1.92792620E+03   8.38143782E-01   1.60207057E-01   4.70046082E-04   5.29619383E-04   3.77291229E-04   6.04958941E-05   6.51201309E-05   7.56111907E-07  
  65               3.77364873E+00   1.95424948E+03   8.38066918E-01   1.60200328E-01   5.53664928E-04   5.29654908E-04   3.77189098E-04   6.04902381E-05   6.50448793E-05   6.95830026E-07  
  66               4.00266173E+00   1.98367222E+03   8.37968065E-01   1.60191685E-01   6.61180988E-04   5.29682010E-04   3.77096381E-04   6.04831961E-05   6.49582560E-05   6.37031971E-07  
  67               4.26936073E+00   2.01606244E+03   8.37841922E-01   1.60180663E-01   7.98461697E-04   5.29696954E-04   3.76952827E-04   6.04743743E-05   6.48593232E-05   5.81782260E-07  
  68               4.58038701E+00   2.05180295E+03   8.37678904E-01   1.60166428E-01   9.75848417E-04   5.29697128E-04   3.76797700E-04   6.04633738E-05   6.47460817E-05   5.29770096E-07  
  69               4.94120426E+00   2.09057623E+03   8.37470556E-01   1.60148242E-01   1.20253590E-03   5.29678360E-04   3.76631008E-04   6.04496743E-05   6.46177247E-05   4.82562335E-07  
  70               5.35783477E+00   2.13246314E+03   8.37203807E-01   1.60124966E-01   1.49274330E-03   5.29636983E-04   3.76448813E-04   6.04327666E-05   6.44728397E-05   4.39880451E-07  
  71               5.83697728E+00   2.17701839E+03   8.36867046E-01   1.60095588E-01   1.85909851E-03   5.29568551E-04   3.76249704E-04   6.04119897E-05   6.43106948E-05   4.02610633E-07  
  72               6.38612311E+00   2.22431973E+03   8.36441928E-01   1.60058510E-01   2.32155720E-03   5.29468318E-04   3.76027647E-04   6.03866476E-05   6.41297240E-05   3.69982372E-07  
  73               7.01370997E+00   2.27379778E+03   8.35914731E-01   1.60012534E-01   2.89504366E-03   5.29331553E-04   3.75780415E-04   6.03559474E-05   6.39293291E-05   3.42504374E-07  
  74               7.72934142E+00   2.32551169E+03   8.35260849E-01   1.59955310E-01   3.60417030E-03   5.29151075E-04   3.75499733E-04   6.03188544E-05   6.37076954E-05   3.19279961E-07  
  75               8.54344399E+00   2.37883984E+03   8.34462069E-01   1.59886169E-01   4.46362295E-03   5.28931282E-04   3.81728283E-04   6.02757393E-05   6.34646566E-05   2.95386490E-07  
  76               9.46834814E+00   2.43395232E+03   8.33506538E-01   1.59802860E-01   5.50289155E-03   5.28651134E-04   3.81462702E-04   6.02236391E-05   6.31983225E-05   2.80353392E-07  
  77               1.05184229E+01   2.49022347E+03   8.32375471E-01   1.59704252E-01   6.73310720E-03   5.28313258E-04   3.81129609E-04   6.01625008E-05   6.29082813E-05   2.69031082E-07  
  78               1.17097505E+01   2.54789800E+03   8.31039361E-01   1.59587773E-01   8.18635540E-03   5.27909454E-04   3.80724639E-04   6.00910220E-05   6.25924766E-05   2.60573011E-07  
  79               1.30602035E+01   2.60633457E+03   8.29495555E-01   1.59453195E-01   9.86550963E-03   5.27438086E-04   3.80253021E-04   6.00084179E-05   6.22510528E-05   2.55240374E-07  
  80               1.45899542E+01   2.66573204E+03   8.27718691E-01   1.59298306E-01   1.17981440E-02   5.26891719E-04   3.79711484E-04   5.99132544E-05   6.18823057E-05   2.52432653E-07  
  81               1.63216078E+01   2.72564126E+03   8.25710496E-01   1.59123260E-01   1.39823658E-02   5.26269878E-04   3.79106642E-04   5.98046030E-05   6.14864103E-05   2.52299788E-07  
  82               1.82804469E+01   2.78610421E+03   8.23457910E-01   1.58926920E-01   1.64323669E-02   5.25568096E-04   3.78439865E-04   5.96808823E-05   6.10624501E-05   2.54569130E-07  
  83               2.04942345E+01   2.84687959E+03   8.20965346E-01   1.58709672E-01   1.91433294E-02   5.24786485E-04   3.77719120E-04   5.95406066E-05   6.06106284E-05   2.59293565E-07  
  84               2.29932490E+01   2.90806633E+03   8.18222685E-01   1.58470635E-01   2.21262429E-02   5.23921044E-04   3.76947466E-04   5.93812523E-05   6.01303516E-05   2.66267670E-07  
  85               2.58104821E+01   2.96933290E+03   8.15250262E-01   1.58211584E-01   2.53589693E-02   5.22975959E-04   3.76138995E-04   5.92003775E-05   5.96227813E-05   2.75717417E-07  
  86               2.89817504E+01   3.03086963E+03   8.12037907E-01   1.57931634E-01   2.88525474E-02   5.21946795E-04   3.75296884E-04   5.89932481E-05   5.90875007E-05   2.87450549E-07  
  87               3.25432869E+01   3.09226687E+03   8.08622207E-01   1.57633975E-01   3.25671621E-02   5.20841953E-04   3.74440005E-04   5.87550955E-05   5.85268386E-05   3.01801123E-07  
  88               3.65316158E+01   3.15365731E+03   8.05001096E-01   1.57318428E-01   3.65050373E-02   5.19658953E-04   3.73572193E-04   5.84773698E-05   5.79414512E-05   3.18625430E-07  
  89               4.09867421E+01   3.21475476E+03   8.01211617E-01   1.56988222E-01   4.06258605E-02   5.18405915E-04   3.72709260E-04   5.81499882E-05   5.73337904E-05   3.38226974E-07  
  90               4.59529232E+01   3.27576258E+03   7.97248647E-01   1.56642910E-01   4.49351791E-02   5.17078805E-04   3.71849967E-04   5.77566044E-05   5.67042413E-05   3.60519624E-07  
  91               5.14796006E+01   3.33641680E+03   7.93155064E-01   1.56286228E-01   4.93863314E-02   5.15686605E-04   3.71007447E-04   5.72781711E-05   5.60552062E-05   3.85936946E-07  
  92               5.76221152E+01   3.39706063E+03   7.88911166E-01   1.55916457E-01   5.40007186E-02   5.14220264E-04   3.70169711E-04   5.66845380E-05   5.53862561E-05   4.14368637E-07  
  93               6.44424796E+01   3.45744715E+03   7.84562296E-01   1.55537545E-01   5.87289911E-02   5.12688454E-04   3.69345249E-04   5.59420658E-05   5.46996222E-05   4.46377852E-07  
  94               7.20096817E+01   3.51793661E+03   7.80083400E-01   1.55147303E-01   6.35983573E-02   5.11079518E-04   3.68513902E-04   5.50000742E-05   5.39946002E-05   4.81921078E-07  
  95               8.04016179E+01   3.57830922E+03   7.75519504E-01   1.54749652E-01   6.85598032E-02   5.09400852E-04   3.67679264E-04   5.38044167E-05   5.32731878E-05   5.21686058E-07  
  96               8.97067273E+01   3.63895721E+03   7.70838050E-01   1.54341743E-01   7.36486798E-02   5.07637340E-04   3.66813128E-04   5.22768171E-05   5.25342668E-05   5.65698773E-07  
  97               1.00025738E+02   3.69963608E+03   7.66090170E-01   1.53928027E-01   7.88093145E-02   5.05796652E-04   3.65919317E-04   5.03430969E-05   5.17797743E-05   6.14885253E-07  
  98               1.11473305E+02   3.76079845E+03   7.61231777E-01   1.53504648E-01   8.40895774E-02   5.03858894E-04   3.64961812E-04   4.78996171E-05   5.10080802E-05   6.69320288E-07  
  99               1.24179600E+02   3.82222406E+03   7.56312623E-01   1.53075934E-01   8.94352985E-02   5.01829714E-04   3.63944735E-04   4.48705921E-05   5.02208852E-05   7.30131070E-07  
  100              1.38291575E+02   3.88435157E+03   7.51286569E-01   1.52637849E-01   9.48965890E-02   4.99686902E-04   3.62830068E-04   4.11665346E-05   4.94165852E-05   7.97533757E-07  
  101              1.53975180E+02   3.94694611E+03   7.46207026E-01   1.52195047E-01   1.00415363E-01   4.97434852E-04   3.61628249E-04   3.67863711E-05   4.85969744E-05   8.72939741E-07  
