# ATMO chemical composition profiles
# Chemical abundances given as mole fraction for the 8 most abundant species
# Model Level      Pressure [Ba]    Temperature [K]  H2               He               H2O              CH4              CO               NH3              H                N2              
  1                1.00000000E-05   5.81749861E+01   8.38830282E-01   1.60608619E-01   3.30376459E-16   5.31824749E-04   2.08648383E-103  1.98659983E-06   3.16582538E-109  2.87631874E-37  
  2                1.23258760E-04   8.48072015E+01   8.38830282E-01   1.60608619E-01   3.12843022E-16   5.31824749E-04   1.30045944E-105  1.98659983E-06   9.01733198E-110  1.89322148E-39  
  3                2.40795115E-04   9.35747651E+01   8.38729763E-01   1.60589373E-01   4.13831179E-16   5.31761019E-04   4.50748084E-106  2.09796078E-06   6.45076318E-110  5.53309026E-40  
  4                3.22272429E-04   1.10827304E+02   8.38729763E-01   1.60589373E-01   1.13868180E-13   5.31761019E-04   7.34258273E-94   1.21819230E-04   6.30517726E-99   1.67889949E-32  
  5                3.46810535E-04   1.13369009E+02   8.38729763E-01   1.60589373E-01   3.60291605E-13   5.31761019E-04   2.41044295E-91   1.21819230E-04   1.18343865E-96   1.08684898E-31  
  6                3.74921701E-04   1.22976372E+02   8.38729763E-01   1.60589373E-01   2.40075572E-11   5.31761019E-04   1.71354472E-82   1.21819230E-04   7.18914885E-89   9.11275325E-29  
  7                4.07187851E-04   1.23470625E+02   8.38729763E-01   1.60589373E-01   2.44167526E-11   5.31761019E-04   3.20013865E-82   1.21819230E-04   1.61170844E-88   1.07073435E-28  
  8                4.44280674E-04   1.31553727E+02   8.38729763E-01   1.60589373E-01   4.63393950E-10   5.31761019E-04   6.99332591E-76   1.21819230E-04   6.65824993E-83   1.33789580E-26  
  9                4.86935052E-04   1.31858798E+02   8.38729759E-01   1.60589372E-01   4.67332902E-10   5.31761016E-04   8.92244779E-76   1.21819230E-04   1.00607591E-82   1.32975511E-26  
  10               5.36026099E-04   1.39229186E+02   8.38729759E-01   1.60589372E-01   4.69299189E-09   5.31761016E-04   1.05191638E-70   1.21819230E-04   3.38185532E-78   6.33213376E-25  
  11               5.92532395E-04   1.39434990E+02   8.38729739E-01   1.60589368E-01   4.71549789E-09   5.31761003E-04   1.11374126E-70   1.21819227E-04   4.24117207E-78   5.76915260E-25  
  12               6.57604257E-04   1.46297830E+02   8.38729739E-01   1.60589368E-01   2.88605081E-08   5.31761003E-04   1.69857752E-66   1.21819227E-04   2.60952447E-74   1.42240252E-23  
  13               7.32550305E-04   1.46214823E+02   8.38729663E-01   1.60589353E-01   2.89451439E-08   5.31760955E-04   1.25128027E-66   1.21819216E-04   2.23436578E-74   1.10190182E-23  
  14               8.18896584E-04   1.52670558E+02   8.38729663E-01   1.60589353E-01   1.19757501E-07   5.31760955E-04   4.16863235E-63   1.21819216E-04   4.00242792E-71   1.67761422E-22  
  15               9.18387379E-04   1.52229063E+02   8.38729393E-01   1.60589302E-01   1.20056655E-07   5.31760784E-04   2.10906757E-63   1.21819177E-04   2.30210304E-71   1.09878124E-22  
  16               1.03301786E-03   1.58848789E+02   8.38729393E-01   1.60589302E-01   4.41205731E-07   5.31760784E-04   4.30549426E-60   1.21819177E-04   2.75136986E-68   1.42605069E-21  
  17               1.16508611E-03   1.58313208E+02   8.38728399E-01   1.60589111E-01   4.42306575E-07   5.31760154E-04   2.03680346E-60   1.21819032E-04   1.48591669E-68   9.01378402E-22  
  18               1.31721938E-03   1.65322504E+02   8.38728399E-01   1.60589111E-01   1.62629233E-06   5.31760154E-04   3.60921861E-57   1.21819032E-04   1.51913655E-65   1.10082076E-20  
  19               1.49242737E-03   1.64941412E+02   8.38724954E-01   1.60588452E-01   1.63008290E-06   5.31757970E-04   2.01489792E-57   1.21818532E-04   9.90862462E-66   7.42752066E-21  
  20               1.69416973E-03   1.72309214E+02   8.38724954E-01   1.60588452E-01   5.73377306E-06   5.31757970E-04   2.78898616E-54   1.21818532E-04   8.09564963E-63   8.32819992E-20  
  21               1.92637661E-03   1.71961788E+02   8.38714688E-01   1.60586486E-01   5.74483991E-06   5.31751461E-04   1.63024401E-54   1.21817041E-04   5.58951015E-63   5.70702259E-20  
  22               2.19351509E-03   1.79565822E+02   8.38714688E-01   1.60586486E-01   1.79733896E-05   5.31751461E-04   1.47632040E-51   1.21817041E-04   3.25391026E-60   5.62280353E-19  
  23               2.50056416E-03   1.79012929E+02   8.38682118E-01   1.60580250E-01   1.80062328E-05   5.31730812E-04   7.51974113E-52   1.21812310E-04   1.94455172E-60   3.61999451E-19  
  24               2.85287390E-03   1.87078611E+02   8.38682118E-01   1.60580250E-01   5.68060599E-05   5.31730812E-04   6.06998482E-49   1.21812310E-04   9.83285875E-58   3.39474598E-18  
  25               3.25597267E-03   1.86723639E+02   8.38566463E-01   1.60558106E-01   5.68947123E-05   5.31657485E-04   3.65201067E-49   1.21795512E-04   7.05692108E-58   2.34424728E-18  
  26               3.71449063E-03   1.95373537E+02   8.38566463E-01   1.60558106E-01   1.94699784E-04   5.31657485E-04   2.95760285E-46   1.21795512E-04   3.24228504E-55   2.13940182E-17  
  27               4.23081001E-03   1.95602396E+02   8.38074151E-01   1.60463844E-01   1.94585986E-04   5.31345356E-04   2.63366136E-46   1.21724008E-04   3.55063603E-55   1.75468706E-17  
  28               4.79768516E-03   2.06935392E+02   8.38074151E-01   1.60463844E-01   7.81672039E-04   5.31345356E-04   7.27422613E-43   1.21724008E-04   5.03030225E-52   2.58075580E-16  
  29               5.39354707E-03   2.11350011E+02   8.38074151E-01   1.60463844E-01   7.81672039E-04   5.31345356E-04   6.67280959E-42   1.21724008E-04   6.64266121E-51   5.91860815E-16  
  30               6.07495285E-03   2.22732710E+02   8.38074151E-01   1.60463844E-01   7.81672039E-04   5.31345356E-04   1.88494029E-39   1.21724008E-04   3.49043173E-48   6.03659223E-15  
  31               6.85369477E-03   2.27960900E+02   8.38074151E-01   1.60463844E-01   7.81672039E-04   5.31345356E-04   1.82194713E-38   1.21724008E-04   4.85864894E-47   1.41808731E-14  
  32               7.74337907E-03   2.40069682E+02   8.38074151E-01   1.60463844E-01   7.81672039E-04   5.31345356E-04   3.17442614E-36   1.21724008E-04   1.49419210E-44   1.18188165E-13  
  33               8.76026256E-03   2.44349797E+02   8.38074151E-01   1.60463844E-01   7.81672039E-04   5.31345356E-04   1.47931614E-35   1.21724007E-04   9.48378553E-44   2.02084684E-13  
  34               9.92306684E-03   2.55871272E+02   8.38074151E-01   1.60463844E-01   7.81672039E-04   5.31345356E-04   1.05756202E-33   1.21724005E-04   1.10940296E-41   1.14783221E-12  
  35               1.12521904E-02   2.60506965E+02   8.38074151E-01   1.60463844E-01   7.81672039E-04   5.31345356E-04   4.54168855E-33   1.21724004E-04   6.43727483E-41   1.89508926E-12  
  36               1.27711077E-02   2.72531655E+02   8.38074151E-01   1.60463844E-01   7.81672039E-04   5.31345356E-04   2.28060027E-31   1.21723989E-04   5.10308969E-39   9.27348243E-12  
  37               1.45059957E-02   2.77973990E+02   8.38074151E-01   1.60463844E-01   7.81672039E-04   5.31345356E-04   1.04010067E-30   1.21723976E-04   3.14471001E-38   1.57501115E-11  
  38               1.64869983E-02   2.90783004E+02   8.38074152E-01   1.60463844E-01   7.81672039E-04   5.31345356E-04   4.04799943E-29   1.21723869E-04   1.87651955E-36   6.93431849E-11  
  39               1.87475147E-02   2.97381193E+02   8.38074152E-01   1.60463844E-01   7.81672039E-04   5.31345356E-04   2.07344314E-28   1.21723759E-04   1.30055062E-35   1.24351998E-10  
  40               2.13253025E-02   3.11787154E+02   8.38074152E-01   1.60463844E-01   7.81672038E-04   5.31345356E-04   7.59656580E-27   1.21722933E-04   7.16997517E-34   5.37355998E-10  
  41               2.42597955E-02   3.21617880E+02   8.38074152E-01   1.60463844E-01   7.81672036E-04   5.31345354E-04   6.74442488E-26   1.21721531E-04   8.79738303E-33   1.23791565E-09  
  42               2.75995839E-02   3.36992609E+02   8.38074158E-01   1.60463843E-01   7.81670706E-04   5.31345351E-04   1.80053822E-24   1.21714628E-04   3.41155256E-31   4.68942708E-09  
  43               3.13992508E-02   3.47721324E+02   8.38074149E-01   1.60463838E-01   7.81670682E-04   5.31345335E-04   1.37780348E-23   1.21703661E-04   3.53786909E-30   1.01710489E-08  
  44               3.57221570E-02   3.64178271E+02   8.38074199E-01   1.60463832E-01   7.81651439E-04   5.31345314E-04   2.78413426E-22   1.21655407E-04   1.00665495E-28   3.42958212E-08  
  45               4.06400211E-02   3.75845299E+02   8.38074246E-01   1.60463820E-01   7.81651383E-04   5.31345276E-04   1.84148742E-21   1.21583946E-04   8.85916937E-28   7.00217139E-08  
  46               4.62364450E-02   3.93511847E+02   8.38074170E-01   1.60463724E-01   7.81650915E-04   5.31344958E-04   2.90930160E-20   1.21299335E-04   1.91771634E-26   2.12290934E-07  
  47               5.26071679E-02   4.06178505E+02   8.38074717E-01   1.60463687E-01   7.81336065E-04   5.31344834E-04   1.67381476E-19   1.20909533E-04   1.44438459E-25   4.07177532E-07  
  48               5.98766006E-02   4.25232530E+02   8.38075643E-01   1.60463462E-01   7.81335647E-04   5.31344089E-04   2.13400285E-18   1.19508138E-04   2.46515776E-24   1.10778974E-06  
  49               6.81969711E-02   4.39086494E+02   8.38076726E-01   1.60463172E-01   7.81342064E-04   5.31343128E-04   1.09125241E-17   1.17770308E-04   1.62792653E-23   1.97659451E-06  
  50               7.78200403E-02   4.59979904E+02   8.38076875E-01   1.60461703E-01   7.81614179E-04   5.31338266E-04   1.18237251E-16   1.12371663E-04   2.32209580E-22   4.67536039E-06  
  51               8.90642388E-02   4.75677391E+02   8.38082074E-01   1.60461055E-01   7.79921032E-04   5.31336120E-04   5.67942850E-16   1.06660914E-04   1.43670752E-21   7.53048868E-06  
  52               1.02518079E-01   4.99562181E+02   8.38091107E-01   1.60458865E-01   7.79910392E-04   5.31328868E-04   5.70604239E-15   9.30123457E-05   1.89405255E-20   1.43539425E-05  
  53               1.18859811E-01   5.18642540E+02   8.38098573E-01   1.60457055E-01   7.79901602E-04   5.31322875E-04   2.84794107E-14   8.17321464E-05   1.22680544E-19   1.99933556E-05  
  54               1.39157777E-01   5.47385742E+02   8.38111064E-01   1.60454027E-01   7.79886915E-04   5.31312848E-04   2.87364279E-13   6.28596886E-05   1.64048151E-18   2.94284361E-05  
  55               1.64423264E-01   5.71553006E+02   8.38119015E-01   1.60452100E-01   7.79877607E-04   5.31306463E-04   1.53991333E-12   5.08448818E-05   1.16083159E-17   3.54351083E-05  
  56               1.95654954E-01   6.06051429E+02   8.38128823E-01   1.60449722E-01   7.79866281E-04   5.31298576E-04   1.47241397E-11   3.60257991E-05   1.48012125E-16   4.28437478E-05  
  57               2.33415626E-01   6.34666493E+02   8.38133951E-01   1.60448478E-01   7.79860654E-04   5.31294397E-04   7.30613284E-11   2.82741438E-05   9.69943119E-16   4.67191036E-05  
  58               2.78031801E-01   6.72978157E+02   8.38139396E-01   1.60447154E-01   7.79855293E-04   5.31289532E-04   5.49134096E-10   2.00338791E-05   9.55721629E-15   5.08387338E-05  
  59               3.29662898E-01   7.03501126E+02   8.38141940E-01   1.60446515E-01   7.79853145E-04   5.31285796E-04   2.15563881E-09   1.61149751E-05   4.84723823E-14   5.27979434E-05  
  60               3.88348049E-01   7.43231976E+02   8.38144534E-01   1.60445807E-01   7.79847033E-04   5.31273831E-04   1.17213686E-08   1.19391265E-05   3.35342239E-13   5.48855994E-05  
  61               4.54146170E-01   7.73757139E+02   8.38145611E-01   1.60445452E-01   7.79831016E-04   5.31248929E-04   3.53433448E-08   1.00257300E-05   1.26973589E-12   5.58421626E-05  
  62               5.27429867E-01   8.13650848E+02   8.38147184E-01   1.60445059E-01   7.79743400E-04   5.31139669E-04   1.42945010E-07   7.81712664E-06   6.35021804E-12   5.69463149E-05  
  63               6.08737538E-01   8.43731524E+02   8.38148044E-01   1.60444824E-01   7.79562483E-04   5.30933387E-04   3.47912440E-07   6.82180227E-06   1.89670042E-11   5.74438867E-05  
  64               6.98633642E-01   8.83750586E+02   8.38149706E-01   1.60444346E-01   7.78841669E-04   5.30159919E-04   1.11816055E-06   5.54995433E-06   7.39378958E-11   5.80796251E-05  
  65               7.97720004E-01   9.13410509E+02   8.38151087E-01   1.60443791E-01   7.77704318E-04   5.28970241E-04   2.30395547E-06   4.99448746E-06   1.84266949E-10   5.83571401E-05  
  66               9.06843745E-01   9.53687814E+02   8.38155247E-01   1.60442233E-01   7.73941898E-04   5.25110422E-04   6.15299264E-06   4.20392753E-06   5.93453099E-10   5.87518005E-05  
  67               1.02733521E+00   9.83262410E+02   8.38160551E-01   1.60440464E-01   7.69071689E-04   5.20155954E-04   1.10956635E-05   3.87319299E-06   1.29446395E-09   5.89164524E-05  
  68               1.16137936E+00   1.02452096E+03   8.38179425E-01   1.60435826E-01   7.55111099E-04   5.06006861E-04   2.52149162E-05   3.34615035E-06   3.63845861E-09   5.91780764E-05  
  69               1.31157448E+00   1.05515834E+03   8.38199777E-01   1.60430839E-01   7.39865084E-04   4.90601399E-04   4.05912135E-05   3.13343564E-06   7.30830237E-09   5.92823528E-05  
  70               1.48280178E+00   1.09892599E+03   8.38249139E-01   1.60418775E-01   7.02784399E-04   4.53238882E-04   7.78886672E-05   2.75957436E-06   1.88873879E-08   5.94641855E-05  
  71               1.68071165E+00   1.13276813E+03   8.38294110E-01   1.60407788E-01   6.68892083E-04   4.19111108E-04   1.11963459E-04   2.61039789E-06   3.67672163E-08   5.95339533E-05  
  72               1.91589434E+00   1.18193931E+03   8.38381491E-01   1.60386452E-01   6.02995987E-04   3.52821337E-04   1.78159278E-04   2.33012511E-06   9.22592253E-08   5.96644251E-05  
  73               2.20068256E+00   1.22255019E+03   8.38447932E-01   1.60370209E-01   5.52798821E-04   3.02318621E-04   2.28598150E-04   2.21782060E-06   1.83141265E-07   5.97125436E-05  
  74               2.55365150E+00   1.28140700E+03   8.38548712E-01   1.60345534E-01   4.76552236E-04   2.25650948E-04   3.05174949E-04   2.00131740E-06   4.66962570E-07   5.98075381E-05  
  75               2.99269079E+00   1.33207491E+03   8.38611968E-01   1.60329933E-01   4.28416485E-04   1.77240659E-04   3.53529742E-04   1.92140814E-06   9.59283982E-07   5.98371595E-05  
  76               3.52097163E+00   1.38262086E+03   8.38660015E-01   1.60317874E-01   3.91410099E-04   1.39995025E-04   3.90730059E-04   1.87939568E-06   1.85325124E-06   5.98481288E-05  
  77               4.14102196E+00   1.43052982E+03   8.38692467E-01   1.60309309E-01   3.65627426E-04   1.13902875E-04   4.16785283E-04   1.87747240E-06   3.28532625E-06   5.98396109E-05  
  78               4.85532335E+00   1.48031201E+03   8.38717345E-01   1.60301827E-01   3.44379501E-04   9.19229775E-05   4.38727446E-04   1.87874482E-06   5.72540275E-06   5.98286406E-05  
  79               5.66207246E+00   1.52877085E+03   8.38730055E-01   1.60295433E-01   3.29431408E-04   7.54297076E-05   4.55182469E-04   1.89637177E-06   9.45976485E-06   5.98090969E-05  
  80               6.54986933E+00   1.58000860E+03   8.38726562E-01   1.60287523E-01   3.19344353E-04   6.02017407E-05   4.70363045E-04   1.90159724E-06   1.56168556E-05   5.97943251E-05  
  81               7.48856420E+00   1.63027744E+03   8.38718308E-01   1.60282188E-01   3.23087755E-04   4.68854514E-05   4.83640690E-04   1.90651154E-06   2.47822250E-05   5.97821125E-05  
  82               8.44438802E+00   1.68313399E+03   8.38705946E-01   1.60276223E-01   3.17646288E-04   3.65698115E-05   4.93912092E-04   1.88895329E-06   3.93489155E-05   5.97791285E-05  
  83               9.38508912E+00   1.73060674E+03   8.38668563E-01   1.60269198E-01   3.24639732E-04   2.87577277E-05   5.01681096E-04   1.88191575E-06   5.80935549E-05   5.97732865E-05  
  84               1.02542031E+01   1.77133966E+03   8.38595559E-01   1.60259211E-01   3.46949608E-04   2.26169678E-05   5.07778269E-04   1.88095743E-06   7.97360998E-05   5.97676541E-05  
  85               1.10187458E+01   1.80486681E+03   8.38500723E-01   1.60250313E-01   3.94266099E-04   1.74328147E-05   5.12935083E-04   1.88406885E-06   1.02291384E-04   5.97662829E-05  
  86               1.16723506E+01   1.83217858E+03   8.38482582E-01   1.60248005E-01   3.92550580E-04   1.57373244E-05   5.14609544E-04   1.88865624E-06   1.24419987E-04   5.97583395E-05  
  87               1.23839874E+01   1.86043509E+03   8.38449381E-01   1.60243388E-01   3.91015665E-04   1.42290492E-05   5.16087661E-04   1.89589603E-06   1.51357668E-04   5.97478073E-05  
  88               1.29600515E+01   1.88245069E+03   8.38428448E-01   1.60241128E-01   3.89963035E-04   1.31926284E-05   5.17104346E-04   1.90259617E-06   1.75573669E-04   5.97394374E-05  
  89               1.33931523E+01   1.89841904E+03   8.38411407E-01   1.60239355E-01   3.89269926E-04   1.25137089E-05   5.17768065E-04   1.90848455E-06   1.95060379E-04   5.97327005E-05  
  90               1.38742432E+01   1.91573694E+03   8.38391011E-01   1.60237289E-01   3.88575505E-04   1.18330198E-05   5.18431435E-04   1.91531872E-06   2.18192342E-04   5.97250383E-05  
  91               1.44068613E+01   1.93426007E+03   8.38366870E-01   1.60234906E-01   3.87898480E-04   1.11701769E-05   5.19074652E-04   1.92376011E-06   2.45366005E-04   5.97160899E-05  
  92               1.49947306E+01   1.95412407E+03   8.38338097E-01   1.60232126E-01   3.87234041E-04   1.05199554E-05   5.19702554E-04   1.93348276E-06   2.77549095E-04   5.97059560E-05  
  93               1.56408157E+01   1.97514861E+03   8.38272618E-01   1.60222879E-01   3.86591914E-04   9.89811304E-06   5.20279202E-04   1.94501364E-06   3.15257555E-04   5.96920591E-05  
  94               1.61012361E+01   1.98976492E+03   8.38246775E-01   1.60220478E-01   3.86177224E-04   9.49793900E-06   5.20660925E-04   1.95335045E-06   3.43894315E-04   5.96836816E-05  
  95               1.64189533E+01   1.99959671E+03   8.38228309E-01   1.60218765E-01   3.85928805E-04   9.24565439E-06   5.20900237E-04   1.95948829E-06   3.64297817E-04   5.96776894E-05  
  96               1.67770512E+01   2.01055588E+03   8.38206651E-01   1.60216766E-01   3.85647690E-04   8.97565269E-06   5.21155328E-04   1.96633756E-06   3.88213547E-04   5.96709368E-05  
  97               1.71795117E+01   2.02256334E+03   8.38181565E-01   1.60214466E-01   3.85381611E-04   8.69697486E-06   5.21417029E-04   1.97445907E-06   4.15830248E-04   5.96631244E-05  
  98               1.76305654E+01   2.03580768E+03   8.38152209E-01   1.60211788E-01   3.85076200E-04   8.40517219E-06   5.21689369E-04   1.98355274E-06   4.48140728E-04   5.96543226E-05  
  99               1.81346521E+01   2.05019459E+03   8.38118194E-01   1.60208705E-01   3.84802642E-04   8.10894383E-06   5.21963485E-04   1.99419839E-06   4.85465396E-04   5.96442214E-05  
  100              1.86963171E+01   2.06589486E+03   8.38078503E-01   1.60205124E-01   3.84482895E-04   7.80548401E-06   5.22241676E-04   2.00611431E-06   5.29042939E-04   5.96328653E-05  
  101              1.93225273E+01   2.08284813E+03   8.38030485E-01   1.60200613E-01   3.84161645E-04   7.50286560E-06   5.22514266E-04   2.01994283E-06   5.79518045E-04   5.96197324E-05  
