# ATMO chemical composition profiles
# Chemical abundances given as mole fraction for the 8 most abundant species
# Model Level      Pressure [Ba]    Temperature [K]  H2               He               H                CO               H2O              N2               Mg               CH4             
  1                1.00000000E-05   6.28115755E+02   8.38819582E-01   1.60282817E-01   9.59675822E-14   4.98229084E-04   2.74369611E-04   6.07925759E-05   0.00000000E+00   2.91984442E-05  
  2                3.39033731E-05   6.70214956E+02   8.38813413E-01   1.60284062E-01   5.67195729E-13   4.95166066E-04   2.79272801E-04   6.07923397E-05   0.00000000E+00   3.31172556E-05  
  3                6.17884828E-05   6.78220806E+02   8.38811486E-01   1.60284344E-01   1.38756353E-12   4.94836868E-04   2.80894945E-04   6.07918463E-05   0.00000000E+00   3.40314331E-05  
  4                9.52186805E-05   7.01461427E+02   8.38800826E-01   1.60286868E-01   2.02127329E-12   4.87137659E-04   2.88993864E-04   6.07921052E-05   0.00000000E+00   4.19201349E-05  
  5                1.35885770E-04   7.05355544E+02   8.38805214E-01   1.60285699E-01   3.82865661E-12   4.90979371E-04   2.85738438E-04   6.07911741E-05   0.00000000E+00   3.83130568E-05  
  6                1.85886393E-04   7.25141857E+02   8.38797754E-01   1.60287459E-01   5.11624752E-12   4.85572769E-04   2.91378725E-04   6.07911056E-05   0.00000000E+00   4.38258761E-05  
  7                2.47427716E-04   7.28389878E+02   8.38802786E-01   1.60286139E-01   8.82386128E-12   4.89791394E-04   2.87589784E-04   6.07900888E-05   0.00000000E+00   3.97619880E-05  
  8                3.23493748E-04   7.46759716E+02   8.38796644E-01   1.60287570E-01   1.14198905E-11   4.85362832E-04   2.92195533E-04   6.07897867E-05   0.00000000E+00   4.42671471E-05  
  9                4.17409212E-04   7.49932456E+02   8.38801356E-01   1.60286314E-01   1.86606705E-11   4.89318593E-04   2.88590208E-04   6.07887084E-05   0.00000000E+00   4.04252329E-05  
  10               5.33594583E-04   7.67604549E+02   8.38795734E-01   1.60287593E-01   2.37197091E-11   4.85310909E-04   2.92743112E-04   6.07881851E-05   0.00000000E+00   4.44927573E-05  
  11               6.77196390E-04   7.70879545E+02   8.38799906E-01   1.60286433E-01   3.74428465E-11   4.88902547E-04   2.89452552E-04   6.07870124E-05   0.00000000E+00   4.09894472E-05  
  12               8.54933167E-04   7.88334641E+02   8.38794369E-01   1.60287583E-01   4.71606107E-11   4.85146020E-04   2.93334375E-04   6.07862235E-05   0.00000000E+00   4.47949523E-05  
  13               1.07471366E-03   7.91875592E+02   8.38797606E-01   1.60286420E-01   7.28861409E-11   4.88491865E-04   2.90256796E-04   6.07848788E-05   0.00000000E+00   4.15200225E-05  
  14               1.34669851E-03   8.09452282E+02   8.38792015E-01   1.60287476E-01   9.14626163E-11   4.84945137E-04   2.93915788E-04   6.07837808E-05   0.00000000E+00   4.51081706E-05  
  15               1.68297332E-03   8.13320924E+02   8.38795387E-01   1.60286430E-01   1.39195383E-10   4.88092627E-04   2.91013162E-04   6.07822600E-05   0.00000000E+00   4.20191428E-05  
  16               2.09889177E-03   8.31155175E+02   8.38790730E-01   1.60287541E-01   1.74184860E-10   4.84659354E-04   2.94549351E-04   6.07808347E-05   0.00000000E+00   4.54882657E-05  
  17               2.61270534E-03   8.35354720E+02   8.38794330E-01   1.60286617E-01   2.61307100E-10   4.87560923E-04   2.91872342E-04   6.07790719E-05   0.00000000E+00   4.26353220E-05  
  18               3.24737740E-03   8.53468012E+02   8.38789695E-01   1.60287724E-01   3.25868468E-10   4.84136630E-04   2.95389835E-04   6.07772024E-05   0.00000000E+00   4.60906174E-05  
  19               4.03011598E-03   8.58004605E+02   8.38792911E-01   1.60286896E-01   4.81541341E-10   4.86731026E-04   2.92999725E-04   6.07750995E-05   0.00000000E+00   4.35367272E-05  
  20               4.99493036E-03   8.76348255E+02   8.38788111E-01   1.60288045E-01   5.96879931E-10   4.83173525E-04   2.96639971E-04   6.07726773E-05   0.00000000E+00   4.71211276E-05  
  21               6.18189792E-03   8.81109377E+02   8.38790813E-01   1.60287346E-01   8.66821734E-10   4.85363257E-04   2.94633657E-04   6.07701261E-05   0.00000000E+00   4.49651881E-05  
  22               7.64081706E-03   8.99619519E+02   8.38785650E-01   1.60288585E-01   1.06522447E-09   4.81523616E-04   2.98544737E-04   6.07670063E-05   0.00000000E+00   4.88282855E-05  
  23               9.43021575E-03   9.04539254E+02   8.38787766E-01   1.60288032E-01   1.51833174E-09   4.83254654E-04   2.96976565E-04   6.07638621E-05   0.00000000E+00   4.71255737E-05  
  24               1.16224296E-02   9.23142549E+02   8.38782104E-01   1.60289394E-01   1.84795070E-09   4.79030110E-04   3.01261592E-04   6.07598560E-05   0.00000000E+00   5.13708177E-05  
  25               1.43034870E-02   9.28209441E+02   8.38783715E-01   1.60288968E-01   2.59354142E-09   4.80366761E-04   3.00069922E-04   6.07559445E-05   0.00000000E+00   5.00581721E-05  
  26               1.75812396E-02   9.47106115E+02   8.38777643E-01   1.60290430E-01   3.13751537E-09   4.75828320E-04   3.04661051E-04   6.07508278E-05   0.00000000E+00   5.46152739E-05  
  27               2.15839606E-02   9.52440590E+02   8.38778937E-01   1.60290084E-01   4.35437035E-09   4.76916439E-04   3.03703956E-04   6.07459431E-05   0.00000000E+00   5.35477879E-05  
  28               2.64707120E-02   9.71727264E+02   8.38772611E-01   1.60291609E-01   5.25843635E-09   4.72183825E-04   3.08484579E-04   6.07394517E-05   4.58264303E-16   5.82975252E-05  
  29               3.24320543E-02   9.77573412E+02   8.38773870E-01   1.60291272E-01   7.26679464E-09   4.73239688E-04   3.07549951E-04   6.07333777E-05   2.13342689E-15   5.72595790E-05  
  30               3.97046659E-02   9.97601121E+02   8.38767607E-01   1.60292782E-01   8.80951107E-09   4.68556915E-04   3.12279713E-04   6.07252310E-05   3.80845256E-15   6.19582338E-05  
  31               4.85720219E-02   1.00411348E+03   8.38769096E-01   1.60292390E-01   1.21813749E-08   4.69784475E-04   3.11166621E-04   6.07177320E-05   9.70740810E-15   6.07462574E-05  
  32               5.93882016E-02   1.02510761E+03   8.38763248E-01   1.60293797E-01   1.49062307E-08   4.65419652E-04   3.15579937E-04   6.07076389E-05   1.43887301E-14   6.51257703E-05  
  33               7.25793618E-02   1.03271205E+03   8.38765307E-01   1.60293266E-01   2.07580671E-08   4.67079616E-04   3.14030359E-04   6.06985010E-05   3.83481684E-14   6.34792379E-05  
  34               8.86789005E-02   1.05502695E+03   8.38760316E-01   1.60294463E-01   2.57846630E-08   4.63369771E-04   3.17792462E-04   6.06861919E-05   5.76212643E-14   6.72024668E-05  
  35               1.08328117E-01   1.06401306E+03   8.38763278E-01   1.60293711E-01   3.64021498E-08   4.65716587E-04   3.15553560E-04   6.06752431E-05   1.18243619E-13   6.48669436E-05  
  36               1.32343988E-01   1.08822626E+03   8.38759793E-01   1.60294539E-01   4.63404892E-08   4.63156380E-04   3.18172232E-04   6.06605975E-05   2.08861563E-13   6.74389059E-05  
  37               1.61710247E-01   1.09942102E+03   8.38764180E-01   1.60293437E-01   6.69975235E-08   4.66590833E-04   3.14845227E-04   6.06478630E-05   4.84114055E-13   6.40134526E-05  
  38               1.97670575E-01   1.12618815E+03   8.38762777E-01   1.60293751E-01   8.81522426E-08   4.65623039E-04   3.15878523E-04   6.06309419E-05   1.02911432E-12   6.49909487E-05  
  39               2.41731433E-01   1.14022955E+03   8.38768771E-01   1.60292251E-01   1.31562478E-07   4.70291697E-04   3.11315727E-04   6.06165882E-05   2.49373572E-12   6.03288165E-05  
  40               2.95862834E-01   1.17049664E+03   8.38769775E-01   1.60291968E-01   1.80546431E-07   4.71173043E-04   3.10505396E-04   6.05977056E-05   6.10925274E-12   5.94546817E-05  
  41               3.62391708E-01   1.18845872E+03   8.38777245E-01   1.60290090E-01   2.79857353E-07   4.77001841E-04   3.04778331E-04   6.05821003E-05   1.55646985E-11   5.36297954E-05  
  42               4.44225488E-01   1.22301895E+03   8.38780414E-01   1.60289254E-01   4.02270985E-07   4.79582586E-04   3.02270096E-04   6.05617602E-05   4.45907746E-11   5.10534741E-05  
  43               5.44748020E-01   1.24583673E+03   8.38788641E-01   1.60287142E-01   6.48970643E-07   4.86094395E-04   2.95855659E-04   6.05454427E-05   1.19293094E-10   4.45429162E-05  
  44               6.68068526E-01   1.28576366E+03   8.38793164E-01   1.60285890E-01   9.77982764E-07   4.89887201E-04   2.92137436E-04   6.05244926E-05   4.00084201E-10   4.07515147E-05  
  45               8.18472570E-01   1.31441918E+03   8.38800876E-01   1.60283741E-01   1.63255925E-06   4.96376522E-04   2.85799373E-04   6.05082178E-05   1.10906863E-09   3.42606926E-05  
  46               1.00082248E+00   1.36015520E+03   8.38805022E-01   1.60282291E-01   2.54973603E-06   5.00510500E-04   2.81820595E-04   6.04874709E-05   4.14555344E-09   3.01248746E-05  
  47               1.21997147E+00   1.39477136E+03   8.38809721E-01   1.60280224E-01   4.33110478E-06   5.06131955E-04   2.76657202E-04   6.04716704E-05   1.66415877E-08   2.44986808E-05  
  48               1.48137685E+00   1.44622745E+03   8.38808870E-01   1.60278360E-01   6.87811096E-06   5.09806923E-04   2.73866925E-04   6.04514715E-05   4.97458204E-08   2.08169762E-05  
  49               1.78845112E+00   1.48634756E+03   8.38801284E-01   1.60275415E-01   1.15879149E-05   5.14158968E-04   2.72697230E-04   6.04360818E-05   1.72022954E-07   1.64531016E-05  
  50               2.14120702E+00   1.54178207E+03   8.38785264E-01   1.60272650E-01   1.81434135E-05   5.17134623E-04   2.77625536E-04   6.04171835E-05   4.49319662E-07   1.34638377E-05  
  51               2.53480497E+00   1.58469178E+03   8.38763034E-01   1.60269383E-01   2.93327563E-05   5.20205138E-04   2.84007702E-04   6.04035977E-05   2.03880282E-06   1.03770758E-05  
  52               2.95758410E+00   1.64047334E+03   8.38730337E-01   1.60265523E-01   4.38069028E-05   5.22204841E-04   2.93772139E-04   6.03875583E-05   6.52266898E-06   8.35818050E-06  
  53               3.38794930E+00   1.68171786E+03   8.38671109E-01   1.60259113E-01   6.60504105E-05   5.24165979E-04   3.12480557E-04   6.03780546E-05   1.97926156E-05   6.37021924E-06  
  54               3.79508280E+00   1.73274703E+03   8.38587133E-01   1.60250815E-01   9.37011210E-05   5.25614422E-04   3.42352075E-04   6.03699932E-05   3.99002665E-05   4.88951275E-06  
  55               4.15261914E+00   1.77261404E+03   8.38508979E-01   1.60243502E-01   1.27624241E-04   5.26797879E-04   3.67811162E-04   6.03671566E-05   5.69893200E-05   3.67820040E-06  
  56               4.44680684E+00   1.80637413E+03   8.38454144E-01   1.60238431E-01   1.62495145E-04   5.27399059E-04   3.79883381E-04   6.03630917E-05   6.50985153E-05   3.05666370E-06  
  57               4.72710843E+00   1.83359018E+03   8.38418305E-01   1.60235156E-01   2.01968270E-04   5.27743584E-04   3.79468613E-04   6.03591850E-05   6.50051178E-05   2.69756449E-06  
  58               5.02239146E+00   1.86436019E+03   8.38369153E-01   1.60229694E-01   2.44620862E-04   5.27985741E-04   3.79148996E-04   6.03531231E-05   6.49139903E-05   2.43324763E-06  
  59               5.31888428E+00   1.89030212E+03   8.38315007E-01   1.60223812E-01   2.92656516E-04   5.28194667E-04   3.78863427E-04   6.03475880E-05   6.48256211E-05   2.20076621E-06  
  60               5.57119078E+00   1.91477933E+03   8.38262296E-01   1.60218086E-01   3.39027389E-04   5.28335021E-04   3.78655756E-04   6.03412764E-05   6.47461424E-05   2.03742741E-06  
  61               5.80819106E+00   1.93347978E+03   8.38215761E-01   1.60213971E-01   3.89814544E-04   5.28464122E-04   3.78473423E-04   6.03364626E-05   6.46715581E-05   1.89082813E-06  
  62               6.05824340E+00   1.95627979E+03   8.38165663E-01   1.60209556E-01   4.44421561E-04   5.28561834E-04   3.78326531E-04   6.03302865E-05   6.45954358E-05   1.77419330E-06  
  63               6.35507765E+00   1.97834023E+03   8.38099441E-01   1.60203730E-01   5.16563850E-04   5.28666947E-04   3.78170082E-04   6.03236401E-05   6.45077131E-05   1.64477212E-06  
  64               6.70512925E+00   2.00729922E+03   8.38019515E-01   1.60196716E-01   6.03600293E-04   5.28752403E-04   3.78018315E-04   6.03146201E-05   6.44080106E-05   1.52994045E-06  
  65               7.11598121E+00   2.03563221E+03   8.37911619E-01   1.60187260E-01   7.21094148E-04   5.28838737E-04   3.77836342E-04   6.03042144E-05   6.42910631E-05   1.40490032E-06  
  66               7.59650468E+00   2.07115474E+03   8.37780071E-01   1.60175751E-01   8.64317099E-04   5.28899504E-04   3.77649287E-04   6.02906923E-05   6.41593718E-05   1.29704746E-06  
  67               8.15648978E+00   2.10603220E+03   8.37604197E-01   1.60160376E-01   1.05575857E-03   5.28949374E-04   3.77441359E-04   6.02747617E-05   6.40072978E-05   1.18552700E-06  
  68               8.80573164E+00   2.14814543E+03   8.37389596E-01   1.60141635E-01   1.28929398E-03   5.28967502E-04   3.77241308E-04   6.02547229E-05   6.38378858E-05   1.09245011E-06  
  69               9.55503351E+00   2.18922234E+03   8.37106814E-01   1.60116950E-01   1.59698948E-03   5.28962659E-04   3.77019572E-04   6.02309415E-05   6.36452811E-05   1.00024161E-06  
  70               1.04163763E+01   2.23736076E+03   8.36764098E-01   1.60086982E-01   1.96912693E-03   5.28919346E-04   3.76801145E-04   6.02017588E-05   6.34331485E-05   9.26133452E-07  
  71               1.14030199E+01   2.28388177E+03   8.36318587E-01   1.60048226E-01   2.44999620E-03   5.28846009E-04   3.78674758E-04   6.01675778E-05   6.31952541E-05   8.50818435E-07  
  72               1.25298527E+01   2.33704612E+03   8.35788186E-01   1.60002080E-01   3.02312037E-03   5.28728087E-04   3.80586717E-04   6.01265755E-05   6.29359345E-05   7.91986383E-07  
  73               1.38138633E+01   2.38811528E+03   8.35119974E-01   1.59943993E-01   3.74680955E-03   5.28562384E-04   3.82501158E-04   6.00781339E-05   6.26485083E-05   7.37214642E-07  
  74               1.52744483E+01   2.44522716E+03   8.34341008E-01   1.59876089E-01   4.59397888E-03   5.28339798E-04   3.82312701E-04   6.00206348E-05   6.23377284E-05   7.00814514E-07  
  75               1.69337093E+01   2.49994415E+03   8.33381794E-01   1.59792476E-01   5.63721054E-03   5.28055548E-04   3.82062785E-04   5.99531256E-05   6.19964478E-05   6.68213421E-07  
  76               1.88169372E+01   2.56004590E+03   8.32281236E-01   1.59696552E-01   6.83416323E-03   5.27712292E-04   3.81776489E-04   5.98748959E-05   6.16298923E-05   6.47060915E-07  
  77               2.09528223E+01   2.61755299E+03   8.30960516E-01   1.59581444E-01   8.27056904E-03   5.27294023E-04   3.81430018E-04   5.97838177E-05   6.12307295E-05   6.29454231E-07  
  78               2.33739193E+01   2.67981835E+03   8.29476608E-01   1.59452124E-01   9.88442926E-03   5.26809751E-04   3.81055313E-04   5.96796294E-05   6.08046763E-05   6.21572937E-07  
  79               2.61171971E+01   2.73939055E+03   8.27743768E-01   1.59301115E-01   1.17690018E-02   5.26239284E-04   3.80628210E-04   5.95593498E-05   6.03446333E-05   6.17253793E-07  
  80               2.92238188E+01   2.80290029E+03   8.25827749E-01   1.59134155E-01   1.38527398E-02   5.25595206E-04   3.80183588E-04   5.94227220E-05   5.98560659E-05   6.21171944E-07  
  81               3.27396392E+01   2.86448912E+03   8.23649539E-01   1.58944356E-01   1.62215709E-02   5.24856940E-04   3.79702310E-04   5.92658373E-05   5.93331339E-05   6.28933604E-07  
  82               3.67147914E+01   2.92859178E+03   8.21277892E-01   1.58737716E-01   1.88006846E-02   5.24038546E-04   3.79220078E-04   5.90876798E-05   5.87808613E-05   6.43989653E-07  
  83               4.12051993E+01   2.99148385E+03   8.18658798E-01   1.58509527E-01   2.16488058E-02   5.23124085E-04   3.78728384E-04   5.88830447E-05   5.81957419E-05   6.63837155E-07  
  84               4.62710315E+01   3.05566786E+03   8.15842402E-01   1.58264164E-01   2.47113634E-02   5.22123094E-04   3.78255029E-04   5.86482321E-05   5.75814129E-05   6.90333829E-07  
  85               5.19723370E+01   3.11951100E+03   8.12818127E-01   1.58000707E-01   2.79998387E-02   5.21029792E-04   3.77804888E-04   5.83760150E-05   5.69377692E-05   7.22700998E-07  
  86               5.83711689E+01   3.18310892E+03   8.09593681E-01   1.57719829E-01   3.15058207E-02   5.19842336E-04   3.77387517E-04   5.80563530E-05   5.62664182E-05   7.61107368E-07  
  87               6.55359672E+01   3.24763098E+03   8.06210706E-01   1.57425160E-01   3.51839923E-02   5.18567579E-04   3.77020216E-04   5.76779765E-05   5.55704393E-05   8.06419529E-07  
  88               7.35403832E+01   3.31072018E+03   8.02646028E-01   1.57114680E-01   3.90595317E-02   5.17194490E-04   3.76695795E-04   5.72205065E-05   5.48497361E-05   8.57943648E-07  
  89               8.24662117E+01   3.37475301E+03   7.98963132E-01   1.56793922E-01   4.30633619E-02   5.15734223E-04   3.76431726E-04   5.66627783E-05   5.41083522E-05   9.17341855E-07  
  90               9.24051394E+01   3.43793784E+03   7.95119414E-01   1.56459169E-01   4.72417901E-02   5.14168957E-04   3.76206684E-04   5.59681686E-05   5.33450806E-05   9.83628075E-07  
  91               1.03458626E+02   3.50163446E+03   7.91162157E-01   1.56114539E-01   5.15433550E-02   5.12503704E-04   3.76025376E-04   5.50963585E-05   5.25628960E-05   1.05827536E-06  
  92               1.15742367E+02   3.56517548E+03   7.87073888E-01   1.55758503E-01   5.59870141E-02   5.10725193E-04   3.75867901E-04   5.39897795E-05   5.17616361E-05   1.14125502E-06  
  93               1.29386704E+02   3.62889455E+03   7.82882588E-01   1.55393494E-01   6.05422829E-02   5.08831095E-04   3.75727390E-04   5.25822868E-05   5.09430760E-05   1.23383326E-06  
  94               1.44538062E+02   3.69274114E+03   7.78586532E-01   1.55019352E-01   6.52109742E-02   5.06809996E-04   3.75585253E-04   5.07912136E-05   5.01076322E-05   1.33668847E-06  
  95               1.61361070E+02   3.75692669E+03   7.74191884E-01   1.54636604E-01   6.99863107E-02   5.04651376E-04   3.75425105E-04   4.85247570E-05   4.92560154E-05   1.45085785E-06  
  96               1.80042862E+02   3.82154070E+03   7.69699335E-01   1.54245298E-01   7.48674633E-02   5.02341941E-04   3.75229156E-04   4.56881339E-05   4.83886513E-05   1.57742360E-06  
  97               2.00797004E+02   3.88667320E+03   7.65115175E-01   1.53845973E-01   7.98475261E-02   4.99868342E-04   3.74983781E-04   4.22024715E-05   4.75060988E-05   1.71781856E-06  
  98               2.23867916E+02   3.95239284E+03   7.60440595E-01   1.53438723E-01   8.49251668E-02   4.97213817E-04   3.74676096E-04   3.80270594E-05   4.66086740E-05   1.87355132E-06  
  99               2.49535069E+02   4.01891208E+03   7.55676187E-01   1.53023598E-01   9.00997707E-02   4.94358322E-04   3.74297495E-04   3.31977921E-05   4.56966625E-05   2.04631718E-06  
  100              2.78115209E+02   4.08633495E+03   7.50813888E-01   1.52599904E-01   9.53802195E-02   4.91271546E-04   3.73844240E-04   2.78573060E-05   4.47691086E-05   2.23820260E-06  
  101              3.10096312E+02   4.15504368E+03   7.45885159E-01   1.52170400E-01   1.00732551E-01   4.88020366E-04   3.73341378E-04   2.22375786E-05   4.38309359E-05   2.44359052E-06  
