# ATMO chemical composition profiles
# Chemical abundances given as mole fraction for the 8 most abundant species
# Model Level      Pressure [Ba]    Temperature [K]  H2               He               CH4              H2O              NH3              H2S              H2O(s)           N2              
  1                1.00000000E-05   3.33436402E+01   8.38831889E-01   1.60608972E-01   5.31825919E-04   7.96596169E-18   2.57982862E-08   2.30040454E-05   0.00000000E+00   4.85059977E-41  
  2                1.55686899E-04   4.28434270E+01   8.38831889E-01   1.60608972E-01   5.31825919E-04   6.14847141E-18   2.57982862E-08   2.30040454E-05   0.00000000E+00   2.00120374E-43  
  3                3.27647541E-04   4.71203339E+01   8.38831889E-01   1.60608972E-01   5.31825919E-04   9.03697688E-18   2.57982862E-08   2.30040454E-05   0.00000000E+00   4.51836818E-44  
  4                5.30630990E-04   5.06062266E+01   8.38831889E-01   1.60608972E-01   5.31825919E-04   6.49871907E-18   2.57982862E-08   2.30040454E-05   0.00000000E+00   1.72270225E-44  
  5                7.70145515E-04   5.28721204E+01   8.38831889E-01   1.60608972E-01   5.31825919E-04   6.40390573E-18   2.57982862E-08   2.30040454E-05   0.00000000E+00   8.17805185E-45  
  6                1.05267026E-03   5.59871395E+01   8.38831889E-01   1.60608972E-01   5.31825919E-04   6.27716951E-18   2.57982862E-08   2.30040454E-05   0.00000000E+00   4.37734455E-45  
  7                1.38575450E-03   5.76741840E+01   8.38831889E-01   1.60608972E-01   5.31825919E-04   6.14311175E-18   2.57982862E-08   2.30040454E-05   0.00000000E+00   2.52593892E-45  
  8                1.77823805E-03   6.04805666E+01   8.38831889E-01   1.60608972E-01   5.31825919E-04   6.01914988E-18   2.57982862E-08   2.30040454E-05   0.00000000E+00   1.53396568E-45  
  9                2.24054655E-03   6.20952015E+01   8.38831889E-01   1.60608972E-01   5.31825919E-04   5.91707671E-18   2.57982862E-08   2.30040454E-05   0.00000000E+00   9.66245532E-46  
  10               2.78459407E-03   6.48076661E+01   8.38831889E-01   1.60608972E-01   5.31825919E-04   9.10921589E-18   2.57982862E-08   2.30040454E-05   0.00000000E+00   6.25563864E-46  
  11               3.42428954E-03   6.66112251E+01   8.38831889E-01   1.60608972E-01   5.31825919E-04   7.08217623E-18   2.57982862E-08   2.30040454E-05   0.00000000E+00   4.13670435E-46  
  12               4.17605565E-03   6.93990743E+01   8.38831889E-01   1.60608972E-01   5.31825919E-04   6.86142757E-18   2.57982862E-08   2.30040454E-05   0.00000000E+00   2.78139639E-46  
  13               5.05844292E-03   7.14504686E+01   8.38831889E-01   1.60608972E-01   5.31825919E-04   6.61484830E-18   2.57982862E-08   2.30040454E-05   0.00000000E+00   1.89566562E-46  
  14               6.08879617E-03   7.41254998E+01   8.38831889E-01   1.60608972E-01   5.31825919E-04   6.35965800E-18   2.57982862E-08   2.30040454E-05   0.00000000E+00   1.30837600E-46  
  15               7.28562791E-03   7.65073577E+01   8.38831889E-01   1.60608972E-01   5.31825919E-04   7.24096720E-18   2.57982862E-08   2.30040454E-05   0.00000000E+00   9.13821699E-47  
  16               8.67073814E-03   7.94582267E+01   8.38831889E-01   1.60608972E-01   5.31825919E-04   8.95060347E-18   2.57982862E-08   2.30040454E-05   0.00000000E+00   6.45183572E-47  
  17               1.02689848E-02   8.23205797E+01   8.38831889E-01   1.60608972E-01   5.31825919E-04   6.58186473E-18   2.57982862E-08   2.30040454E-05   0.00000000E+00   4.59981559E-47  
  18               1.21102143E-02   8.58444713E+01   8.38831889E-01   1.60608972E-01   5.31825919E-04   7.19007732E-18   2.57982862E-08   2.30040454E-05   0.00000000E+00   3.30743858E-47  
  19               1.42338057E-02   8.94496761E+01   8.38831889E-01   1.60608972E-01   5.31825919E-04   7.65482869E-18   2.57982862E-08   2.30040454E-05   0.00000000E+00   2.39416114E-47  
  20               1.66874614E-02   9.40509629E+01   8.38831889E-01   1.60608972E-01   5.31825919E-04   8.03793421E-18   2.57982862E-08   2.30040454E-05   0.00000000E+00   1.74186660E-47  
  21               1.95281607E-02   9.88200736E+01   8.38831835E-01   1.60608962E-01   5.31825885E-04   5.10342233E-18   2.58723375E-08   2.30040439E-05   3.43125506E-17   1.27927058E-47  
  22               2.28245611E-02   1.03803711E+02   8.38831534E-01   1.60608904E-01   5.31825694E-04   3.99882217E-17   9.06747341E-08   2.30040357E-05   4.97869329E-16   4.32077058E-45  
  23               2.66379366E-02   1.08975028E+02   8.38830224E-01   1.60608653E-01   5.31824864E-04   5.44364133E-16   4.51095781E-07   2.30039998E-05   5.67524746E-15   7.32879182E-42  
  24               3.09422737E-02   1.14310438E+02   8.38825788E-01   1.60607804E-01   5.31822051E-04   6.27119545E-15   2.01674044E-06   2.30038781E-05   4.53902208E-14   7.71753356E-39  
  25               3.54017915E-02   1.19367449E+02   8.38804031E-01   1.60603638E-01   5.31808257E-04   5.18449779E-14   7.32690677E-06   2.30032814E-05   1.69509478E-13   3.15189184E-36  
  26               3.89587235E-02   1.23119321E+02   8.38804031E-01   1.60603638E-01   5.31808257E-04   2.21792767E-13   3.32366184E-05   2.30032814E-05   4.01823990E-13   6.90422619E-34  
  27               4.17786807E-02   1.25943063E+02   8.38729725E-01   1.60589411E-01   5.31761146E-04   6.24911310E-13   3.33161981E-05   2.30012437E-05   1.44759266E-12   3.75080311E-33  
  28               4.39052310E-02   1.27987538E+02   8.38729725E-01   1.60589411E-01   5.31761146E-04   2.07250397E-12   1.21819260E-04   2.30012437E-05   0.00000000E+00   1.62461745E-31  
  29               4.53917536E-02   1.29385702E+02   8.38729725E-01   1.60589411E-01   5.31761146E-04   2.07660357E-12   1.21819260E-04   2.30012437E-05   4.39662613E-12   3.55388639E-31  
  30               4.71445353E-02   1.30986011E+02   8.38729725E-01   1.60589411E-01   5.31761146E-04   6.47322969E-12   1.21819260E-04   2.30012437E-05   0.00000000E+00   8.52531309E-31  
  31               4.92103242E-02   1.32835635E+02   8.38729725E-01   1.60589411E-01   5.31761146E-04   6.49161796E-12   1.21819260E-04   2.30012437E-05   1.97205344E-11   2.28452760E-30  
  32               5.16438068E-02   1.34936044E+02   8.38729725E-01   1.60589411E-01   5.31761146E-04   2.62121523E-11   1.21819260E-04   2.30012437E-05   0.00000000E+00   6.76776756E-30  
  33               5.45088977E-02   1.37338262E+02   8.38729725E-01   1.60589411E-01   5.31761146E-04   2.63158633E-11   1.21819260E-04   2.30012437E-05   1.11225082E-10   2.25128947E-29  
  34               5.78802381E-02   1.40042260E+02   8.38729725E-01   1.60589411E-01   5.31761146E-04   1.37540946E-10   1.21819260E-04   2.30012437E-05   0.00000000E+00   8.28431878E-29  
  35               6.18449438E-02   1.43098298E+02   8.38729724E-01   1.60589411E-01   5.31761146E-04   1.38271972E-10   1.21819260E-04   2.30012437E-05   7.83991614E-10   3.40534281E-28  
  36               6.65046541E-02   1.46513407E+02   8.38729724E-01   1.60589411E-01   5.31761146E-04   9.22263586E-10   1.21819260E-04   2.30012437E-05   0.00000000E+00   1.54049221E-27  
  37               7.19779747E-02   1.50332925E+02   8.38729723E-01   1.60589411E-01   5.31761145E-04   9.23800722E-10   1.21819259E-04   2.30012436E-05   1.64851207E-09   7.68474361E-27  
  38               7.84034076E-02   1.54562803E+02   8.38729718E-01   1.60589410E-01   5.31761142E-04   2.57690516E-09   1.21819259E-04   2.30012435E-05   4.92515337E-09   4.15053111E-26  
  39               8.59429103E-02   1.59245201E+02   8.38729706E-01   1.60589408E-01   5.31761134E-04   7.51610184E-09   1.21819257E-04   2.30012432E-05   1.50613408E-08   2.41908845E-25  
  40               9.47860526E-02   1.64381695E+02   8.38729666E-01   1.60589400E-01   5.31761109E-04   2.26212935E-08   1.21819251E-04   2.30012421E-05   4.70332645E-08   1.48934198E-24  
  41               1.05153657E-01   1.70000591E+02   8.38729542E-01   1.60589376E-01   5.31761031E-04   6.97924477E-08   1.21819233E-04   2.30012387E-05   1.47932292E-07   9.58689516E-24  
  42               1.17301384E-01   1.76106072E+02   8.38729152E-01   1.60589302E-01   5.31760783E-04   2.18157369E-07   1.21819177E-04   2.30012280E-05   4.64488416E-07   6.33133827E-23  
  43               1.31527091E-01   1.82705383E+02   8.38727935E-01   1.60589068E-01   5.31760012E-04   6.83992964E-07   1.21819000E-04   2.30011946E-05   1.44979997E-06   4.22148971E-22  
  44               1.48177820E-01   1.89822185E+02   8.38724224E-01   1.60588358E-01   5.31757659E-04   2.13787095E-06   1.21818461E-04   2.30010928E-05   4.42064482E-06   2.81462695E-21  
  45               1.67647342E-01   1.97429914E+02   8.38713150E-01   1.60586238E-01   5.31750638E-04   6.57041855E-06   1.21816852E-04   2.30007891E-05   1.31911599E-05   1.83472217E-20  
  46               1.90373244E-01   2.05555001E+02   8.38681440E-01   1.60580166E-01   5.31730533E-04   1.97934635E-05   1.21812247E-04   2.29999195E-05   3.77755694E-05   1.16387204E-19  
  47               2.16800640E-01   2.14140886E+02   8.38594518E-01   1.60563523E-01   5.31675424E-04   5.76397415E-05   1.21799622E-04   2.29975358E-05   1.03564760E-04   7.02092960E-19  
  48               2.47236644E-01   2.23153458E+02   8.38073912E-01   1.60463844E-01   5.31345356E-04   1.61104961E-04   1.21724008E-04   2.29832587E-05   6.20806491E-04   3.98260923E-18  
  49               2.80808162E-01   2.32173078E+02   8.38073912E-01   1.60463844E-01   5.31345356E-04   7.81911453E-04   1.21724008E-04   2.29832587E-05   0.00000000E+00   1.97392024E-17  
  50               3.16683679E-01   2.41010265E+02   8.38073912E-01   1.60463844E-01   5.31345356E-04   7.81911453E-04   1.21724008E-04   2.29832587E-05   0.00000000E+00   8.41200279E-17  
  51               3.58557439E-01   2.50420948E+02   8.38073912E-01   1.60463844E-01   5.31345356E-04   7.81911453E-04   1.21724008E-04   2.29832587E-05   0.00000000E+00   3.50942564E-16  
  52               4.07436757E-01   2.60477918E+02   8.38073912E-01   1.60463844E-01   5.31345356E-04   7.81911453E-04   1.21724008E-04   2.29832587E-05   0.00000000E+00   1.43869608E-15  
  53               4.64487719E-01   2.71134645E+02   8.38073912E-01   1.60463844E-01   5.31345356E-04   7.81911453E-04   1.21724008E-04   2.29832587E-05   0.00000000E+00   5.70493458E-15  
  54               5.31042452E-01   2.82467236E+02   8.38073912E-01   1.60463844E-01   5.31345356E-04   7.81911453E-04   1.21724008E-04   2.29832587E-05   0.00000000E+00   2.19875011E-14  
  55               6.08628032E-01   2.94415499E+02   8.38073912E-01   1.60463844E-01   5.31345356E-04   7.81911453E-04   1.21724008E-04   2.29832587E-05   0.00000000E+00   8.11982893E-14  
  56               6.99032473E-01   3.07070007E+02   8.38073912E-01   1.60463844E-01   5.31345356E-04   7.81911453E-04   1.21724007E-04   2.29832587E-05   0.00000000E+00   2.89370050E-13  
  57               8.04318976E-01   3.20369899E+02   8.38073912E-01   1.60463844E-01   5.31345356E-04   7.81911426E-04   1.21724006E-04   2.29832587E-05   0.00000000E+00   9.83770013E-13  
  58               9.26878936E-01   3.34415768E+02   8.38073912E-01   1.60463844E-01   5.31345356E-04   7.81911353E-04   1.21724001E-04   2.29832587E-05   0.00000000E+00   3.21595114E-12  
  59               1.06949965E+00   3.49141126E+02   8.38073912E-01   1.60463844E-01   5.31345356E-04   7.81910703E-04   1.21723988E-04   2.29832587E-05   0.00000000E+00   1.00095891E-11  
  60               1.23541561E+00   3.64659104E+02   8.38073905E-01   1.60463843E-01   5.31345351E-04   7.81910696E-04   1.21723947E-04   2.29832585E-05   0.00000000E+00   2.99147489E-11  
  61               1.42832341E+00   3.80898520E+02   8.38073913E-01   1.60463844E-01   5.31345354E-04   7.81901478E-04   1.21723837E-04   2.29832586E-05   0.00000000E+00   8.51316513E-11  
  62               1.65236902E+00   3.97973611E+02   8.38073914E-01   1.60463844E-01   5.31345353E-04   7.81901478E-04   1.21723542E-04   2.29832586E-05   0.00000000E+00   2.32533101E-10  
  63               1.91224321E+00   4.15793759E+02   8.38073630E-01   1.60463789E-01   5.31345173E-04   7.81901215E-04   1.21722756E-04   2.29832508E-05   0.00000000E+00   6.04873885E-10  
  64               2.21340699E+00   4.34479736E+02   8.38073942E-01   1.60463816E-01   5.31345262E-04   7.81562988E-04   1.21720966E-04   2.29832546E-05   0.00000000E+00   1.51011753E-09  
  65               2.56201422E+00   4.53935720E+02   8.38073926E-01   1.60463812E-01   5.31345250E-04   7.81566016E-04   1.21716793E-04   2.29832541E-05   0.00000000E+00   3.59503863E-09  
  66               2.96480468E+00   4.74278344E+02   8.38073470E-01   1.60463736E-01   5.31344997E-04   7.81637580E-04   1.21707486E-04   2.29832432E-05   0.00000000E+00   8.21959274E-09  
  67               3.42904010E+00   4.95379441E+02   8.38071620E-01   1.60463733E-01   5.31344987E-04   7.83500808E-04   1.21688052E-04   2.29832428E-05   0.00000000E+00   1.79355790E-08  
  68               3.96318447E+00   5.17365941E+02   8.38068857E-01   1.60463193E-01   5.31343198E-04   7.83498170E-04   1.21648275E-04   2.29831654E-05   0.00000000E+00   3.76193481E-08  
  69               4.57818951E+00   5.40165273E+02   8.38071966E-01   1.60463447E-01   5.31344042E-04   7.80171829E-04   1.21572544E-04   2.29832019E-05   0.00000000E+00   7.55813734E-08  
  70               5.28575074E+00   5.63936921E+02   8.38072059E-01   1.60463425E-01   5.31343966E-04   7.80171726E-04   1.21430777E-04   2.29831986E-05   0.00000000E+00   1.46456216E-07  
  71               6.09787522E+00   5.88531440E+02   8.38072226E-01   1.60463384E-01   5.31343833E-04   7.80171550E-04   1.21179334E-04   2.29831928E-05   0.00000000E+00   2.72162227E-07  
  72               7.02756295E+00   6.14072085E+02   8.38072511E-01   1.60463315E-01   5.31343604E-04   7.80171258E-04   1.20748883E-04   2.29831830E-05   0.00000000E+00   4.87361817E-07  
  73               8.09005189E+00   6.40408388E+02   8.38072972E-01   1.60463203E-01   5.31343232E-04   7.80170804E-04   1.20050608E-04   2.29831669E-05   0.00000000E+00   8.36456772E-07  
  74               9.30548575E+00   6.67765229E+02   8.38073696E-01   1.60463028E-01   5.31342650E-04   7.80170138E-04   1.18956822E-04   2.29831417E-05   0.00000000E+00   1.38328308E-06  
  75               1.06957574E+01   6.96020436E+02   8.38074766E-01   1.60462768E-01   5.31341788E-04   7.80169238E-04   1.17338685E-04   2.29831045E-05   0.00000000E+00   2.19225309E-06  
  76               1.22844946E+01   7.25358644E+02   8.38076281E-01   1.60462400E-01   5.31340563E-04   7.80168129E-04   1.15045591E-04   2.29830518E-05   0.00000000E+00   3.33866058E-06  
  77               1.40973438E+01   7.55602684E+02   8.38078285E-01   1.60461910E-01   5.31338928E-04   7.80166968E-04   1.12004548E-04   2.29829816E-05   0.00000000E+00   4.85899637E-06  
  78               1.61662915E+01   7.86981351E+02   8.38080807E-01   1.60461289E-01   5.31336832E-04   7.80166048E-04   1.08157780E-04   2.29828925E-05   0.00000000E+00   6.78214462E-06  
  79               1.85376926E+01   8.19476560E+02   8.38083649E-01   1.60460521E-01   5.31334188E-04   7.80165775E-04   1.03589961E-04   2.29827824E-05   0.00000000E+00   9.06576285E-06  
  80               2.12582173E+01   8.53349636E+02   8.38087021E-01   1.60459677E-01   5.31331119E-04   7.80166866E-04   9.83986682E-05   2.29826610E-05   0.00000000E+00   1.16610889E-05  
  81               2.43702584E+01   8.88332460E+02   8.38090491E-01   1.60458753E-01   5.31327376E-04   7.80170811E-04   9.28670429E-05   2.29825277E-05   0.00000000E+00   1.44265513E-05  
  82               2.79074244E+01   9.24450318E+02   8.38094207E-01   1.60457839E-01   5.31322705E-04   7.80178892E-04   8.72010519E-05   2.29846492E-05   0.00000000E+00   1.72591999E-05  
  83               3.18967914E+01   9.61246538E+02   8.38097759E-01   1.60456945E-01   5.31316069E-04   7.80189783E-04   8.17100483E-05   2.30018540E-05   0.00000000E+00   2.00043620E-05  
  84               3.63889714E+01   9.98938843E+02   8.38101012E-01   1.60456074E-01   5.31305341E-04   7.80202308E-04   7.64811892E-05   2.30501089E-05   0.00000000E+00   2.26184595E-05  
  85               4.14296607E+01   1.03720429E+03   8.38103677E-01   1.60455226E-01   5.31286846E-04   7.80211677E-04   7.16874444E-05   2.31784175E-05   0.00000000E+00   2.50150067E-05  
  86               4.70528264E+01   1.07612280E+03   8.38105329E-01   1.60454337E-01   5.31253970E-04   7.80208837E-04   6.73244697E-05   2.34973449E-05   0.00000000E+00   2.71961490E-05  
  87               5.32809055E+01   1.11522420E+03   8.38106472E-01   1.60453578E-01   5.31197970E-04   7.80175578E-04   6.34793522E-05   2.42846430E-05   0.00000000E+00   2.91184029E-05  
  88               6.01362315E+01   1.15460601E+03   8.38108741E-01   1.60452995E-01   5.31104545E-04   7.80182060E-04   6.00796982E-05   2.42844568E-05   0.00000000E+00   3.08179755E-05  
  89               6.76816056E+01   1.19406287E+03   8.38110763E-01   1.60452465E-01   5.30954476E-04   7.80145672E-04   5.71382162E-05   2.42842211E-05   0.00000000E+00   3.22884538E-05  
  90               7.60043944E+01   1.23402732E+03   8.38112641E-01   1.60451963E-01   5.30718580E-04   7.80038698E-04   5.45492411E-05   2.42839026E-05   0.00000000E+00   3.35826390E-05  
  91               8.51714647E+01   1.27419754E+03   8.38114402E-01   1.60451480E-01   5.30364369E-04   7.79826534E-04   5.23293080E-05   2.42834649E-05   0.00000000E+00   3.46922302E-05  
  92               9.52314813E+01   1.31478675E+03   8.38116150E-01   1.60450986E-01   5.29845333E-04   7.79461825E-04   5.03970201E-05   2.42828525E-05   0.00000000E+00   3.56578675E-05  
  93               1.06218201E+02   1.35534053E+03   8.38117918E-01   1.60450472E-01   5.29120526E-04   7.78899188E-04   4.87714938E-05   2.42820084E-05   0.00000000E+00   3.64699295E-05  
  94               1.18158272E+02   1.39606073E+03   8.38119813E-01   1.60449904E-01   5.28130537E-04   7.78077924E-04   4.73775641E-05   2.42808421E-05   0.00000000E+00   3.71658992E-05  
  95               1.31134988E+02   1.43666943E+03   8.38121858E-01   1.60449270E-01   5.26833416E-04   7.76953131E-04   4.62276418E-05   2.42792457E-05   0.00000000E+00   3.77394665E-05  
  96               1.45294384E+02   1.47772986E+03   8.38124160E-01   1.60448526E-01   5.25147509E-04   7.75447227E-04   4.52499300E-05   2.42769961E-05   0.00000000E+00   3.82263559E-05  
  97               1.60736732E+02   1.51889746E+03   8.38126603E-01   1.60447646E-01   5.23040583E-04   7.73533984E-04   4.44658551E-05   2.42737422E-05   0.00000000E+00   3.86156872E-05  
  98               1.77515400E+02   1.56044557E+03   8.38129349E-01   1.60446629E-01   5.20435585E-04   7.71247491E-04   4.38205729E-05   2.42645754E-05   0.00000000E+00   3.89346503E-05  
  99               1.95650074E+02   1.60181209E+03   8.38131795E-01   1.60445341E-01   5.17356497E-04   7.68348403E-04   4.33391993E-05   2.42603336E-05   0.00000000E+00   3.91704600E-05  
  100              2.15140196E+02   1.64323405E+03   8.38134383E-01   1.60443981E-01   5.13735570E-04   7.65628453E-04   4.29708707E-05   2.42234637E-05   0.00000000E+00   3.93483417E-05  
  101              2.35978911E+02   1.68414701E+03   8.38043507E-01   1.60424460E-01   5.09631967E-04   7.61715260E-04   4.27342358E-05   2.42145885E-05   0.00000000E+00   3.94519712E-05  
