# ATMO emission spectrum
# Wavelength [microns]  |  Flux [W/m2/micron]
0.20002000       1.17448061E-08  
0.20006002       7.92579468E-09  
0.20010005       6.03032401E-09  
0.20014010       5.14706312E-09  
0.20018016       4.20897105E-09  
0.20022024       3.20042232E-09  
0.20026034       2.38308687E-09  
0.20030045       1.83241323E-09  
0.20034058       1.48309802E-09  
0.20038072       1.09262279E-09  
0.20042088       7.67646924E-10  
0.20046106       6.95548923E-10  
0.20050125       8.61372807E-10  
0.20054146       1.11686227E-09  
0.20058169       1.28622524E-09  
0.20062193       1.33162860E-09  
0.20066219       1.22957414E-09  
0.20070246       9.61332949E-10  
0.20074275       6.84260502E-10  
0.20078305       5.76443161E-10  
0.20082338       7.08375352E-10  
0.20086371       1.04377563E-09  
0.20090407       1.28965651E-09  
0.20094444       1.63523626E-09  
0.20098483       2.18932524E-09  
0.20102523       2.53679317E-09  
0.20106565       2.65518921E-09  
0.20110608       2.98862137E-09  
0.20114654       3.71531785E-09  
0.20118700       5.39839463E-09  
0.20122749       6.85264986E-09  
0.20126799       6.74548881E-09  
0.20130851       6.69703521E-09  
0.20134904       6.96684186E-09  
0.20138959       6.35897860E-09  
0.20143015       6.23949987E-09  
0.20147074       5.90161984E-09  
0.20151134       5.34881192E-09  
0.20155195       4.26232825E-09  
0.20159258       3.16722498E-09  
0.20163323       2.49614182E-09  
0.20167389       2.28035472E-09  
0.20171457       2.17720532E-09  
0.20175527       2.00779322E-09  
0.20179598       2.13573929E-09  
0.20183671       2.82553932E-09  
0.20187746       3.97565204E-09  
0.20191822       5.14692926E-09  
0.20195900       5.96722326E-09  
0.20199980       6.10202289E-09  
0.20204061       5.21950444E-09  
0.20208144       3.74588584E-09  
0.20212228       3.79256905E-09  
0.20216315       5.59203880E-09  
0.20220402       7.89803032E-09  
0.20224492       9.23420248E-09  
0.20228583       1.04058268E-08  
0.20232676       1.14536139E-08  
0.20236770       1.20245037E-08  
0.20240866       1.20897184E-08  
0.20244964       1.18554511E-08  
0.20249063       1.18675761E-08  
0.20253165       1.21993819E-08  
0.20257267       1.19752272E-08  
0.20261372       1.14403102E-08  
0.20265478       1.05802626E-08  
0.20269585       1.02871993E-08  
0.20273695       1.17414797E-08  
0.20277806       1.20970592E-08  
0.20281919       1.10802430E-08  
0.20286033       1.02898655E-08  
0.20290149       9.99072615E-09  
0.20294267       8.40849123E-09  
0.20298386       5.85224799E-09  
0.20302507       3.05555980E-09  
0.20306630       1.47079084E-09  
0.20310755       1.97578000E-09  
0.20314881       3.46780939E-09  
0.20319008       4.57118417E-09  
0.20323138       4.74153129E-09  
0.20327269       4.24833442E-09  
0.20331402       3.36554820E-09  
0.20335536       2.33308800E-09  
0.20339673       1.34756382E-09  
0.20343810       6.18507331E-10  
0.20347950       2.09755933E-10  
0.20352091       8.17950962E-11  
0.20356234       2.24248850E-10  
0.20360379       6.73428641E-10  
0.20364525       1.43831319E-09  
0.20368673       2.53127386E-09  
0.20372823       3.74442950E-09  
0.20376974       4.67095845E-09  
0.20381127       5.20903153E-09  
0.20385282       6.61885054E-09  
0.20389438       8.27297409E-09  
0.20393596       1.25128271E-08  
0.20397756       1.38261237E-08  
0.20401918       1.27138753E-08  
0.20406081       1.66171718E-08  
0.20410246       2.04524576E-08  
0.20414413       2.29023076E-08  
0.20418581       2.44781644E-08  
0.20422751       2.58005830E-08  
0.20426923       2.68246243E-08  
0.20431096       2.73999253E-08  
0.20435271       2.78438351E-08  
0.20439448       2.52753331E-08  
0.20443627       2.36537885E-08  
0.20447807       2.28649577E-08  
0.20451989       2.16708077E-08  
0.20456173       2.00736915E-08  
0.20460358       1.79625916E-08  
0.20464545       1.52019754E-08  
0.20468734       1.17022181E-08  
0.20472925       7.57152735E-09  
0.20477117       3.71489844E-09  
0.20481311       2.45504289E-09  
0.20485507       4.74826070E-09  
0.20489704       8.58787675E-09  
0.20493903       1.17739822E-08  
0.20498104       1.36629392E-08  
0.20502307       1.42348593E-08  
0.20506511       1.34987955E-08  
0.20510717       1.15218272E-08  
0.20514925       8.46181784E-09  
0.20519134       4.90865249E-09  
0.20523345       2.33087760E-09  
0.20527558       2.19375768E-09  
0.20531773       4.72736386E-09  
0.20535989       7.67918488E-09  
0.20540207       1.11195500E-08  
0.20544427       1.51451565E-08  
0.20548649       1.84569194E-08  
0.20552872       2.10379436E-08  
0.20557097       2.29881466E-08  
0.20561324       2.34394025E-08  
0.20565553       2.40489534E-08  
0.20569783       2.66027042E-08  
0.20574015       2.43963314E-08  
0.20578249       2.15068256E-08  
0.20582484       2.19086206E-08  
0.20586722       2.17531389E-08  
0.20590961       1.90331825E-08  
0.20595201       1.41954834E-08  
0.20599444       8.66998425E-09  
0.20603688       7.90848081E-09  
0.20607934       1.32909386E-08  
0.20612182       1.91532133E-08  
0.20616431       2.31534215E-08  
0.20620683       2.60543422E-08  
0.20624936       2.79883648E-08  
0.20629190       2.90162191E-08  
0.20633447       2.99285406E-08  
0.20637705       2.99538257E-08  
0.20641965       2.93766463E-08  
0.20646227       2.86666619E-08  
0.20650490       2.52650649E-08  
0.20654756       1.98861102E-08  
0.20659023       1.89639275E-08  
0.20663292       2.18118412E-08  
0.20667562       2.14493803E-08  
0.20671835       2.07445128E-08  
0.20676109       1.85559883E-08  
0.20680385       2.01061759E-08  
0.20684662       2.47316020E-08  
0.20688942       2.62143252E-08  
0.20693223       2.33281793E-08  
0.20697506       2.34615079E-08  
0.20701791       2.68875609E-08  
0.20706077       2.76661088E-08  
0.20710366       2.71297456E-08  
0.20714656       2.70196356E-08  
0.20718947       2.50809960E-08  
0.20723241       2.08503204E-08  
0.20727537       1.41832805E-08  
0.20731834       7.90197027E-09  
0.20736133       7.13982443E-09  
0.20740433       5.24297721E-09  
0.20744736       4.97461357E-09  
0.20749040       4.15541825E-09  
0.20753346       3.19437875E-09  
0.20757654       2.25968395E-09  
0.20761964       1.43895857E-09  
0.20766276       7.88383201E-10  
0.20770589       3.43454584E-10  
0.20774904       1.07782919E-10  
0.20779221       3.21060356E-11  
0.20783539       6.44247496E-11  
0.20787860       2.29416465E-10  
0.20792182       6.08206939E-10  
0.20796506       1.22638486E-09  
0.20800832       2.06181862E-09  
0.20805160       6.63136706E-10  
0.20809489       2.71683053E-10  
0.20813820       2.13407606E-10  
0.20818153       1.57183108E-10  
0.20822488       1.08125300E-10  
0.20826825       6.97692758E-11  
0.20831163       4.00553323E-11  
0.20835504       2.02036378E-11  
0.20839846       8.11787476E-12  
0.20844190       2.91073091E-12  
0.20848535       1.66194250E-12  
0.20852883       3.94511903E-12  
0.20857232       9.27835611E-12  
0.20861583       1.35245207E-11  
0.20865936       1.48828079E-11  
0.20870291       1.23520811E-11  
0.20874648       6.12777444E-12  
0.20879006       2.12321384E-12  
0.20883366       1.65296828E-12  
0.20887728       5.07578732E-12  
0.20892092       1.36786484E-11  
0.20896458       2.64620861E-11  
0.20900826       3.05293784E-11  
0.20905195       2.34861933E-11  
0.20909566       1.31574125E-11  
0.20913939       6.63304979E-12  
0.20918314       1.01212349E-11  
0.20922691       2.12975303E-11  
0.20927069       2.79107433E-11  
0.20931450       1.96259595E-11  
0.20935832       8.98459754E-12  
0.20940216       2.99007352E-12  
0.20944602       1.83194578E-12  
0.20948989       5.53369748E-12  
0.20953379       1.54823320E-11  
0.20957770       3.28481257E-11  
0.20962163       5.73862906E-11  
0.20966558       7.58817390E-11  
0.20970955       8.72621871E-11  
0.20975354       8.32246884E-11  
0.20979755       6.80173545E-11  
0.20984157       4.45782697E-11  
0.20988561       2.44835723E-11  
0.20992967       9.79553573E-12  
0.20997375       6.00799592E-12  
0.21001785       6.94941194E-12  
0.21006197       3.59037120E-12  
0.21010610       3.28231432E-12  
0.21015026       4.55305126E-12  
0.21019443       1.03959570E-11  
0.21023862       1.76052283E-11  
0.21028283       1.47760289E-11  
0.21032706       1.30397345E-11  
0.21037131       1.74716454E-11  
0.21041557       3.75783453E-11  
0.21045985       5.32851939E-11  
0.21050416       7.31039871E-11  
0.21054848       7.79538126E-11  
0.21059282       5.36669184E-11  
0.21063718       2.48718235E-11  
0.21068155       8.46644123E-12  
0.21072595       7.48216402E-12  
0.21077037       1.92603734E-11  
0.21081480       2.79800708E-11  
0.21085925       1.75005320E-11  
0.21090372       1.06047842E-11  
0.21094821       8.12139449E-12  
0.21099272       1.29800405E-11  
0.21103725       3.60427679E-11  
0.21108179       7.18093533E-11  
0.21112636       1.14581812E-10  
0.21117094       1.51330229E-10  
0.21121555       1.81157701E-10  
0.21126017       2.03506933E-10  
0.21130481       1.39064403E-10  
0.21134947       7.08197813E-11  
0.21139414       7.97785409E-11  
0.21143884       1.05247620E-10  
0.21148356       5.94131733E-11  
0.21152829       2.86693806E-11  
0.21157305       3.20142847E-11  
0.21161782       6.39799859E-11  
0.21166261       1.64122036E-10  
0.21170742       3.56141254E-10  
0.21175225       6.48866137E-10  
0.21179710       1.05261767E-09  
0.21184197       1.63665516E-09  
0.21188685       1.97908285E-09  
0.21193176       1.74442623E-09  
0.21197668       1.30639993E-09  
0.21202163       3.07645321E-09  
0.21206659       9.29168231E-09  
0.21211157       1.26761394E-08  
0.21215657       1.00726851E-08  
0.21220159       8.69375653E-09  
0.21224663       1.57143027E-08  
0.21229169       2.20486478E-08  
0.21233677       2.46393846E-08  
0.21238186       2.63689074E-08  
0.21242698       2.83960800E-08  
0.21247211       2.71060793E-08  
0.21251727       2.08365743E-08  
0.21256244       1.26511868E-08  
0.21260763       8.04805828E-09  
0.21265284       6.92193058E-09  
0.21269808       3.49432768E-09  
0.21274333       2.70036577E-09  
0.21278859       4.93651957E-09  
0.21283388       3.49546961E-09  
0.21287919       3.79669270E-09  
0.21292452       3.45743865E-09  
0.21296986       2.70285392E-09  
0.21301523       1.89310170E-09  
0.21306062       1.24258855E-09  
0.21310602       7.14010718E-10  
0.21315144       3.35650379E-10  
0.21319689       1.18382966E-10  
0.21324235       3.06088348E-11  
0.21328783       2.44460959E-11  
0.21333333       9.79205766E-11  
0.21337885       2.97121012E-10  
0.21342439       6.36131129E-10  
0.21346995       1.11870246E-09  
0.21351553       1.75787583E-09  
0.21356113       2.30259978E-09  
0.21360675       1.09837462E-09  
0.21365239       9.71125849E-10  
0.21369804       7.84188542E-10  
0.21374372       6.42958835E-10  
0.21378942       4.07485744E-10  
0.21383513       2.23346569E-10  
0.21388087       9.79865294E-11  
0.21392662       4.04385066E-11  
0.21397240       2.46658814E-11  
0.21401819       8.60611292E-12  
0.21406401       1.06621236E-11  
0.21410984       3.67678048E-11  
0.21415569       9.61796894E-11  
0.21420156       1.81429605E-10  
0.21424746       2.67774854E-10  
0.21429337       4.25369911E-10  
0.21433930       6.51396393E-10  
0.21438525       8.41384963E-10  
0.21443122       8.63571640E-10  
0.21447721       6.61213331E-10  
0.21452322       3.96324724E-10  
0.21456925       1.22640047E-10  
0.21461530       1.57677151E-10  
0.21466137       4.10900347E-10  
0.21470746       5.61515797E-10  
0.21475357       7.41642047E-10  
0.21479970       1.61899826E-09  
0.21484585       2.55731252E-09  
0.21489202       2.47990679E-09  
0.21493821       2.69549942E-09  
0.21498441       3.13242755E-09  
0.21503064       2.50970547E-09  
0.21507689       1.53384520E-09  
0.21512316       6.51029860E-10  
0.21516945       2.47262532E-10  
0.21521575       4.13247926E-10  
0.21526208       7.55225100E-10  
0.21530843       5.58380417E-10  
0.21535480       2.33442830E-10  
0.21540118       3.36977505E-10  
0.21544759       8.37984113E-10  
0.21549402       1.18236385E-09  
0.21554047       1.03213382E-09  
0.21558694       7.52342743E-10  
0.21563342       7.63514801E-10  
0.21567993       6.17852397E-10  
0.21572646       3.57665531E-10  
0.21577301       1.52716684E-10  
0.21581957       4.83341169E-11  
0.21586616       3.09416588E-11  
0.21591277       3.54786585E-11  
0.21595940       3.92171403E-11  
0.21600605       6.71964994E-11  
0.21605272       9.87494745E-11  
0.21609941       2.08591465E-10  
0.21614611       3.75916225E-10  
0.21619284       3.58812096E-10  
0.21623959       3.42942524E-10  
0.21628636       2.18886318E-10  
0.21633315       1.41003287E-10  
0.21637996       1.07289389E-10  
0.21642679       6.91186146E-11  
0.21647364       4.49124920E-11  
0.21652052       3.00572692E-11  
0.21656741       2.31282809E-11  
0.21661432       1.35589584E-11  
0.21666125       5.93144096E-12  
0.21670820       1.58948128E-12  
0.21675518       6.25021313E-13  
0.21680217       3.05816720E-12  
0.21684918       9.18226372E-12  
0.21689622       1.97602380E-11  
0.21694327       3.58707807E-11  
0.21699034       5.85005184E-11  
0.21703744       8.69680667E-11  
0.21708455       1.16458523E-10  
0.21713169       1.30524633E-10  
0.21717885       1.03760618E-10  
0.21722602       1.80697965E-10  
0.21727322       1.75475918E-10  
0.21732044       1.33286748E-10  
0.21736768       1.57884830E-10  
0.21741494       2.12981492E-10  
0.21746222       3.87549799E-10  
0.21750952       4.72623050E-10  
0.21755684       4.28678496E-10  
0.21760418       3.25116115E-10  
0.21765154       2.13882480E-10  
0.21769892       1.19982482E-10  
0.21774633       5.77948532E-11  
0.21779375       2.68511082E-11  
0.21784119       8.23147351E-12  
0.21788866       4.36339567E-12  
0.21793614       1.66750274E-11  
0.21798365       4.93728726E-11  
0.21803118       1.09508264E-10  
0.21807873       1.94113915E-10  
0.21812630       2.56351282E-10  
0.21817388       3.32662730E-10  
0.21822149       5.75138350E-10  
0.21826913       6.91004921E-10  
0.21831678       7.30158076E-10  
0.21836445       1.13053439E-09  
0.21841214       9.42764689E-10  
0.21845986       7.43184415E-10  
0.21850759       5.11881574E-10  
0.21855535       2.97532029E-10  
0.21860313       1.43685011E-10  
0.21865092       5.26753204E-11  
0.21869874       1.53106527E-11  
0.21874658       1.37890928E-11  
0.21879444       1.78168592E-11  
0.21884232       5.50500242E-11  
0.21889023       1.40799615E-10  
0.21893815       2.50211873E-10  
0.21898609       3.31950125E-10  
0.21903406       3.36117373E-10  
0.21908205       2.57885882E-10  
0.21913005       1.44942020E-10  
0.21917808       5.88189567E-11  
0.21922613       1.78459561E-11  
0.21927420       1.64301130E-11  
0.21932229       6.06606469E-11  
0.21937041       1.61665487E-10  
0.21941854       3.03948924E-10  
0.21946670       4.16751876E-10  
0.21951487       4.09301472E-10  
0.21956307       2.70000373E-10  
0.21961129       1.08944331E-10  
0.21965953       3.19509893E-11  
0.21970779       5.60398641E-11  
0.21975607       1.97514597E-10  
0.21980437       4.57908044E-10  
0.21985270       7.68131733E-10  
0.21990104       9.37974289E-10  
0.21994941       8.26711611E-10  
0.21999780       5.13138160E-10  
0.22004621       2.10557241E-10  
0.22009464       6.39090889E-11  
0.22014309       5.19609388E-11  
0.22019157       1.64829091E-10  
0.22024006       4.98194111E-10  
0.22028858       1.16443600E-09  
0.22033712       2.19851169E-09  
0.22038567       3.61993157E-09  
0.22043426       5.41888673E-09  
0.22048286       7.54824048E-09  
0.22053148       9.94221382E-09  
0.22058013       1.42913323E-08  
0.22062879       4.51715718E-08  
0.22067748       5.70097206E-08  
0.22072619       2.98995866E-08  
0.22077492       1.53963024E-08  
0.22082367       2.66692986E-08  
0.22087245       4.13343863E-08  
0.22092124       3.85397549E-08  
0.22097006       3.90592998E-08  
0.22101890       3.90801042E-08  
0.22106776       2.54466380E-08  
0.22111664       1.12711910E-08  
0.22116554       6.88313592E-09  
0.22121447       9.75508171E-09  
0.22126341       2.53150606E-08  
0.22131238       4.89340517E-08  
0.22136137       7.14306458E-08  
0.22141038       9.05270277E-08  
0.22145942       1.06400185E-07  
0.22150847       1.17542778E-07  
0.22155755       1.26532007E-07  
0.22160665       1.31903487E-07  
0.22165577       1.38483922E-07  
0.22170491       1.37451311E-07  
0.22175407       1.09794579E-07  
0.22180326       6.94483417E-08  
0.22185247       4.11157674E-08  
0.22190170       3.16096133E-08  
0.22195095       4.12377699E-08  
0.22200022       4.56236599E-08  
0.22204952       4.57539724E-08  
0.22209883       1.35350944E-08  
0.22214817       8.82202519E-09  
0.22219753       9.65236444E-09  
0.22224692       1.13854259E-08  
0.22229632       1.21782030E-08  
0.22234575       1.12151828E-08  
0.22239520       3.03232650E-09  
0.22244467       2.79733577E-09  
0.22249416       2.64857194E-09  
0.22254367       2.49507775E-09  
0.22259321       2.31798491E-09  
0.22264277       2.09514273E-09  
0.22269235       1.57916296E-09  
0.22274195       4.64155359E-10  
0.22279158       3.49357453E-10  
0.22284123       2.13013787E-10  
0.22289089       1.37712276E-10  
0.22294059       1.98293368E-10  
0.22299030       2.48068364E-10  
0.22304004       2.88430684E-10  
0.22308979       2.50420185E-10  
0.22313957       1.11947775E-10  
0.22318938       4.41259411E-11  
0.22323920       6.78759502E-11  
0.22328905       1.03483820E-10  
0.22333892       1.29548543E-10  
0.22338881       1.47700021E-10  
0.22343872       1.58709584E-10  
0.22348866       1.65064533E-10  
0.22353862       1.68113640E-10  
0.22358860       1.69098185E-10  
0.22363860       1.68699321E-10  
0.22368863       9.39664727E-11  
0.22373867       5.45116314E-11  
0.22378874       5.28032553E-11  
0.22383884       4.97193964E-11  
0.22388895       4.59104026E-11  
0.22393909       4.67048791E-11  
0.22398925       4.74858229E-11  
0.22403943       4.68844164E-11  
0.22408964       4.56473215E-11  
0.22413986       4.36294681E-11  
0.22419011       4.08861190E-11  
0.22424039       3.66431333E-11  
0.22429068       2.94853688E-11  
0.22434100       2.59450352E-11  
0.22439134       1.86322844E-11  
0.22444170       1.32368706E-11  
0.22449209       1.32271744E-11  
0.22454249       1.27858911E-11  
0.22459293       1.13733703E-11  
0.22464338       1.02150054E-11  
0.22469385       1.15347768E-11  
0.22474435       1.21990733E-11  
0.22479487       1.22773929E-11  
0.22484542       1.21626521E-11  
0.22489599       1.18947100E-11  
0.22494658       1.15077269E-11  
0.22499719       1.09651178E-11  
0.22504782       1.01029450E-11  
0.22509848       8.54745818E-12  
0.22514916       6.93950684E-12  
0.22519986       8.00503100E-12  
0.22525059       8.26629332E-12  
0.22530134       7.03786763E-12  
0.22535211       4.13106595E-12  
0.22540291       4.13246740E-12  
0.22545373       4.09247014E-12  
0.22550457       4.01077079E-12  
0.22555543       3.88590337E-12  
0.22560632       3.80193239E-12  
0.22565723       3.71527115E-12  
0.22570816       3.61776695E-12  
0.22575912       3.50202814E-12  
0.22581009       3.36201676E-12  
0.22586110       3.17452377E-12  
0.22591212       2.89435165E-12  
0.22596317       2.42441749E-12  
0.22601424       1.87999719E-12  
0.22606533       2.24337366E-12  
0.22611645       2.66222257E-12  
0.22616759       2.83825356E-12  
0.22621875       2.89821533E-12  
0.22626994       2.89564638E-12  
0.22632115       2.85393218E-12  
0.22637238       2.75990676E-12  
0.22642364       2.64023361E-12  
0.22647492       2.65261056E-12  
0.22652622       2.56301164E-12  
