# ATMO emission spectrum
# Wavelength [microns]  |  Flux [W/m2/micron]
0.20002000       1.08226234E-14  
0.20006002       1.08942451E-14  
0.20010005       1.09664179E-14  
0.20014010       1.10392128E-14  
0.20018016       1.11125412E-14  
0.20022024       1.11863893E-14  
0.20026034       1.12608070E-14  
0.20030045       1.13357739E-14  
0.20034058       1.14112998E-14  
0.20038072       1.14872484E-14  
0.20042088       1.15637254E-14  
0.20046106       1.16409319E-14  
0.20050125       1.17187156E-14  
0.20054146       1.17970401E-14  
0.20058169       1.18759878E-14  
0.20062193       1.19555258E-14  
0.20066219       1.20356557E-14  
0.20070246       1.21163677E-14  
0.20074275       1.21977218E-14  
0.20078305       1.22796644E-14  
0.20082338       1.23622217E-14  
0.20086371       1.24455685E-14  
0.20090407       1.25294169E-14  
0.20094444       1.26138319E-14  
0.20098483       1.26988958E-14  
0.20102523       1.27846164E-14  
0.20106565       1.28709544E-14  
0.20110608       1.29579398E-14  
0.20114654       1.30455710E-14  
0.20118700       1.31340434E-14  
0.20122749       1.32230577E-14  
0.20126799       1.33125741E-14  
0.20130851       1.34028210E-14  
0.20134904       1.34937768E-14  
0.20138959       1.35852634E-14  
0.20143015       1.36775125E-14  
0.20147074       1.37704770E-14  
0.20151134       1.38641728E-14  
0.20155195       1.39585326E-14  
0.20159258       1.40535959E-14  
0.20163323       1.41493776E-14  
0.20167389       1.42458751E-14  
0.20171457       1.43430775E-14  
0.20175527       1.44410443E-14  
0.20179598       1.45397450E-14  
0.20183671       1.46391840E-14  
0.20187746       1.47393746E-14  
0.20191822       1.48403237E-14  
0.20195900       1.49420307E-14  
0.20199980       1.50445034E-14  
0.20204061       1.51477730E-14  
0.20208144       1.52518489E-14  
0.20212228       1.53566638E-14  
0.20216315       1.54622797E-14  
0.20220402       1.55688040E-14  
0.20224492       1.56760228E-14  
0.20228583       1.57840396E-14  
0.20232676       1.58928740E-14  
0.20236770       1.60025316E-14  
0.20240866       1.61130131E-14  
0.20244964       1.62243263E-14  
0.20249063       1.63364897E-14  
0.20253165       1.64495200E-14  
0.20257267       1.65633834E-14  
0.20261372       1.66781029E-14  
0.20265478       1.67936744E-14  
0.20269585       1.69100226E-14  
0.20273695       1.70273517E-14  
0.20277806       1.71455672E-14  
0.20281919       1.72646747E-14  
0.20286033       1.73846825E-14  
0.20290149       1.75056016E-14  
0.20294267       1.76274270E-14  
0.20298386       1.77501773E-14  
0.20302507       1.78738615E-14  
0.20306630       1.79985141E-14  
0.20310755       1.81237107E-14  
0.20314881       1.82496195E-14  
0.20319008       1.83770307E-14  
0.20323138       1.85053611E-14  
0.20327269       1.86346282E-14  
0.20331402       1.87648144E-14  
0.20335536       1.88959233E-14  
0.20339673       1.90279742E-14  
0.20343810       1.91610299E-14  
0.20347950       1.92952447E-14  
0.20352091       1.94307475E-14  
0.20356234       1.95674587E-14  
0.20360379       1.97054229E-14  
0.20364525       1.98445432E-14  
0.20368673       1.99847349E-14  
0.20372823       2.01259455E-14  
0.20376974       2.02681742E-14  
0.20381127       2.04114279E-14  
0.20385282       2.05557441E-14  
0.20389438       2.07011171E-14  
0.20393596       2.08482996E-14  
0.20397756       2.09960084E-14  
0.20401918       2.11445560E-14  
0.20406081       2.12942603E-14  
0.20410246       2.14451002E-14  
0.20414413       2.15970972E-14  
0.20418581       2.17502604E-14  
0.20422751       2.19046090E-14  
0.20426923       2.20601393E-14  
0.20431096       2.22168600E-14  
0.20435271       2.23747857E-14  
0.20439448       2.25338505E-14  
0.20443627       2.26941736E-14  
0.20447807       2.28557547E-14  
0.20451989       2.30185729E-14  
0.20456173       2.31826395E-14  
0.20460358       2.33479656E-14  
0.20464545       2.35145586E-14  
0.20468734       2.36824330E-14  
0.20472925       2.38516030E-14  
0.20477117       2.40220916E-14  
0.20481311       2.41939128E-14  
0.20485507       2.43669666E-14  
0.20489704       2.45414775E-14  
0.20493903       2.47173498E-14  
0.20498104       2.48945668E-14  
0.20502307       2.50731494E-14  
0.20506511       2.52530951E-14  
0.20510717       2.54344160E-14  
0.20514925       2.56171341E-14  
0.20519134       2.58012647E-14  
0.20523345       2.59869128E-14  
0.20527558       2.61739880E-14  
0.20531773       2.63625108E-14  
0.20535989       2.65525205E-14  
0.20540207       2.67440124E-14  
0.20544427       2.69369868E-14  
0.20548649       2.71314530E-14  
0.20552872       2.73274167E-14  
0.20557097       2.75248914E-14  
0.20561324       2.77238528E-14  
0.20565553       2.79243881E-14  
0.20569783       2.81265985E-14  
0.20574015       2.83302373E-14  
0.20578249       2.85354519E-14  
0.20582484       2.87422656E-14  
0.20586722       2.89506744E-14  
0.20590961       2.91607094E-14  
0.20595201       2.93723747E-14  
0.20599444       2.95856988E-14  
0.20603688       2.98006932E-14  
0.20607934       3.00173744E-14  
0.20612182       3.02357511E-14  
0.20616431       3.04558212E-14  
0.20620683       3.06776151E-14  
0.20624936       3.09011363E-14  
0.20629190       3.11263885E-14  
0.20633447       3.13533967E-14  
0.20637705       3.15821634E-14  
0.20641965       3.18127233E-14  
0.20646227       3.20451188E-14  
0.20650490       3.22792900E-14  
0.20654756       3.25152762E-14  
0.20659023       3.27531151E-14  
0.20663292       3.29928135E-14  
0.20667562       3.32343881E-14  
0.20671835       3.34778539E-14  
0.20676109       3.37232294E-14  
0.20680385       3.39705263E-14  
0.20684662       3.42197626E-14  
0.20688942       3.44709447E-14  
0.20693223       3.47240303E-14  
0.20697506       3.49791559E-14  
0.20701791       3.52362856E-14  
0.20706077       3.54954170E-14  
0.20710366       3.57565738E-14  
0.20714656       3.60197740E-14  
0.20718947       3.62850318E-14  
0.20723241       3.65523731E-14  
0.20727537       3.68218026E-14  
0.20731834       3.70933614E-14  
0.20736133       3.73658689E-14  
0.20740433       3.76376699E-14  
0.20744736       3.79148934E-14  
0.20749040       3.81941233E-14  
0.20753346       3.84753369E-14  
0.20757654       3.87585137E-14  
0.20761964       3.90436589E-14  
0.20766276       3.93308422E-14  
0.20770589       3.96202789E-14  
0.20774904       3.99123629E-14  
0.20779221       4.02076034E-14  
0.20783539       4.05061987E-14  
0.20787860       4.08081176E-14  
0.20792182       4.11129636E-14  
0.20796506       4.14203272E-14  
0.20800832       4.17299700E-14  
0.20805160       4.20125309E-14  
0.20809489       4.22858022E-14  
0.20813820       4.25930881E-14  
0.20818153       4.29013717E-14  
0.20822488       4.32105174E-14  
0.20826825       4.35239340E-14  
0.20831163       4.38355683E-14  
0.20835504       4.41500752E-14  
0.20839846       4.44118406E-14  
0.20844190       4.47177378E-14  
0.20848535       4.50393402E-14  
0.20852883       4.53670517E-14  
0.20857232       4.57001072E-14  
0.20861583       4.60370219E-14  
0.20865936       4.63763355E-14  
0.20870291       4.67145770E-14  
0.20874648       4.70479022E-14  
0.20879006       4.74007544E-14  
0.20883366       4.77628220E-14  
0.20887728       4.81344422E-14  
0.20892092       4.85560114E-14  
0.20896458       4.89536092E-14  
0.20900826       4.92857185E-14  
0.20905195       4.96425976E-14  
0.20909566       5.00191267E-14  
0.20913939       5.03955715E-14  
0.20918314       5.07737558E-14  
0.20922691       5.11538461E-14  
0.20927069       5.15920063E-14  
0.20931450       5.19766241E-14  
0.20935832       5.23586341E-14  
0.20940216       5.27487343E-14  
0.20944602       5.31492831E-14  
0.20948989       5.35616521E-14  
0.20953379       5.39680411E-14  
0.20957770       5.43954691E-14  
0.20962163       5.48335519E-14  
0.20966558       5.52247572E-14  
0.20970955       5.56353393E-14  
0.20975354       5.60466268E-14  
0.20979755       5.64658525E-14  
0.20984157       5.68839949E-14  
0.20988561       5.73432815E-14  
0.20992967       5.77664047E-14  
0.20997375       5.81828036E-14  
0.21001785       5.86083046E-14  
0.21006197       5.90437818E-14  
0.21010610       5.94912363E-14  
0.21015026       5.99500125E-14  
0.21019443       6.04186892E-14  
0.21023862       6.08949510E-14  
0.21028283       6.13469783E-14  
0.21032706       6.18271337E-14  
0.21037131       6.23117538E-14  
0.21041557       6.28148616E-14  
0.21045985       6.32965650E-14  
0.21050416       6.37807236E-14  
0.21054848       6.42821685E-14  
0.21059282       6.47786914E-14  
0.21063718       6.52717311E-14  
0.21068155       6.57600920E-14  
0.21072595       6.62557387E-14  
0.21077037       6.67659685E-14  
0.21081480       6.72797587E-14  
0.21085925       6.77951210E-14  
0.21090372       6.83161345E-14  
0.21094821       6.88416806E-14  
0.21099272       6.93780808E-14  
0.21103725       6.99212326E-14  
0.21108179       7.04652270E-14  
0.21112636       7.10111260E-14  
0.21117094       7.15874899E-14  
0.21121555       7.21422116E-14  
0.21126017       7.26981275E-14  
0.21130481       7.32573754E-14  
0.21134947       7.38286880E-14  
0.21139414       7.44016016E-14  
0.21143884       7.49897508E-14  
0.21148356       7.55628345E-14  
0.21152829       7.61419678E-14  
0.21157305       7.67275726E-14  
0.21161782       7.73194540E-14  
0.21166261       7.79178866E-14  
0.21170742       7.85207179E-14  
0.21175225       7.91282520E-14  
0.21179710       7.97413898E-14  
0.21184197       8.03617395E-14  
0.21188685       8.09820833E-14  
0.21193176       8.16070075E-14  
0.21197668       8.22411498E-14  
0.21202163       8.28817290E-14  
0.21206659       8.35249845E-14  
0.21211157       8.41678461E-14  
0.21215657       8.48157872E-14  
0.21220159       8.54689566E-14  
0.21224663       8.61273532E-14  
0.21229169       8.67906223E-14  
0.21233677       8.74594245E-14  
0.21238186       8.81335018E-14  
0.21242698       8.88132264E-14  
0.21247211       8.94983664E-14  
0.21251727       9.01886129E-14  
0.21256244       9.08843508E-14  
0.21260763       9.15856428E-14  
0.21265284       9.22927137E-14  
0.21269808       9.30054667E-14  
0.21274333       9.37240929E-14  
0.21278859       9.44486778E-14  
0.21283388       9.51600305E-14  
0.21287919       9.58896477E-14  
0.21292452       9.66274791E-14  
0.21296986       9.73701498E-14  
0.21301523       9.81173559E-14  
0.21306062       9.88693028E-14  
0.21310602       9.96257861E-14  
0.21315144       1.00387574E-13  
0.21319689       1.01156665E-13  
0.21324235       1.01934952E-13  
0.21328783       1.02725228E-13  
0.21333333       1.03527680E-13  
0.21337885       1.04340545E-13  
0.21342439       1.05161196E-13  
0.21346995       1.05984581E-13  
0.21351553       1.06812463E-13  
0.21356113       1.07644506E-13  
0.21360675       1.08423266E-13  
0.21365239       1.09258879E-13  
0.21369804       1.10098177E-13  
0.21374372       1.10959832E-13  
0.21378942       1.11804254E-13  
0.21383513       1.12650593E-13  
0.21388087       1.13502475E-13  
0.21392662       1.14362466E-13  
0.21397240       1.15234603E-13  
0.21401819       1.16123620E-13  
0.21406401       1.17028603E-13  
0.21410984       1.17955228E-13  
0.21415569       1.18890259E-13  
0.21420156       1.19842496E-13  
0.21424746       1.20800989E-13  
0.21429337       1.21763445E-13  
0.21433930       1.22730852E-13  
0.21438525       1.23706130E-13  
0.21443122       1.24685152E-13  
0.21447721       1.25673924E-13  
0.21452322       1.26714380E-13  
0.21456925       1.27702756E-13  
0.21461530       1.28700385E-13  
0.21466137       1.29707885E-13  
0.21470746       1.30723696E-13  
0.21475357       1.31739629E-13  
0.21479970       1.32772041E-13  
0.21484585       1.33813344E-13  
0.21489202       1.34861315E-13  
0.21493821       1.35913233E-13  
0.21498441       1.36977089E-13  
0.21503064       1.38050025E-13  
0.21507689       1.39137073E-13  
0.21512316       1.40223946E-13  
0.21516945       1.41320368E-13  
0.21521575       1.42427737E-13  
0.21526208       1.43544003E-13  
0.21530843       1.44669931E-13  
0.21535480       1.45805958E-13  
0.21540118       1.46930625E-13  
0.21544759       1.48076717E-13  
0.21549402       1.49222451E-13  
0.21554047       1.50381192E-13  
0.21558694       1.51549046E-13  
0.21563342       1.52717923E-13  
0.21567993       1.53904827E-13  
0.21572646       1.55096282E-13  
0.21577301       1.56293884E-13  
0.21581957       1.57506481E-13  
0.21586616       1.58738710E-13  
0.21591277       1.59984311E-13  
0.21595940       1.61248691E-13  
0.21600605       1.62526611E-13  
0.21605272       1.63818962E-13  
0.21609941       1.65122236E-13  
0.21614611       1.66439157E-13  
0.21619284       1.67764978E-13  
0.21623959       1.69099342E-13  
0.21628636       1.70000455E-13  
0.21633315       1.70870216E-13  
0.21637996       1.72066281E-13  
0.21642679       1.73240474E-13  
0.21647364       1.74366760E-13  
0.21652052       1.75444737E-13  
0.21656741       1.76475532E-13  
0.21661432       1.77470572E-13  
0.21666125       1.78488116E-13  
0.21670820       1.79627789E-13  
0.21675518       1.80984359E-13  
0.21680217       1.82600605E-13  
0.21684918       1.84397355E-13  
0.21689622       1.86281180E-13  
0.21694327       1.88168564E-13  
0.21699034       1.90022475E-13  
0.21703744       1.91828057E-13  
0.21708455       1.93586325E-13  
0.21713169       1.95311353E-13  
0.21717885       1.97012391E-13  
0.21722602       1.99354452E-13  
0.21727322       2.01099656E-13  
0.21732044       2.02688001E-13  
0.21736768       2.04295902E-13  
0.21741494       2.05752805E-13  
0.21746222       2.07271630E-13  
0.21750952       2.08872941E-13  
0.21755684       2.10474185E-13  
0.21760418       2.12071849E-13  
0.21765154       2.13663951E-13  
0.21769892       2.15252599E-13  
0.21774633       2.16836848E-13  
0.21779375       2.18444426E-13  
0.21784119       2.20099606E-13  
0.21788866       2.21838539E-13  
0.21793614       2.23661498E-13  
0.21798365       2.25553561E-13  
0.21803118       2.27480221E-13  
0.21807873       2.29416356E-13  
0.21812630       2.31350884E-13  
0.21817388       2.33282291E-13  
0.21822149       2.35201527E-13  
0.21826913       2.37038777E-13  
0.21831678       2.38913461E-13  
0.21836445       2.40998674E-13  
0.21841214       2.42922545E-13  
0.21845986       2.44803699E-13  
0.21850759       2.46687970E-13  
0.21855535       2.48573349E-13  
0.21860313       2.50455771E-13  
0.21865092       2.52370318E-13  
0.21869874       2.54319079E-13  
0.21874658       2.56322817E-13  
0.21879444       2.58262855E-13  
0.21884232       2.60358563E-13  
0.21889023       2.62490993E-13  
0.21893815       2.64634434E-13  
0.21898609       2.66776767E-13  
0.21903406       2.68913657E-13  
0.21908205       2.71045744E-13  
0.21913005       2.73179299E-13  
0.21917808       2.75327549E-13  
0.21922613       2.77539109E-13  
0.21927420       2.79794154E-13  
0.21932229       2.82077665E-13  
0.21937041       2.84378226E-13  
0.21941854       2.86699865E-13  
0.21946670       2.89029697E-13  
0.21951487       2.91363431E-13  
0.21956307       2.93703552E-13  
0.21961129       2.96051146E-13  
0.21965953       2.98393662E-13  
0.21970779       3.00787684E-13  
0.21975607       3.03349742E-13  
0.21980437       3.05799369E-13  
0.21985270       3.08261343E-13  
0.21990104       3.10735312E-13  
0.21994941       3.13219655E-13  
0.21999780       3.15716219E-13  
0.22004621       3.18230585E-13  
0.22009464       3.20771667E-13  
0.22014309       3.23365098E-13  
0.22019157       3.26025559E-13  
0.22024006       3.28662908E-13  
0.22028858       3.31325962E-13  
0.22033712       3.34008760E-13  
0.22038567       3.36709375E-13  
0.22043426       3.39427198E-13  
0.22048286       3.42162644E-13  
0.22053148       3.44916894E-13  
0.22058013       3.47700153E-13  
0.22062879       3.50533991E-13  
0.22067748       3.53350706E-13  
0.22072619       3.56180458E-13  
0.22077492       3.59033645E-13  
0.22082367       3.61910319E-13  
0.22087245       3.64810608E-13  
0.22092124       3.67734514E-13  
0.22097006       3.70682184E-13  
0.22101890       3.73653772E-13  
0.22106776       3.76649560E-13  
0.22111664       3.79669961E-13  
0.22116554       3.82699356E-13  
0.22121447       3.85764534E-13  
0.22126341       3.88861194E-13  
0.22131238       3.91983283E-13  
0.22136137       3.95130250E-13  
0.22141038       3.98302861E-13  
0.22145942       4.01501367E-13  
0.22150847       4.04725695E-13  
0.22155755       4.07976163E-13  
0.22160665       4.11253094E-13  
0.22165577       4.14557405E-13  
0.22170491       4.17888655E-13  
0.22175407       4.21245989E-13  
0.22180326       4.24630789E-13  
0.22185247       3.81445241E-13  
0.22190170       3.57320585E-13  
0.22195095       3.60063040E-13  
0.22200022       3.62826220E-13  
0.22204952       3.65610184E-13  
0.22209883       3.13627151E-13  
0.22214817       3.06697017E-13  
0.22219753       3.08937649E-13  
0.22224692       3.11193673E-13  
0.22229632       3.13465216E-13  
0.22234575       3.09730045E-13  
0.22239520       2.62683517E-13  
0.22244467       2.64504235E-13  
0.22249416       2.66336542E-13  
0.22254367       2.68180198E-13  
0.22259321       2.70035172E-13  
0.22264277       2.71901402E-13  
0.22269235       2.68768843E-13  
0.22274195       2.27499945E-13  
0.22279158       2.28990083E-13  
0.22284123       2.30488360E-13  
0.22289089       2.31994990E-13  
0.22294059       2.33510057E-13  
0.22299030       2.35033499E-13  
0.22304004       2.36565170E-13  
0.22308979       2.38105103E-13  
0.22313957       2.20447024E-13  
0.22318938       1.98762756E-13  
0.22323920       1.99988346E-13  
0.22328905       2.01220033E-13  
0.22333892       2.02457549E-13  
0.22338881       2.03701157E-13  
0.22343872       2.04950042E-13  
0.22348866       2.06204371E-13  
0.22353862       2.07464181E-13  
0.22358860       2.08729591E-13  
0.22363860       2.10000631E-13  
0.22368863       1.89832760E-13  
0.22373867       1.74356106E-13  
0.22378874       1.75359532E-13  
0.22383884       1.76366523E-13  
0.22388895       1.77377408E-13  
0.22393909       1.78392189E-13  
0.22398925       1.79410714E-13  
0.22403943       1.80433000E-13  
0.22408964       1.81459013E-13  
0.22413986       1.82488512E-13  
0.22419011       1.83521728E-13  
0.22424039       1.84558764E-13  
0.22429068       1.85599526E-13  
0.22434100       1.86644031E-13  
0.22439134       1.67479831E-13  
0.22444170       1.55405631E-13  
0.22449209       1.56234510E-13  
0.22454249       1.57065778E-13  
0.22459293       1.57899387E-13  
0.22464338       1.58735069E-13  
0.22469385       1.59573038E-13  
0.22474435       1.60413549E-13  
0.22479487       1.61256237E-13  
0.22484542       1.62101367E-13  
0.22489599       1.62948475E-13  
0.22494658       1.63797597E-13  
0.22499719       1.64648830E-13  
0.22504782       1.65502136E-13  
0.22509848       1.66357612E-13  
0.22514916       1.67215547E-13  
0.22519986       1.68075736E-13  
0.22525059       1.68937732E-13  
0.22530134       1.60135211E-13  
0.22535211       1.40737188E-13  
0.22540291       1.41424339E-13  
0.22545373       1.42112658E-13  
0.22550457       1.42801358E-13  
0.22555543       1.43489628E-13  
0.22560632       1.44180738E-13  
0.22565723       1.44872979E-13  
0.22570816       1.45566019E-13  
0.22575912       1.46259665E-13  
0.22581009       1.46954080E-13  
0.22586110       1.47649152E-13  
0.22591212       1.48344954E-13  
0.22596317       1.49041984E-13  
0.22601424       1.49740874E-13  
0.22606533       1.50441696E-13  
0.22611645       1.51144341E-13  
0.22616759       1.51848296E-13  
0.22621875       1.52552912E-13  
0.22626994       1.53257629E-13  
0.22632115       1.53962768E-13  
0.22637238       1.54668534E-13  
0.22642364       1.55374695E-13  
0.22647492       1.56080779E-13  
0.22652622       1.56788565E-13  
