# ATMO emission spectrum
# Wavelength [microns]  |  Flux [W/m2/micron]
0.20002000       1.20044847E-14  
0.20006002       1.20652137E-14  
0.20010005       1.21264546E-14  
0.20014010       1.21886721E-14  
0.20018016       1.22512123E-14  
0.20022024       1.23139697E-14  
0.20026034       1.23772592E-14  
0.20030045       1.24409234E-14  
0.20034058       1.25050321E-14  
0.20038072       1.25686529E-14  
0.20042088       1.26325756E-14  
0.20046106       1.26980762E-14  
0.20050125       1.27640557E-14  
0.20054146       1.28303340E-14  
0.20058169       1.28973301E-14  
0.20062193       1.29647389E-14  
0.20066219       1.30325164E-14  
0.20070246       1.31006258E-14  
0.20074275       1.31695530E-14  
0.20078305       1.32388950E-14  
0.20082338       1.33087536E-14  
0.20086371       1.33803231E-14  
0.20090407       1.34517010E-14  
0.20094444       1.35232509E-14  
0.20098483       1.35954347E-14  
0.20102523       1.36682016E-14  
0.20106565       1.37412400E-14  
0.20110608       1.38147052E-14  
0.20114654       1.38885676E-14  
0.20118700       1.39640597E-14  
0.20122749       1.40392453E-14  
0.20126799       1.41137932E-14  
0.20130851       1.41891981E-14  
0.20134904       1.42652773E-14  
0.20138959       1.43408659E-14  
0.20143015       1.44174163E-14  
0.20147074       1.44945786E-14  
0.20151134       1.45724497E-14  
0.20155195       1.46505401E-14  
0.20159258       1.47291329E-14  
0.20163323       1.48082862E-14  
0.20167389       1.48879761E-14  
0.20171457       1.49681747E-14  
0.20175527       1.50491973E-14  
0.20179598       1.51308054E-14  
0.20183671       1.52129361E-14  
0.20187746       1.52956947E-14  
0.20191822       1.53790161E-14  
0.20195900       1.54628249E-14  
0.20199980       1.55470952E-14  
0.20204061       1.56319727E-14  
0.20208144       1.57176045E-14  
0.20212228       1.58036299E-14  
0.20216315       1.58904282E-14  
0.20220402       1.59785304E-14  
0.20224492       1.60664686E-14  
0.20228583       1.61548657E-14  
0.20232676       1.62438178E-14  
0.20236770       1.63333313E-14  
0.20240866       1.64234111E-14  
0.20244964       1.65140551E-14  
0.20249063       1.66053267E-14  
0.20253165       1.66972811E-14  
0.20257267       1.67897350E-14  
0.20261372       1.68827860E-14  
0.20265478       1.69763862E-14  
0.20269585       1.70702083E-14  
0.20273695       1.71650679E-14  
0.20277806       1.72605340E-14  
0.20281919       1.73565756E-14  
0.20286033       1.74531861E-14  
0.20290149       1.75503764E-14  
0.20294267       1.76480034E-14  
0.20298386       1.77460654E-14  
0.20302507       1.78446636E-14  
0.20306630       1.79444200E-14  
0.20310755       1.80434991E-14  
0.20314881       1.81428991E-14  
0.20319008       1.82449933E-14  
0.20323138       1.83471360E-14  
0.20327269       1.84492877E-14  
0.20331402       1.85512003E-14  
0.20335536       1.86525901E-14  
0.20339673       1.87530621E-14  
0.20343810       1.88525159E-14  
0.20347950       1.89527869E-14  
0.20352091       1.90585719E-14  
0.20356234       1.91700718E-14  
0.20360379       1.92868445E-14  
0.20364525       1.94041474E-14  
0.20368673       1.95205812E-14  
0.20372823       1.96362083E-14  
0.20376974       1.97514804E-14  
0.20381127       1.98667669E-14  
0.20385282       1.99823996E-14  
0.20389438       2.00984398E-14  
0.20393596       2.02176876E-14  
0.20397756       2.03354937E-14  
0.20401918       2.04527892E-14  
0.20406081       2.05709935E-14  
0.20410246       2.06899953E-14  
0.20414413       2.08097937E-14  
0.20418581       2.09303971E-14  
0.20422751       2.10518357E-14  
0.20426923       2.11740999E-14  
0.20431096       2.12971776E-14  
0.20435271       2.14211032E-14  
0.20439448       2.15455843E-14  
0.20443627       2.16710407E-14  
0.20447807       2.17974487E-14  
0.20451989       2.19246839E-14  
0.20456173       2.20527519E-14  
0.20460358       2.21816272E-14  
0.20464545       2.23112881E-14  
0.20468734       2.24416909E-14  
0.20472925       2.25728256E-14  
0.20477117       2.27049262E-14  
0.20481311       2.28384522E-14  
0.20485507       2.29730044E-14  
0.20489704       2.31092540E-14  
0.20493903       2.32463649E-14  
0.20498104       2.33841651E-14  
0.20502307       2.35227196E-14  
0.20506511       2.36620134E-14  
0.20510717       2.38020357E-14  
0.20514925       2.39427570E-14  
0.20519134       2.40842392E-14  
0.20523345       2.42272164E-14  
0.20527558       2.43717478E-14  
0.20531773       2.45178899E-14  
0.20535989       2.46654065E-14  
0.20540207       2.48138206E-14  
0.20544427       2.49630801E-14  
0.20548649       2.51132107E-14  
0.20552872       2.52642581E-14  
0.20557097       2.54162661E-14  
0.20561324       2.55691274E-14  
0.20565553       2.57231422E-14  
0.20569783       2.58786217E-14  
0.20574015       2.60346729E-14  
0.20578249       2.61917983E-14  
0.20582484       2.63500439E-14  
0.20586722       2.65093568E-14  
0.20590961       2.66697387E-14  
0.20595201       2.68311862E-14  
0.20599444       2.69938457E-14  
0.20603688       2.71578862E-14  
0.20607934       2.73233268E-14  
0.20612182       2.74900561E-14  
0.20616431       2.76578760E-14  
0.20620683       2.78268553E-14  
0.20624936       2.79969799E-14  
0.20629190       2.81682543E-14  
0.20633447       2.83407310E-14  
0.20637705       2.85143816E-14  
0.20641965       2.86892806E-14  
0.20646227       2.88655235E-14  
0.20650490       2.90428658E-14  
0.20654756       2.92214417E-14  
0.20659023       2.94013612E-14  
0.20663292       2.95826119E-14  
0.20667562       2.97651757E-14  
0.20671835       2.99490419E-14  
0.20676109       3.01342695E-14  
0.20680385       3.03208922E-14  
0.20684662       3.05089021E-14  
0.20688942       3.06982345E-14  
0.20693223       3.08887135E-14  
0.20697506       3.10807383E-14  
0.20701791       3.12741735E-14  
0.20706077       3.14689470E-14  
0.20710366       3.16650838E-14  
0.20714656       3.18625887E-14  
0.20718947       3.20614219E-14  
0.20723241       3.22615961E-14  
0.20727537       3.24630782E-14  
0.20731834       3.26661800E-14  
0.20736133       3.28671750E-14  
0.20740433       3.30605453E-14  
0.20744736       3.32652231E-14  
0.20749040       3.34701065E-14  
0.20753346       3.36747291E-14  
0.20757654       3.38783970E-14  
0.20761964       3.40800769E-14  
0.20766276       3.42783608E-14  
0.20770589       3.44722814E-14  
0.20774904       3.46657530E-14  
0.20779221       3.48738663E-14  
0.20783539       3.51006861E-14  
0.20787860       3.53462252E-14  
0.20792182       3.55966760E-14  
0.20796506       3.58433300E-14  
0.20800832       3.60861068E-14  
0.20805160       3.62228574E-14  
0.20809489       3.63170971E-14  
0.20813820       3.65095958E-14  
0.20818153       3.66902979E-14  
0.20822488       3.68551745E-14  
0.20826825       3.70086340E-14  
0.20831163       3.71281239E-14  
0.20835504       3.72240844E-14  
0.20839846       3.71549109E-14  
0.20844190       3.72353692E-14  
0.20848535       3.74114875E-14  
0.20852883       3.76402373E-14  
0.20857232       3.79266715E-14  
0.20861583       3.82135962E-14  
0.20865936       3.84528967E-14  
0.20870291       3.86211890E-14  
0.20874648       3.87252330E-14  
0.20879006       3.89068060E-14  
0.20883366       3.91893996E-14  
0.20887728       3.95720612E-14  
0.20892092       4.01480773E-14  
0.20896458       4.06298066E-14  
0.20900826       4.08705426E-14  
0.20905195       4.11184446E-14  
0.20909566       4.13808238E-14  
0.20913939       4.16427153E-14  
0.20918314       4.19124391E-14  
0.20922691       4.21833402E-14  
0.20927069       4.25665038E-14  
0.20931450       4.27484865E-14  
0.20935832       4.28717706E-14  
0.20940216       4.30410459E-14  
0.20944602       4.33260357E-14  
0.20948989       4.37226907E-14  
0.20953379       4.41827570E-14  
0.20957770       4.46841267E-14  
0.20962163       4.51620760E-14  
0.20966558       4.54683376E-14  
0.20970955       4.57830158E-14  
0.20975354       4.60625404E-14  
0.20979755       4.63263427E-14  
0.20984157       4.65480331E-14  
0.20988561       4.68280531E-14  
0.20992967       4.69954576E-14  
0.20997375       4.71370747E-14  
0.21001785       4.73034563E-14  
0.21006197       4.75414978E-14  
0.21010610       4.78601737E-14  
0.21015026       4.82690019E-14  
0.21019443       4.87368899E-14  
0.21023862       4.92196904E-14  
0.21028283       4.96126965E-14  
0.21032706       5.00437247E-14  
0.21037131       5.04697110E-14  
0.21041557       5.09311810E-14  
0.21045985       5.13249338E-14  
0.21050416       5.16947926E-14  
0.21054848       5.20681356E-14  
0.21059282       5.23860711E-14  
0.21063718       5.26644510E-14  
0.21068155       5.29386347E-14  
0.21072595       5.32563864E-14  
0.21077037       5.36291535E-14  
0.21081480       5.40119994E-14  
0.21085925       5.43748859E-14  
0.21090372       5.47443307E-14  
0.21094821       5.51490565E-14  
0.21099272       5.56058807E-14  
0.21103725       5.60940969E-14  
0.21108179       5.65795074E-14  
0.21112636       5.70417239E-14  
0.21117094       5.75470521E-14  
0.21121555       5.79733615E-14  
0.21126017       5.83814365E-14  
0.21130481       5.87796499E-14  
0.21134947       5.91938186E-14  
0.21139414       5.95991190E-14  
0.21143884       6.00313624E-14  
0.21148356       6.04178204E-14  
0.21152829       6.08233665E-14  
0.21157305       6.12533554E-14  
0.21161782       6.17072892E-14  
0.21166261       6.21767619E-14  
0.21170742       6.26471096E-14  
0.21175225       6.31130642E-14  
0.21179710       6.35764826E-14  
0.21184197       6.40423930E-14  
0.21188685       6.44947535E-14  
0.21193176       6.49464689E-14  
0.21197668       6.54112225E-14  
0.21202163       6.58828939E-14  
0.21206659       6.63537141E-14  
0.21211157       6.68123214E-14  
0.21215657       6.72734525E-14  
0.21220159       6.77380715E-14  
0.21224663       6.82064160E-14  
0.21229169       6.86774801E-14  
0.21233677       6.91522950E-14  
0.21238186       6.96302600E-14  
0.21242698       7.01121022E-14  
0.21247211       7.05972058E-14  
0.21251727       7.10847720E-14  
0.21256244       7.15754976E-14  
0.21260763       7.20696265E-14  
0.21265284       7.25674705E-14  
0.21269808       7.30693589E-14  
0.21274333       7.35768719E-14  
0.21278859       7.40904923E-14  
0.21283388       7.45683998E-14  
0.21287919       7.50751212E-14  
0.21292452       7.55878046E-14  
0.21296986       7.60990032E-14  
0.21301523       7.66064568E-14  
0.21306062       7.71076766E-14  
0.21310602       7.75964260E-14  
0.21315144       7.80662287E-14  
0.21319689       7.85182476E-14  
0.21324235       7.89927271E-14  
0.21328783       7.95428430E-14  
0.21333333       8.01702686E-14  
0.21337885       8.08339445E-14  
0.21342439       8.14825486E-14  
0.21346995       8.21054927E-14  
0.21351553       8.27140020E-14  
0.21356113       8.33123087E-14  
0.21360675       8.37861956E-14  
0.21365239       8.43566819E-14  
0.21369804       8.49172383E-14  
0.21374372       8.54987072E-14  
0.21378942       8.60204522E-14  
0.21383513       8.65093413E-14  
0.21388087       8.69642947E-14  
0.21392662       8.73904765E-14  
0.21397240       8.78163383E-14  
0.21401819       8.83383629E-14  
0.21406401       8.89989436E-14  
0.21410984       8.97986186E-14  
0.21415569       9.06447555E-14  
0.21420156       9.14714155E-14  
0.21424746       9.22533476E-14  
0.21429337       9.30018081E-14  
0.21433930       9.37292085E-14  
0.21438525       9.44453976E-14  
0.21443122       9.51447978E-14  
0.21447721       9.58380078E-14  
0.21452322       9.66114566E-14  
0.21456925       9.72806915E-14  
0.21461530       9.79740355E-14  
0.21466137       9.86928747E-14  
0.21470746       9.94238958E-14  
0.21475357       1.00148312E-13  
0.21479970       1.00884317E-13  
0.21484585       1.01621933E-13  
0.21489202       1.02357561E-13  
0.21493821       1.03086781E-13  
0.21498441       1.03824454E-13  
0.21503064       1.04563618E-13  
0.21507689       1.05312229E-13  
0.21512316       1.06046361E-13  
0.21516945       1.06792990E-13  
0.21521575       1.07556664E-13  
0.21526208       1.08331376E-13  
0.21530843       1.09110653E-13  
0.21535480       1.09900153E-13  
0.21540118       1.10665777E-13  
0.21544759       1.11466012E-13  
0.21549402       1.12252948E-13  
0.21554047       1.13043292E-13  
0.21558694       1.13830183E-13  
0.21563342       1.14604287E-13  
0.21567993       1.15376225E-13  
0.21572646       1.16116168E-13  
0.21577301       1.16821750E-13  
0.21581957       1.17533978E-13  
0.21586616       1.18303637E-13  
0.21591277       1.19146623E-13  
0.21595940       1.20069052E-13  
0.21600605       1.21032669E-13  
0.21605272       1.22022751E-13  
0.21609941       1.23010758E-13  
0.21614611       1.23990825E-13  
0.21619284       1.24955512E-13  
0.21623959       1.25911403E-13  
0.21628636       1.26137513E-13  
0.21633315       1.26328174E-13  
0.21637996       1.26924774E-13  
0.21642679       1.27413462E-13  
0.21647364       1.27723077E-13  
0.21652052       1.27798686E-13  
0.21656741       1.27521838E-13  
0.21661432       1.26688746E-13  
0.21666125       1.25238621E-13  
0.21670820       1.23927361E-13  
0.21675518       1.24316766E-13  
0.21680217       1.26706770E-13  
0.21684918       1.30262237E-13  
0.21689622       1.33494162E-13  
0.21694327       1.36108768E-13  
0.21699034       1.38242311E-13  
0.21703744       1.40045596E-13  
0.21708455       1.41620092E-13  
0.21713169       1.43042373E-13  
0.21717885       1.44365709E-13  
0.21722602       1.46544533E-13  
0.21727322       1.47874289E-13  
0.21732044       1.48955640E-13  
0.21736768       1.50078867E-13  
0.21741494       1.50972226E-13  
0.21746222       1.51967915E-13  
0.21750952       1.53040205E-13  
0.21755684       1.54067285E-13  
0.21760418       1.55031583E-13  
0.21765154       1.55906766E-13  
0.21769892       1.56652093E-13  
0.21774633       1.57193727E-13  
0.21779375       1.57533376E-13  
0.21784119       1.57927261E-13  
0.21788866       1.58964379E-13  
0.21793614       1.60722050E-13  
0.21798365       1.62856483E-13  
0.21803118       1.64833653E-13  
0.21807873       1.66583072E-13  
0.21812630       1.68173838E-13  
0.21817388       1.69672456E-13  
0.21822149       1.71103078E-13  
0.21826913       1.72379941E-13  
0.21831678       1.73672575E-13  
0.21836445       1.75218296E-13  
0.21841214       1.76508928E-13  
0.21845986       1.77703891E-13  
0.21850759       1.78851791E-13  
0.21855535       1.79918481E-13  
0.21860313       1.80854362E-13  
0.21865092       1.81675826E-13  
0.21869874       1.82556389E-13  
0.21874658       1.83752564E-13  
0.21879444       1.85227122E-13  
0.21884232       1.87083010E-13  
0.21889023       1.88956426E-13  
0.21893815       1.90691538E-13  
0.21898609       1.92279932E-13  
0.21903406       1.93742308E-13  
0.21908205       1.95078593E-13  
0.21913005       1.96269180E-13  
0.21917808       1.97326028E-13  
0.21922613       1.98508250E-13  
0.21927420       2.00055260E-13  
0.21932229       2.01955102E-13  
0.21937041       2.03943928E-13  
0.21941854       2.05807688E-13  
0.21946670       2.07530907E-13  
0.21951487       2.09136425E-13  
0.21956307       2.10634766E-13  
0.21961129       2.12051055E-13  
0.21965953       2.13508943E-13  
0.21970779       2.15185578E-13  
0.21975607       2.17209652E-13  
0.21980437       2.19069865E-13  
0.21985270       2.20857372E-13  
0.21990104       2.22578776E-13  
0.21994941       2.24241471E-13  
0.21999780       2.25842425E-13  
0.22004621       2.27389314E-13  
0.22009464       2.28968807E-13  
0.22014309       2.30723919E-13  
0.22019157       2.32692203E-13  
0.22024006       2.34673301E-13  
0.22028858       2.36629636E-13  
0.22033712       2.38545405E-13  
0.22038567       2.40436506E-13  
0.22043426       2.42316926E-13  
0.22048286       2.44195583E-13  
0.22053148       2.46078470E-13  
0.22058013       2.47980648E-13  
0.22062879       2.49927931E-13  
0.22067748       2.51839831E-13  
0.22072619       2.53752762E-13  
0.22077492       2.55682551E-13  
0.22082367       2.57630169E-13  
0.22087245       2.59594651E-13  
0.22092124       2.61573998E-13  
0.22097006       2.63567863E-13  
0.22101890       2.65576104E-13  
0.22106776       2.67598320E-13  
0.22111664       2.69636035E-13  
0.22116554       2.71681014E-13  
0.22121447       2.73755869E-13  
0.22126341       2.75855791E-13  
0.22131238       2.77972310E-13  
0.22136137       2.80103109E-13  
0.22141038       2.82249500E-13  
0.22145942       2.84412286E-13  
0.22150847       2.86591577E-13  
0.22155755       2.88787878E-13  
0.22160665       2.91001540E-13  
0.22165577       2.93233484E-13  
0.22170491       2.95482985E-13  
0.22175407       2.97749011E-13  
0.22180326       3.00033091E-13  
0.22185247       2.58211017E-13  
0.22190170       2.35835724E-13  
0.22195095       2.37520943E-13  
0.22200022       2.39217723E-13  
0.22204952       2.40926075E-13  
0.22209883       1.98284781E-13  
0.22214817       1.92434086E-13  
0.22219753       1.93721248E-13  
0.22224692       1.95016250E-13  
0.22229632       1.96318947E-13  
0.22234575       1.93184222E-13  
0.22239520       1.59057034E-13  
0.22244467       1.60056831E-13  
0.22249416       1.61061924E-13  
0.22254367       1.62072068E-13  
0.22259321       1.63087212E-13  
0.22264277       1.64107189E-13  
0.22269235       1.61764851E-13  
0.22274195       1.34324611E-13  
0.22279158       1.35117073E-13  
0.22284123       1.35912395E-13  
0.22289089       1.36712141E-13  
0.22294059       1.37517154E-13  
0.22299030       1.38326318E-13  
0.22304004       1.39137912E-13  
0.22308979       1.39951173E-13  
0.22313957       1.28809745E-13  
0.22318938       1.15340982E-13  
0.22323920       1.15983314E-13  
0.22328905       1.16629170E-13  
0.22333892       1.17276605E-13  
0.22338881       1.17925575E-13  
0.22343872       1.18575921E-13  
0.22348866       1.19227935E-13  
0.22353862       1.19881769E-13  
0.22358860       1.20537521E-13  
0.22363860       1.21195234E-13  
0.22368863       1.09207440E-13  
0.22373867       1.00059570E-13  
0.22378874       1.00578513E-13  
0.22383884       1.01098569E-13  
0.22388895       1.01619916E-13  
0.22393909       1.02142589E-13  
0.22398925       1.02666456E-13  
0.22403943       1.03191481E-13  
0.22408964       1.03717564E-13  
0.22413986       1.04244589E-13  
0.22419011       1.04772566E-13  
0.22424039       1.05301472E-13  
0.22429068       1.05831357E-13  
0.22434100       1.06362684E-13  
0.22439134       9.54472678E-14  
0.22444170       8.85710418E-14  
0.22449209       8.89964157E-14  
0.22454249       8.94221504E-14  
0.22459293       8.98482958E-14  
0.22464338       9.02750197E-14  
0.22469385       9.07026430E-14  
0.22474435       9.11309246E-14  
0.22479487       9.15594923E-14  
0.22484542       9.19884083E-14  
0.22489599       9.24174681E-14  
0.22494658       9.28466926E-14  
0.22499719       9.32759743E-14  
0.22504782       9.37051321E-14  
0.22509848       9.41341807E-14  
0.22514916       9.45641361E-14  
0.22519986       9.49957399E-14  
0.22525059       9.54280051E-14  
0.22530134       9.05550062E-14  
0.22535211       7.98516397E-14  
0.22540291       8.02008210E-14  
0.22545373       8.05498270E-14  
0.22550457       8.08983317E-14  
0.22555543       8.12460634E-14  
0.22560632       8.15943606E-14  
0.22565723       8.19424830E-14  
0.22570816       8.22902309E-14  
0.22575912       8.26374051E-14  
0.22581009       8.29838529E-14  
0.22586110       8.33290889E-14  
0.22591212       8.36725465E-14  
0.22596317       8.40141743E-14  
0.22601424       8.43574344E-14  
0.22606533       8.47065335E-14  
0.22611645       8.50583563E-14  
0.22616759       8.54085373E-14  
0.22621875       8.57566289E-14  
0.22626994       8.61029774E-14  
0.22632115       8.64481477E-14  
0.22637238       8.67924147E-14  
0.22642364       8.71359698E-14  
0.22647492       8.74786771E-14  
0.22652622       8.78210746E-14  
