# ATMO emission spectrum
# Wavelength [microns]  |  Flux [W/m2/micron]
0.20002000       1.44943871E-10  
0.20006002       1.29512921E-10  
0.20010005       1.19673608E-10  
0.20014010       1.15600915E-10  
0.20018016       1.10894427E-10  
0.20022024       1.05053167E-10  
0.20026034       1.00209994E-10  
0.20030045       9.52648991E-11  
0.20034058       9.08987169E-11  
0.20038072       8.44156320E-11  
0.20042088       7.92766166E-11  
0.20046106       7.82800862E-11  
0.20050125       7.85203045E-11  
0.20054146       7.91192690E-11  
0.20058169       8.01223876E-11  
0.20062193       8.03164640E-11  
0.20066219       7.94310361E-11  
0.20070246       7.75876902E-11  
0.20074275       7.65427852E-11  
0.20078305       7.63926254E-11  
0.20082338       7.76460025E-11  
0.20086371       8.28225677E-11  
0.20090407       8.69877650E-11  
0.20094444       9.10151366E-11  
0.20098483       9.60559937E-11  
0.20102523       1.01279045E-10  
0.20106565       1.05453014E-10  
0.20110608       1.09815112E-10  
0.20114654       1.13901835E-10  
0.20118700       1.25670640E-10  
0.20122749       1.33781444E-10  
0.20126799       1.31879798E-10  
0.20130851       1.33056961E-10  
0.20134904       1.35799416E-10  
0.20138959       1.29704372E-10  
0.20143015       1.27467690E-10  
0.20147074       1.25663644E-10  
0.20151134       1.24801730E-10  
0.20155195       1.21263202E-10  
0.20159258       1.17631012E-10  
0.20163323       1.14705352E-10  
0.20167389       1.12462152E-10  
0.20171457       1.10914217E-10  
0.20175527       1.11649413E-10  
0.20179598       1.13567767E-10  
0.20183671       1.16281338E-10  
0.20187746       1.20090500E-10  
0.20191822       1.23794268E-10  
0.20195900       1.26260559E-10  
0.20199980       1.26881941E-10  
0.20204061       1.26090876E-10  
0.20208144       1.25921232E-10  
0.20212228       1.26912459E-10  
0.20216315       1.32070587E-10  
0.20220402       1.43473219E-10  
0.20224492       1.48248974E-10  
0.20228583       1.51220153E-10  
0.20232676       1.53497286E-10  
0.20236770       1.55149082E-10  
0.20240866       1.56291689E-10  
0.20244964       1.56855826E-10  
0.20249063       1.57631191E-10  
0.20253165       1.59150588E-10  
0.20257267       1.59153891E-10  
0.20261372       1.58853833E-10  
0.20265478       1.57765715E-10  
0.20269585       1.53407653E-10  
0.20273695       1.53510951E-10  
0.20277806       1.53058386E-10  
0.20281919       1.51270984E-10  
0.20286033       1.48778109E-10  
0.20290149       1.45623185E-10  
0.20294267       1.39887354E-10  
0.20298386       1.30989163E-10  
0.20302507       1.19979916E-10  
0.20306630       1.13234088E-10  
0.20310755       1.10251496E-10  
0.20314881       1.10524191E-10  
0.20319008       1.13954401E-10  
0.20323138       1.13202344E-10  
0.20327269       1.09033265E-10  
0.20331402       1.01710759E-10  
0.20335536       9.14766086E-11  
0.20339673       7.86083403E-11  
0.20343810       6.42413128E-11  
0.20347950       5.09703050E-11  
0.20352091       4.49874195E-11  
0.20356234       5.19370511E-11  
0.20360379       6.63544809E-11  
0.20364525       8.17361281E-11  
0.20368673       9.57925431E-11  
0.20372823       1.07541026E-10  
0.20376974       1.16732199E-10  
0.20381127       1.24163421E-10  
0.20385282       1.31245486E-10  
0.20389438       1.37586756E-10  
0.20393596       1.58265859E-10  
0.20397756       1.69794589E-10  
0.20401918       1.70434794E-10  
0.20406081       1.73709730E-10  
0.20410246       1.77092856E-10  
0.20414413       1.79670465E-10  
0.20418581       1.81509213E-10  
0.20422751       1.83201418E-10  
0.20426923       1.84566114E-10  
0.20431096       1.85353833E-10  
0.20435271       1.86017941E-10  
0.20439448       1.82403698E-10  
0.20443627       1.80246446E-10  
0.20447807       1.79226703E-10  
0.20451989       1.77533402E-10  
0.20456173       1.75125766E-10  
0.20460358       1.71699963E-10  
0.20464545       1.66767502E-10  
0.20468734       1.59642760E-10  
0.20472925       1.49827240E-10  
0.20477117       1.39415488E-10  
0.20481311       1.36075419E-10  
0.20485507       1.41055419E-10  
0.20489704       1.51031750E-10  
0.20493903       1.58531941E-10  
0.20498104       1.62537024E-10  
0.20502307       1.63773503E-10  
0.20506511       1.62338120E-10  
0.20510717       1.58054860E-10  
0.20514925       1.50486437E-10  
0.20519134       1.39938283E-10  
0.20523345       1.31428494E-10  
0.20527558       1.31549074E-10  
0.20531773       1.41131757E-10  
0.20535989       1.52672915E-10  
0.20540207       1.62545121E-10  
0.20544427       1.70554026E-10  
0.20548649       1.76612870E-10  
0.20552872       1.81057294E-10  
0.20557097       1.84286626E-10  
0.20561324       1.85057054E-10  
0.20565553       1.86400604E-10  
0.20569783       1.91403536E-10  
0.20574015       1.90472131E-10  
0.20578249       1.89173634E-10  
0.20582484       1.88332729E-10  
0.20586722       1.86809029E-10  
0.20590961       1.83643082E-10  
0.20595201       1.78449885E-10  
0.20599444       1.73175800E-10  
0.20603688       1.73011265E-10  
0.20607934       1.78704412E-10  
0.20612182       1.85508943E-10  
0.20616431       1.90121574E-10  
0.20620683       1.93519651E-10  
0.20624936       1.95826662E-10  
0.20629190       1.97215446E-10  
0.20633447       1.98193360E-10  
0.20637705       1.98361038E-10  
0.20641965       1.98283439E-10  
0.20646227       1.98932151E-10  
0.20650490       1.97226427E-10  
0.20654756       1.94816690E-10  
0.20659023       1.94102543E-10  
0.20663292       1.94738523E-10  
0.20667562       1.95053504E-10  
0.20671835       1.94762140E-10  
0.20676109       1.94659059E-10  
0.20680385       1.96023896E-10  
0.20684662       1.98454094E-10  
0.20688942       1.99855455E-10  
0.20693223       1.98697863E-10  
0.20697506       1.99346510E-10  
0.20701791       2.00820566E-10  
0.20706077       2.01406326E-10  
0.20710366       2.01280634E-10  
0.20714656       2.00491562E-10  
0.20718947       1.98352079E-10  
0.20723241       1.94309564E-10  
0.20727537       1.87601068E-10  
0.20731834       1.81770597E-10  
0.20736133       1.69850820E-10  
0.20740433       1.35193995E-10  
0.20744736       1.30612265E-10  
0.20749040       1.23480569E-10  
0.20753346       1.14153186E-10  
0.20757654       1.02754601E-10  
0.20761964       8.93229309E-11  
0.20766276       7.40904767E-11  
0.20770589       5.79479044E-11  
0.20774904       4.28609713E-11  
0.20779221       3.41008553E-11  
0.20783539       3.83212166E-11  
0.20787860       5.25647674E-11  
0.20792182       6.96375781E-11  
0.20796506       8.66487442E-11  
0.20800832       1.02221885E-10  
0.20805160       6.38472182E-11  
0.20809489       4.21798574E-11  
0.20813820       3.76846700E-11  
0.20818153       3.26444369E-11  
0.20822488       2.73132443E-11  
0.20826825       2.21892224E-11  
0.20831163       1.70233182E-11  
0.20835504       1.23913127E-11  
0.20839846       7.93473711E-12  
0.20844190       5.46418846E-12  
0.20848535       4.83345143E-12  
0.20852883       5.80539456E-12  
0.20857232       7.74955748E-12  
0.20861583       9.13802672E-12  
0.20865936       9.39957477E-12  
0.20870291       8.33930004E-12  
0.20874648       6.20493191E-12  
0.20879006       4.40817469E-12  
0.20883366       4.25519812E-12  
0.20887728       6.03166631E-12  
0.20892092       9.53288908E-12  
0.20896458       1.31773518E-11  
0.20900826       1.40560758E-11  
0.20905195       1.33166016E-11  
0.20909566       1.15435536E-11  
0.20913939       1.01735461E-11  
0.20918314       1.08825759E-11  
0.20922691       1.26685842E-11  
0.20927069       1.39046389E-11  
0.20931450       1.17226998E-11  
0.20935832       8.37243941E-12  
0.20940216       5.64777239E-12  
0.20944602       5.12861750E-12  
0.20948989       7.12743954E-12  
0.20953379       1.10220979E-11  
0.20957770       1.58796025E-11  
0.20962163       2.13488225E-11  
0.20966558       2.36831613E-11  
0.20970955       2.50550367E-11  
0.20975354       2.44227190E-11  
0.20979755       2.23971098E-11  
0.20984157       1.88201571E-11  
0.20988561       1.52979551E-11  
0.20992967       1.11265140E-11  
0.20997375       8.95528340E-12  
0.21001785       7.85523153E-12  
0.21006197       6.58099657E-12  
0.21010610       6.34887736E-12  
0.21015026       7.56684424E-12  
0.21019443       9.98488893E-12  
0.21023862       1.26885425E-11  
0.21028283       1.36791845E-11  
0.21032706       1.44714208E-11  
0.21037131       1.65365597E-11  
0.21041557       2.07808715E-11  
0.21045985       2.41145768E-11  
0.21050416       2.61120967E-11  
0.21054848       2.64518373E-11  
0.21059282       2.31666663E-11  
0.21063718       1.77777497E-11  
0.21068155       1.31514145E-11  
0.21072595       1.25525590E-11  
0.21077037       1.53023479E-11  
0.21081480       1.70542403E-11  
0.21085925       1.55666664E-11  
0.21090372       1.37757507E-11  
0.21094821       1.34312796E-11  
0.21099272       1.58829761E-11  
0.21103725       2.19853808E-11  
0.21108179       2.91487083E-11  
0.21112636       3.54924914E-11  
0.21117094       4.35282480E-11  
0.21121555       4.72794633E-11  
0.21126017       4.84668362E-11  
0.21130481       4.55712592E-11  
0.21134947       4.22965436E-11  
0.21139414       4.13588059E-11  
0.21143884       4.21408610E-11  
0.21148356       3.63852462E-11  
0.21152829       3.20469362E-11  
0.21157305       3.36104827E-11  
0.21161782       4.09659479E-11  
0.21166261       5.32612783E-11  
0.21170742       6.75672178E-11  
0.21175225       8.20352028E-11  
0.21179710       9.65303390E-11  
0.21184197       1.12708627E-10  
0.21188685       1.21662562E-10  
0.21193176       1.25856761E-10  
0.21197668       1.36859903E-10  
0.21202163       1.63638906E-10  
0.21206659       2.04432025E-10  
0.21211157       2.14827500E-10  
0.21215657       2.17302585E-10  
0.21220159       2.20589132E-10  
0.21224663       2.30046722E-10  
0.21229169       2.36397368E-10  
0.21233677       2.40959877E-10  
0.21238186       2.42689572E-10  
0.21242698       2.44473766E-10  
0.21247211       2.43561067E-10  
0.21251727       2.36327907E-10  
0.21256244       2.25562976E-10  
0.21260763       2.14778211E-10  
0.21265284       2.05201332E-10  
0.21269808       1.92954966E-10  
0.21274333       1.89796549E-10  
0.21278859       2.00657221E-10  
0.21283388       1.61933859E-10  
0.21287919       1.55514214E-10  
0.21292452       1.48859749E-10  
0.21296986       1.38138156E-10  
0.21301523       1.24177046E-10  
0.21306062       1.07837562E-10  
0.21310602       8.91097759E-11  
0.21315144       6.87948724E-11  
0.21319689       4.87648764E-11  
0.21324235       3.32581109E-11  
0.21328783       3.20357447E-11  
0.21333333       4.64232404E-11  
0.21337885       6.71666372E-11  
0.21342439       8.87665107E-11  
0.21346995       1.07843630E-10  
0.21351553       1.23652037E-10  
0.21356113       1.34144243E-10  
0.21360675       1.01517398E-10  
0.21365239       9.70508001E-11  
0.21369804       8.95870887E-11  
0.21374372       8.38329075E-11  
0.21378942       7.01114852E-11  
0.21383513       5.54208487E-11  
0.21388087       4.11962272E-11  
0.21392662       3.01192252E-11  
0.21397240       2.19853128E-11  
0.21401819       1.62412541E-11  
0.21406401       1.73038237E-11  
0.21410984       2.61465772E-11  
0.21415569       3.85428152E-11  
0.21420156       5.16133239E-11  
0.21424746       6.41824376E-11  
0.21429337       7.66550939E-11  
0.21433930       8.81493508E-11  
0.21438525       9.71374632E-11  
0.21443122       1.00314044E-10  
0.21447721       9.68238380E-11  
0.21452322       9.84813579E-11  
0.21456925       8.02258319E-11  
0.21461530       8.20791848E-11  
0.21466137       9.88224529E-11  
0.21470746       1.13414509E-10  
0.21475357       1.26831918E-10  
0.21479970       1.45423301E-10  
0.21484585       1.60589732E-10  
0.21489202       1.67353451E-10  
0.21493821       1.66609674E-10  
0.21498441       1.66466358E-10  
0.21503064       1.58850157E-10  
0.21507689       1.47456245E-10  
0.21512316       1.24461974E-10  
0.21516945       1.08124677E-10  
0.21521575       1.11432660E-10  
0.21526208       1.19358604E-10  
0.21530843       1.14902540E-10  
0.21535480       1.06168937E-10  
0.21540118       1.06845317E-10  
0.21544759       1.21563088E-10  
0.21549402       1.25583819E-10  
0.21554047       1.22026459E-10  
0.21558694       1.14337308E-10  
0.21563342       1.06092763E-10  
0.21567993       9.46361851E-11  
0.21572646       7.75344915E-11  
0.21577301       5.81255205E-11  
0.21581957       4.16165053E-11  
0.21586616       3.54772613E-11  
0.21591277       3.60320813E-11  
0.21595940       3.92966926E-11  
0.21600605       4.67797816E-11  
0.21605272       5.72154696E-11  
0.21609941       7.10059451E-11  
0.21614611       8.50418803E-11  
0.21619284       9.29832137E-11  
0.21623959       1.00023597E-10  
0.21628636       6.01162132E-11  
0.21633315       4.34037113E-11  
0.21637996       3.76023009E-11  
0.21642679       3.11314444E-11  
0.21647364       2.50025514E-11  
0.21652052       1.97226525E-11  
0.21656741       1.50293932E-11  
0.21661432       1.04228109E-11  
0.21666125       6.24998574E-12  
0.21670820       3.21752952E-12  
0.21675518       2.45444354E-12  
0.21680217       4.37726495E-12  
0.21684918       8.27978228E-12  
0.21689622       1.33665050E-11  
0.21694327       1.93785151E-11  
0.21699034       2.61451092E-11  
0.21703744       3.32320864E-11  
0.21708455       3.98720730E-11  
0.21713169       4.48650025E-11  
0.21717885       4.73947070E-11  
0.21722602       7.94361324E-11  
0.21727322       8.73594600E-11  
0.21732044       8.35747923E-11  
0.21736768       8.85487443E-11  
0.21741494       8.36520744E-11  
0.21746222       8.68336333E-11  
0.21750952       8.82913646E-11  
0.21755684       8.28114505E-11  
0.21760418       7.26477155E-11  
0.21765154       5.98050343E-11  
0.21769892       4.59412626E-11  
0.21774633       3.28552856E-11  
0.21779375       2.14475480E-11  
0.21784119       1.27635604E-11  
0.21788866       1.08683380E-11  
0.21793614       1.72567519E-11  
0.21798365       2.91762270E-11  
0.21803118       4.35525425E-11  
0.21807873       5.86840083E-11  
0.21812630       7.26911857E-11  
0.21817388       8.68893282E-11  
0.21822149       1.02586600E-10  
0.21826913       1.06810359E-10  
0.21831678       1.08888804E-10  
0.21836445       1.34712776E-10  
0.21841214       1.30353926E-10  
0.21845986       1.14378297E-10  
0.21850759       9.63132589E-11  
0.21855535       7.62255947E-11  
0.21860313       5.56655625E-11  
0.21865092       3.66357724E-11  
0.21869874       2.38893363E-11  
0.21874658       2.16317079E-11  
0.21879444       2.56732931E-11  
0.21884232       3.76948414E-11  
0.21889023       5.47358037E-11  
0.21893815       6.97233502E-11  
0.21898609       7.87944966E-11  
0.21903406       7.95867363E-11  
0.21908205       7.17101385E-11  
0.21913005       5.70510130E-11  
0.21917808       3.98643377E-11  
0.21922613       2.65051249E-11  
0.21927420       2.64072921E-11  
0.21932229       4.11036992E-11  
0.21937041       6.14210813E-11  
0.21941854       7.99747609E-11  
0.21946670       9.17405105E-11  
0.21951487       9.26901533E-11  
0.21956307       8.14989982E-11  
0.21961129       6.13459521E-11  
0.21965953       4.52865813E-11  
0.21970779       5.11485891E-11  
0.21975607       7.87999543E-11  
0.21980437       1.05829365E-10  
0.21985270       1.26228972E-10  
0.21990104       1.35392642E-10  
0.21994941       1.30783886E-10  
0.21999780       1.13109542E-10  
0.22004621       8.66149789E-11  
0.22009464       6.34199092E-11  
0.22014309       6.12534868E-11  
0.22019157       8.46613852E-11  
0.22024006       1.20571464E-10  
0.22028858       1.58359320E-10  
0.22033712       1.93392334E-10  
0.22038567       2.24346005E-10  
0.22043426       2.50968885E-10  
0.22048286       2.73481233E-10  
0.22053148       2.92439727E-10  
0.22058013       3.17297325E-10  
0.22062879       3.88883589E-10  
0.22067748       4.07214478E-10  
0.22072619       3.93469481E-10  
0.22077492       3.83958754E-10  
0.22082367       3.90646491E-10  
0.22087245       3.99401101E-10  
0.22092124       4.01641634E-10  
0.22097006       4.01151998E-10  
0.22101890       3.97003952E-10  
0.22106776       3.84428257E-10  
0.22111664       3.65332959E-10  
0.22116554       3.54548831E-10  
0.22121447       3.65287033E-10  
0.22126341       3.91206653E-10  
0.22131238       4.13224981E-10  
0.22136137       4.27327181E-10  
0.22141038       4.36747594E-10  
0.22145942       4.43623447E-10  
0.22150847       4.48225797E-10  
0.22155755       4.51652036E-10  
0.22160665       4.54233706E-10  
0.22165577       4.57444843E-10  
0.22170491       4.59602298E-10  
0.22175407       4.56813293E-10  
0.22180326       4.51952409E-10  
0.22185247       2.88960138E-10  
0.22190170       2.10460279E-10  
0.22195095       2.12178476E-10  
0.22200022       2.13066340E-10  
0.22204952       2.13268780E-10  
0.22209883       1.13316206E-10  
0.22214817       9.95640803E-11  
0.22219753       9.95392037E-11  
0.22224692       9.96971848E-11  
0.22229632       9.97209766E-11  
0.22234575       9.29567726E-11  
0.22239520       4.76941499E-11  
0.22244467       4.73449201E-11  
0.22249416       4.70430532E-11  
0.22254367       4.67228355E-11  
0.22259321       4.63577847E-11  
0.22264277       4.59029678E-11  
0.22269235       4.23317230E-11  
0.22274195       2.21345900E-11  
0.22279158       2.15900521E-11  
0.22284123       2.07947145E-11  
0.22289089       2.02302621E-11  
0.22294059       2.04031547E-11  
0.22299030       2.06237555E-11  
0.22304004       2.06187462E-11  
0.22308979       2.02470412E-11  
0.22313957       1.48071231E-11  
0.22318938       9.95340885E-12  
0.22323920       1.01227623E-11  
0.22328905       1.03781294E-11  
0.22333892       1.04910622E-11  
0.22338881       1.05301655E-11  
0.22343872       1.05178064E-11  
0.22348866       1.04788985E-11  
0.22353862       1.04246195E-11  
0.22358860       1.03619685E-11  
0.22363860       1.02943056E-11  
0.22368863       7.17963118E-12  
0.22373867       5.24830287E-12  
0.22378874       5.20385194E-12  
0.22383884       5.15526239E-12  
0.22388895       5.10757118E-12  
0.22393909       5.06741146E-12  
0.22398925       5.02856975E-12  
0.22403943       4.98720215E-12  
0.22408964       4.94358269E-12  
0.22413986       4.89557657E-12  
0.22419011       4.84334812E-12  
0.22424039       4.78309800E-12  
0.22429068       4.70864750E-12  
0.22434100       4.65500151E-12  
0.22439134       3.26529530E-12  
0.22444170       2.53176678E-12  
0.22449209       2.51188320E-12  
0.22454249       2.48833265E-12  
0.22459293       2.45908248E-12  
0.22464338       2.43315735E-12  
0.22469385       2.42050000E-12  
0.22474435       2.40661675E-12  
0.22479487       2.38842297E-12  
0.22484542       2.36877148E-12  
0.22489599       2.34743476E-12  
0.22494658       2.32464721E-12  
0.22499719       2.29980781E-12  
0.22504782       2.27066277E-12  
0.22509848       2.23228577E-12  
0.22514916       2.19686907E-12  
0.22519986       2.18877548E-12  
0.22525059       2.18105337E-12  
0.22530134       1.84087890E-12  
0.22535211       1.25816440E-12  
0.22540291       1.24909638E-12  
0.22545373       1.23939928E-12  
0.22550457       1.22884663E-12  
0.22555543       1.21721831E-12  
0.22560632       1.20667516E-12  
0.22565723       1.19608676E-12  
0.22570816       1.18519835E-12  
0.22575912       1.17373207E-12  
0.22581009       1.16140315E-12  
0.22586110       1.14722930E-12  
0.22591212       1.12906349E-12  
0.22596317       1.10192950E-12  
0.22601424       1.07479745E-12  
0.22606533       1.07970617E-12  
0.22611645       1.09012673E-12  
0.22616759       1.08992185E-12  
0.22621875       1.08487388E-12  
0.22626994       1.07749830E-12  
0.22632115       1.06893543E-12  
0.22637238       1.05943707E-12  
0.22642364       1.04984154E-12  
0.22647492       1.04102590E-12  
0.22652622       1.03148666E-12  
