# ATMO chemical composition profiles
# Chemical abundances given as mole fraction for the 8 most abundant species
# Model Level      Pressure [Ba]    Temperature [K]  H2               He               H                CO               H2O              N2               Mg               SiO             
  1                1.00000000E-05   3.35417709E+02   8.38560162E-01   1.60523095E-01   1.24399926E-29   5.27727385E-04   2.90620951E-04   6.03374093E-05   0.00000000E+00   0.00000000E+00  
  2                1.08129959E-04   4.09661932E+02   8.38560380E-01   1.60522378E-01   5.52801969E-24   5.27737851E-04   2.90626698E-04   6.03386491E-05   0.00000000E+00   0.00000000E+00  
  3                2.13019695E-04   4.36302671E+02   8.38560161E-01   1.60522572E-01   1.98806135E-22   5.27753159E-04   2.90635095E-04   6.03404913E-05   0.00000000E+00   0.00000000E+00  
  4                3.31700555E-04   4.52628770E+02   8.38560164E-01   1.60522547E-01   1.40431355E-21   5.27766646E-04   2.90642490E-04   6.03421198E-05   0.00000000E+00   0.00000000E+00  
  5                4.67429162E-04   4.67485233E+02   8.38560181E-01   1.60522508E-01   7.51746469E-21   5.27779248E-04   2.90649400E-04   6.03436419E-05   0.00000000E+00   0.00000000E+00  
  6                6.23410519E-04   4.78043451E+02   8.38560161E-01   1.60522508E-01   2.26013861E-20   5.27791269E-04   2.90655991E-04   6.03450937E-05   0.00000000E+00   0.00000000E+00  
  7                8.03219053E-04   4.89146619E+02   8.38560158E-01   1.60522491E-01   6.95968330E-20   5.27802834E-04   2.90662333E-04   6.03464907E-05   0.00000000E+00   0.00000000E+00  
  8                1.01086403E-03   4.97426415E+02   8.38560130E-01   1.60522500E-01   1.52145017E-19   5.27814124E-04   2.90668524E-04   6.03478544E-05   0.00000000E+00   0.00000000E+00  
  9                1.25093801E-03   5.07022504E+02   8.38560122E-01   1.60522490E-01   3.73001092E-19   5.27825192E-04   2.90674592E-04   6.03491915E-05   0.00000000E+00   0.00000000E+00  
  10               1.52870428E-03   5.14368070E+02   8.38560092E-01   1.60522502E-01   7.09239632E-19   5.27836147E-04   2.90680599E-04   6.03505150E-05   0.00000000E+00   0.00000000E+00  
  11               1.85029093E-03   5.23480481E+02   8.38560083E-01   1.60522493E-01   1.57423582E-18   5.27847001E-04   2.90686551E-04   6.03518266E-05   0.00000000E+00   0.00000000E+00  
  12               2.22277768E-03   5.30468200E+02   8.38560052E-01   1.60522505E-01   2.79004817E-18   5.27857853E-04   2.90692502E-04   6.03531379E-05   0.00000000E+00   0.00000000E+00  
  13               2.65434972E-03   5.39371993E+02   8.38560042E-01   1.60522496E-01   5.80465763E-18   5.27868679E-04   2.90698438E-04   6.03544462E-05   0.00000000E+00   0.00000000E+00  
  14               3.15445375E-03   5.46228248E+02   8.38560012E-01   1.60522508E-01   9.84230936E-18   5.27879552E-04   2.90704400E-04   6.03557603E-05   0.00000000E+00   0.00000000E+00  
  15               3.73399546E-03   5.55190294E+02   8.38560002E-01   1.60522500E-01   1.97405209E-17   5.27890460E-04   2.90710381E-04   6.03570790E-05   0.00000000E+00   0.00000000E+00  
  16               4.40554245E-03   5.62122699E+02   8.38559972E-01   1.60522511E-01   3.26760120E-17   5.27901478E-04   2.90716423E-04   6.03584110E-05   0.00000000E+00   0.00000000E+00  
  17               5.18354572E-03   5.71320930E+02   8.38559963E-01   1.60522502E-01   6.41952249E-17   5.27912582E-04   2.90722511E-04   6.03597536E-05   0.00000000E+00   0.00000000E+00  
  18               6.08457399E-03   5.78574763E+02   8.38559934E-01   1.60522511E-01   1.05808055E-16   5.27923826E-04   2.90728676E-04   6.03611132E-05   0.00000000E+00   0.00000000E+00  
  19               7.12760505E-03   5.88351378E+02   8.38559927E-01   1.60522498E-01   2.08839493E-16   5.27935224E-04   2.90734926E-04   6.03624916E-05   0.00000000E+00   0.00000000E+00  
  20               8.33434897E-03   5.96186292E+02   8.38559901E-01   1.60522504E-01   3.48568242E-16   5.27946801E-04   2.90741274E-04   6.03638917E-05   0.00000000E+00   0.00000000E+00  
  21               9.72959991E-03   6.06642666E+02   8.38559898E-01   1.60522488E-01   6.92918928E-16   5.27958558E-04   2.90747720E-04   6.03653138E-05   0.00000000E+00   0.00000000E+00  
  22               1.13414914E-02   6.15238246E+02   8.38559874E-01   1.60522488E-01   1.18014955E-15   5.27970675E-04   2.90754365E-04   6.03667789E-05   0.00000000E+00   0.00000000E+00  
  23               1.32020181E-02   6.26688231E+02   8.38559874E-01   1.60522466E-01   2.39975399E-15   5.27982928E-04   2.90761083E-04   6.03682613E-05   0.00000000E+00   0.00000000E+00  
  24               1.53484082E-02   6.36320383E+02   8.38559852E-01   1.60522459E-01   4.21764061E-15   5.27995471E-04   2.90767961E-04   6.03697792E-05   0.00000000E+00   0.00000000E+00  
  25               1.78232168E-02   6.48856340E+02   8.38559855E-01   1.60522429E-01   8.74337155E-15   5.28008710E-04   2.90775221E-04   6.03713792E-05   0.00000000E+00   0.00000000E+00  
  26               2.06743831E-02   6.59653825E+02   8.38559823E-01   1.60522410E-01   1.58335109E-14   5.28021997E-04   2.90782506E-04   6.03729878E-05   0.00000000E+00   0.00000000E+00  
  27               2.39556300E-02   6.73601041E+02   8.38559824E-01   1.60522365E-01   3.37831717E-14   5.28036837E-04   2.90790646E-04   6.03747776E-05   0.00000000E+00   0.00000000E+00  
  28               2.77269333E-02   6.86011035E+02   8.38559686E-01   1.60522303E-01   6.39781656E-14   5.28051135E-04   2.90798485E-04   6.03765098E-05   0.00000000E+00   0.00000000E+00  
  29               3.20551187E-02   7.01742701E+02   8.38559664E-01   1.60522216E-01   1.41506152E-13   5.28069347E-04   2.90808478E-04   6.03786948E-05   0.00000000E+00   0.00000000E+00  
  30               3.70129781E-02   7.16081442E+02   8.38559717E-01   1.60522136E-01   2.80679945E-13   5.28085198E-04   2.90817169E-04   6.03806164E-05   0.00000000E+00   0.00000000E+00  
  31               4.26791635E-02   7.33981071E+02   8.38559681E-01   1.60521931E-01   6.45236714E-13   5.28105117E-04   2.90828097E-04   6.03830108E-05   0.00000000E+00   0.00000000E+00  
  32               4.91364891E-02   7.50766607E+02   8.38559879E-01   1.60521699E-01   1.34990630E-12   5.28123199E-04   2.90838010E-04   6.03852045E-05   0.00000000E+00   0.00000000E+00  
  33               5.64753041E-02   7.71342683E+02   8.38560355E-01   1.60521184E-01   3.23531777E-12   5.28142363E-04   2.90848516E-04   6.03875325E-05   0.00000000E+00   0.00000000E+00  
  34               6.48038074E-02   7.90887316E+02   8.38561099E-01   1.60520385E-01   7.07612940E-12   5.28162627E-04   2.90859624E-04   6.03899983E-05   0.00000000E+00   0.00000000E+00  
  35               7.42383749E-02   8.14379637E+02   8.38562806E-01   1.60518587E-01   1.74370599E-11   5.28183382E-04   2.90870997E-04   6.03925333E-05   0.00000000E+00   0.00000000E+00  
  36               8.48961705E-02   8.37159271E+02   8.38565603E-01   1.60515593E-01   3.96664510E-11   5.28204160E-04   2.90882379E-04   6.03950852E-05   0.00000000E+00   0.00000000E+00  
  37               9.68922345E-02   8.64186693E+02   8.38571709E-01   1.60509006E-01   1.00387927E-10   5.28222808E-04   2.90892583E-04   6.03974086E-05   0.00000000E+00   0.00000000E+00  
  38               1.10334245E-01   8.90730216E+02   8.38581046E-01   1.60498253E-01   2.35756327E-10   5.28238972E-04   2.90901413E-04   6.03994634E-05   0.00000000E+00   0.00000000E+00  
  39               1.25322445E-01   9.21405815E+02   8.38599106E-01   1.60478408E-01   5.99234803E-10   5.28254300E-04   2.90909778E-04   6.04014388E-05   0.00000000E+00   0.00000000E+00  
  40               1.41964280E-01   9.51380341E+02   8.38624834E-01   1.60452735E-01   1.40208769E-09   5.28246051E-04   2.90905154E-04   6.04007340E-05   0.00000000E+00   0.00000000E+00  
  41               1.60419475E-01   9.85471909E+02   8.38659992E-01   1.60417662E-01   3.48307819E-09   5.28228069E-04   2.90895163E-04   6.03989313E-05   2.59120351E-16   1.46576402E-15  
  42               1.80806690E-01   1.02056948E+03   8.38695972E-01   1.60381764E-01   8.33836850E-09   5.28208353E-04   2.90884205E-04   6.03969427E-05   2.40869279E-15   1.52855178E-14  
  43               2.03285404E-01   1.05551168E+03   8.38726821E-01   1.60350965E-01   1.87289298E-08   5.28197621E-04   2.90878161E-04   6.03959883E-05   1.91166446E-14   1.34978226E-13  
  44               2.28015696E-01   1.09127846E+03   8.38751897E-01   1.60325902E-01   4.06143550E-08   5.28194621E-04   2.90876280E-04   6.03959155E-05   1.37593372E-13   1.07588780E-12  
  45               2.55156419E-01   1.12683804E+03   8.38770262E-01   1.60307498E-01   8.33365091E-08   5.28202518E-04   2.90880153E-04   6.03970698E-05   8.46072782E-13   7.27448559E-12  
  46               2.84918802E-01   1.16320153E+03   8.38783581E-01   1.60294071E-01   1.65983330E-07   5.28218580E-04   2.90888002E-04   6.03991106E-05   4.72875465E-12   4.45298231E-11  
  47               3.17612203E-01   1.19951361E+03   8.38792519E-01   1.60284936E-01   3.16166940E-07   5.28241740E-04   2.90898907E-04   6.04018665E-05   2.31665446E-11   2.37570963E-10  
  48               3.53541355E-01   1.23672483E+03   8.38798486E-01   1.60278640E-01   5.87983577E-07   5.28269990E-04   2.90911856E-04   6.04050239E-05   1.05058513E-10   1.16955336E-09  
  49               3.93006008E-01   1.27396064E+03   8.38802103E-01   1.60274503E-01   1.05297928E-06   5.28303148E-04   2.90928995E-04   6.04084246E-05   4.28290635E-10   5.15102063E-09  
  50               4.36316218E-01   1.31204913E+03   8.38804089E-01   1.60271691E-01   1.84540533E-06   5.28341530E-04   2.90959517E-04   6.04118894E-05   1.63834784E-09   2.12273817E-08  
  51               4.83800471E-01   1.35020232E+03   8.38804539E-01   1.60269787E-01   3.13063391E-06   5.28387571E-04   2.91032815E-04   6.04153761E-05   5.74740138E-09   7.98908110E-08  
  52               5.35804738E-01   1.38921086E+03   8.38803395E-01   1.60268408E-01   5.21171570E-06   5.28446014E-04   2.91225766E-04   6.04189875E-05   1.91209608E-08   2.84442198E-07  
  53               5.92805535E-01   1.42839222E+03   8.38798928E-01   1.60267044E-01   8.44170095E-06   5.28521982E-04   2.91724342E-04   6.04227639E-05   5.92406859E-08   9.39826336E-07  
  54               6.55205090E-01   1.46834442E+03   8.38779631E-01   1.60263612E-01   1.34312548E-05   5.28629564E-04   2.92950778E-04   6.04278045E-05   1.74016817E-07   2.93730175E-06  
  55               7.23104457E-01   1.50826925E+03   8.38769134E-01   1.60265158E-01   2.08129845E-05   5.28924960E-04   2.95739240E-04   6.04520943E-05   2.96055079E-07   1.85886617E-05  
  56               7.95991587E-01   1.54818535E+03   8.38754078E-01   1.60263281E-01   3.14997716E-05   5.29053571E-04   2.99701340E-04   6.04558393E-05   1.26592785E-06   1.91046466E-05  
  57               8.72859798E-01   1.58703200E+03   8.38724695E-01   1.60259810E-01   4.61505952E-05   5.29219617E-04   3.06716766E-04   6.04643213E-05   4.58946084E-06   2.07163812E-05  
  58               9.51390436E-01   1.62412188E+03   8.38680551E-01   1.60255572E-01   6.52795783E-05   5.29394954E-04   3.19221498E-04   6.04774811E-05   1.33328234E-05   2.48874666E-05  
  59               1.02773258E+00   1.65768586E+03   8.38610788E-01   1.60249034E-01   8.80623007E-05   5.29635161E-04   3.38187063E-04   6.05048913E-05   2.96479857E-05   3.27142619E-05  
  60               1.09729931E+00   1.68671278E+03   8.38520090E-01   1.60244557E-01   1.12944313E-04   5.29876708E-04   3.59742695E-04   6.05378051E-05   6.60200975E-05   5.03777372E-05  
  61               1.16926030E+00   1.71503576E+03   8.38484409E-01   1.60240544E-01   1.42718255E-04   5.30040782E-04   3.69466293E-04   6.05642661E-05   6.59743500E-05   5.04475008E-05  
  62               1.23572704E+00   1.74011215E+03   8.38450992E-01   1.60237155E-01   1.74407173E-04   5.30140170E-04   3.74449144E-04   6.05839317E-05   6.59328186E-05   5.05081959E-05  
  63               1.29359408E+00   1.76088977E+03   8.38421344E-01   1.60234384E-01   2.04939573E-04   5.30107805E-04   3.76348873E-04   6.05843444E-05   6.58973777E-05   5.05577619E-05  
  64               1.35815797E+00   1.78338869E+03   8.38353836E-01   1.60225098E-01   2.42990961E-04   5.30066045E-04   3.76806470E-04   6.05834403E-05   6.58556961E-05   5.06087932E-05  
  65               1.43033874E+00   1.80733890E+03   8.38310809E-01   1.60221332E-01   2.89792620E-04   5.29985449E-04   3.76848567E-04   6.05804680E-05   6.58126252E-05   5.06643436E-05  
  66               1.48838783E+00   1.82608658E+03   8.38271965E-01   1.60217884E-01   3.31544906E-04   5.30264169E-04   3.77025539E-04   6.06329422E-05   6.57781338E-05   5.07072403E-05  
  67               1.53212556E+00   1.83965315E+03   8.38241563E-01   1.60215236E-01   3.64724616E-04   5.30193113E-04   3.76942435E-04   6.06314631E-05   6.57525187E-05   5.07380275E-05  
  68               1.58150381E+00   1.85479917E+03   8.38204512E-01   1.60212000E-01   4.05071147E-04   5.30173220E-04   3.76878584E-04   6.06297051E-05   6.57236144E-05   5.07720611E-05  
  69               1.63704707E+00   1.87114933E+03   8.38160818E-01   1.60208182E-01   4.52606969E-04   5.30169540E-04   3.76821998E-04   6.06276550E-05   6.56915332E-05   5.08084855E-05  
  70               1.69928299E+00   1.88913903E+03   8.38107810E-01   1.60203551E-01   5.10259309E-04   5.30168026E-04   3.76765307E-04   6.06252192E-05   6.56556890E-05   5.08482110E-05  
  71               1.76872288E+00   1.90833828E+03   8.38045329E-01   1.60198094E-01   5.78200288E-04   5.30164031E-04   3.76709956E-04   6.06223642E-05   6.56162486E-05   5.08901614E-05  
  72               1.84582961E+00   1.92913679E+03   8.37969941E-01   1.60191510E-01   6.60159646E-04   5.30156025E-04   3.76657212E-04   6.06189745E-05   6.55726606E-05   5.09351683E-05  
  73               1.93069034E+00   1.95094642E+03   8.37881884E-01   1.60183823E-01   7.55901893E-04   5.30143364E-04   3.76605340E-04   6.06150485E-05   6.55253888E-05   5.09817759E-05  
  74               2.02398028E+00   1.97420091E+03   8.37776686E-01   1.60174641E-01   8.70347966E-04   5.30124875E-04   3.76518399E-04   6.06101642E-05   6.54737524E-05   5.10305991E-05  
  75               2.12750516E+00   1.99868017E+03   8.37652569E-01   1.60163810E-01   1.00537314E-03   5.30099808E-04   3.76424091E-04   6.06043662E-05   6.54173401E-05   5.10811750E-05  
  76               2.24212985E+00   2.02480698E+03   8.37503160E-01   1.60150772E-01   1.16791115E-03   5.30066685E-04   3.76320286E-04   6.05974258E-05   6.53553753E-05   5.11342675E-05  
  77               2.36878779E+00   2.05205911E+03   8.37327557E-01   1.60135451E-01   1.35894163E-03   5.30024694E-04   3.76208325E-04   6.05892548E-05   6.52880407E-05   5.11884978E-05  
  78               2.50849098E+00   2.08085928E+03   8.37117461E-01   1.60117122E-01   1.58749249E-03   5.29971849E-04   3.76084513E-04   6.05795978E-05   6.52144779E-05   5.12445216E-05  
  79               2.66234090E+00   2.11064400E+03   8.36872093E-01   1.60095717E-01   1.85441242E-03   5.29907459E-04   3.75950187E-04   6.05683560E-05   6.51349162E-05   5.13007900E-05  
  80               2.83153831E+00   2.14185880E+03   8.36580715E-01   1.60070300E-01   2.17138007E-03   5.29828823E-04   3.75800793E-04   6.05552150E-05   6.50483780E-05   5.13578392E-05  
  81               3.01739478E+00   2.17390190E+03   8.36243143E-01   1.60040856E-01   2.53859691E-03   5.29735490E-04   3.75637812E-04   6.05400585E-05   6.49551573E-05   5.14139217E-05  
  82               3.22134573E+00   2.20722688E+03   8.35846094E-01   1.60006226E-01   2.97051160E-03   5.29623984E-04   3.75455852E-04   6.05224951E-05   6.48541669E-05   5.14693473E-05  
  83               3.44496594E+00   2.24117765E+03   8.35391187E-01   1.59966551E-01   3.46536186E-03   5.29494414E-04   3.75256959E-04   6.05024369E-05   6.47458262E-05   5.15221219E-05  
  84               3.68999772E+00   2.27624382E+03   8.34862205E-01   1.59920418E-01   4.04078857E-03   5.29342424E-04   3.75034711E-04   6.04793969E-05   6.46288966E-05   5.15723059E-05  
  85               3.95836359E+00   2.31174906E+03   8.34261384E-01   1.59867817E-01   4.69220320E-03   5.29167627E-04   3.74793814E-04   6.04531944E-05   6.45037638E-05   5.16176140E-05  
  86               4.25189928E+00   2.34820823E+03   8.33564714E-01   1.59807554E-01   5.44058030E-03   5.28968501E-04   3.81107037E-04   6.04240055E-05   6.43693192E-05   5.16953308E-05  
  87               4.57288222E+00   2.38490224E+03   8.32796294E-01   1.59740547E-01   6.27638677E-03   5.28743663E-04   3.80874289E-04   6.03909316E-05   6.42263725E-05   5.17280876E-05  
  88               4.92405221E+00   2.42245431E+03   8.31923234E-01   1.59664418E-01   7.22602773E-03   5.28487527E-04   3.80596139E-04   6.03536200E-05   6.40730998E-05   5.17528544E-05  
  89               5.30811140E+00   2.46010847E+03   8.30960116E-01   1.59580440E-01   8.27363769E-03   5.28203973E-04   3.80281046E-04   6.03123418E-05   6.39105301E-05   5.17673048E-05  
  90               5.72802881E+00   2.49852761E+03   8.29877975E-01   1.59486085E-01   9.45072023E-03   5.27884851E-04   3.79920290E-04   6.02661535E-05   6.37367993E-05   5.17702230E-05  
  91               6.18708122E+00   2.53688401E+03   8.28700504E-01   1.59383423E-01   1.07314980E-02   5.27536666E-04   3.79523569E-04   6.02155986E-05   6.35533351E-05   5.17593655E-05  
  92               6.68879492E+00   2.57592336E+03   8.27392156E-01   1.59269352E-01   1.21546358E-02   5.27149338E-04   3.79079238E-04   6.01594806E-05   6.33579653E-05   5.17327862E-05  
  93               7.23700341E+00   2.61477835E+03   8.25986428E-01   1.59146795E-01   1.36836941E-02   5.26732180E-04   3.78600401E-04   6.00986245E-05   6.31525319E-05   5.16885604E-05  
  94               7.83592341E+00   2.65425889E+03   8.24440432E-01   1.59012011E-01   1.53653200E-02   5.26272954E-04   3.78072379E-04   6.00315204E-05   6.29345420E-05   5.16237457E-05  
  95               8.49013555E+00   2.69340807E+03   8.22802047E-01   1.58869178E-01   1.71474285E-02   5.25785075E-04   3.77513505E-04   5.99593965E-05   6.27064377E-05   5.15370886E-05  
  96               9.20456684E+00   2.73316384E+03   8.21016029E-01   1.58713477E-01   1.90901110E-02   5.25252719E-04   3.76904414E-04   5.98802206E-05   6.24651919E-05   5.14242733E-05  
  97               9.98449833E+00   2.77253831E+03   8.19142486E-01   1.58550150E-01   2.11279773E-02   5.24692795E-04   3.76268050E-04   5.97955296E-05   6.22137367E-05   5.12849420E-05  
  98               1.08355855E+01   2.81252553E+03   8.17114969E-01   1.58373404E-01   2.33333048E-02   5.24086206E-04   3.75580892E-04   5.97027030E-05   6.19486479E-05   5.11130319E-05  
  99               1.17638994E+01   2.85203972E+03   8.15011823E-01   1.58190070E-01   2.56208693E-02   5.23455057E-04   3.74872860E-04   5.96037315E-05   6.16736117E-05   5.09097610E-05  
  100              1.27759373E+01   2.89218528E+03   8.12750004E-01   1.57992907E-01   2.80809961E-02   5.22775432E-04   3.74114320E-04   5.94950656E-05   6.13845737E-05   5.06667454E-05  
  101              1.38786587E+01   2.93180942E+03   8.10425382E-01   1.57790275E-01   3.06093987E-02   5.22074427E-04   3.73342017E-04   5.93790567E-05   6.10859036E-05   5.03872763E-05  
