# ATMO chemical composition profiles
# Chemical abundances given as mole fraction for the 8 most abundant species
# Model Level      Pressure [Ba]    Temperature [K]  H2               He               H2O              H                CO               CH4              N2               H2S             
  1                1.00000000E-05   2.32838319E+02   8.38304630E-01   1.60508002E-01   5.98088266E-04   1.40843395E-44   1.40884198E-04   3.57922534E-04   5.81579258E-05   2.29887021E-05  
  2                5.35272243E-04   2.65513899E+02   8.38304622E-01   1.60508009E-01   5.98088342E-04   1.96560122E-39   1.40884215E-04   3.57922580E-04   5.81579338E-05   2.29887032E-05  
  3                1.12291023E-03   2.84582156E+02   8.38304624E-01   1.60508007E-01   5.98088517E-04   1.00913970E-36   1.40884257E-04   3.57922685E-04   5.81579549E-05   2.29887028E-05  
  4                1.79528887E-03   2.97468261E+02   8.38304627E-01   1.60508004E-01   5.98088629E-04   4.31377738E-35   1.40884283E-04   3.57922751E-04   5.81579684E-05   2.29887023E-05  
  5                2.57181108E-03   3.08235927E+02   8.38304632E-01   1.60507998E-01   5.98088712E-04   7.83590826E-34   1.40884302E-04   3.57922801E-04   5.81579785E-05   2.29887016E-05  
  6                3.47215442E-03   3.17471209E+02   8.38304638E-01   1.60507992E-01   5.98088778E-04   8.01539934E-33   1.40884317E-04   3.57922840E-04   5.81579867E-05   2.29887006E-05  
  7                4.51818337E-03   3.26434165E+02   8.38304648E-01   1.60507981E-01   5.98088844E-04   6.79445678E-32   1.40884333E-04   3.57922880E-04   5.81579946E-05   2.29886991E-05  
  8                5.73500040E-03   3.34463791E+02   8.38304657E-01   1.60507969E-01   5.98088885E-04   4.15454059E-31   1.40884342E-04   3.57922904E-04   5.81580001E-05   2.29886973E-05  
  9                7.15173398E-03   3.42601286E+02   8.38304675E-01   1.60507951E-01   5.98088962E-04   2.39939083E-30   1.40884361E-04   3.57922950E-04   5.81580091E-05   2.29886948E-05  
  10               8.80237967E-03   3.50067157E+02   8.38304694E-01   1.60507932E-01   5.98088985E-04   1.10857358E-29   1.40884366E-04   3.57922964E-04   5.81580127E-05   2.29886920E-05  
  11               1.07268769E-02   3.57717311E+02   8.38304706E-01   1.60507902E-01   5.98088988E-04   4.99485000E-29   1.40884366E-04   3.57922966E-04   5.81580143E-05   2.29886879E-05  
  12               1.29714018E-02   3.64943288E+02   8.38304736E-01   1.60507872E-01   5.98089310E-04   1.94374583E-28   1.40884442E-04   3.57923158E-04   5.81580469E-05   2.29886835E-05  
  13               1.55894676E-02   3.72650005E+02   8.38304778E-01   1.60507830E-01   5.98089300E-04   7.85686507E-28   1.40884440E-04   3.57923152E-04   5.81580473E-05   2.29886774E-05  
  14               1.86427943E-02   3.80102732E+02   8.38304826E-01   1.60507782E-01   5.98089269E-04   2.86303699E-27   1.40884432E-04   3.57923134E-04   5.81580456E-05   2.29886706E-05  
  15               2.22024661E-02   3.88179107E+02   8.38304809E-01   1.60507695E-01   5.98089214E-04   1.10573174E-26   1.40884419E-04   3.57923101E-04   5.81580416E-05   2.29886581E-05  
  16               2.63502467E-02   3.96116365E+02   8.38304900E-01   1.60507605E-01   5.98088987E-04   3.94252998E-26   1.40884366E-04   3.57922965E-04   5.81580209E-05   2.29886452E-05  
  17               3.11810173E-02   4.04699518E+02   8.38305016E-01   1.60507486E-01   5.98090623E-04   1.48122994E-25   1.40884751E-04   3.57923944E-04   5.81581814E-05   2.29886282E-05  
  18               3.68040460E-02   4.13146031E+02   8.38305153E-01   1.60507349E-01   5.98090432E-04   5.14783543E-25   1.40884706E-04   3.57923829E-04   5.81581642E-05   2.29886086E-05  
  19               4.33447142E-02   4.22308834E+02   8.38305348E-01   1.60507153E-01   5.98090175E-04   1.88837811E-24   1.40884645E-04   3.57923675E-04   5.81581406E-05   2.29885806E-05  
  20               5.09484073E-02   4.31469975E+02   8.38305047E-01   1.60506819E-01   5.98089816E-04   6.53941462E-24   1.40884561E-04   3.57923461E-04   5.81581072E-05   2.29885327E-05  
  21               5.97835180E-02   4.41469643E+02   8.38305416E-01   1.60506437E-01   5.98088522E-04   2.40376241E-23   1.40884256E-04   3.57922686E-04   5.81579829E-05   2.29884780E-05  
  22               7.00424915E-02   4.51572580E+02   8.38305712E-01   1.60506033E-01   5.98098987E-04   8.43238248E-23   1.40886721E-04   3.57928949E-04   5.81590020E-05   2.29884202E-05  
  23               8.19429158E-02   4.62692153E+02   8.38305902E-01   1.60505467E-01   5.98098487E-04   3.16636600E-22   1.40886603E-04   3.57928650E-04   5.81589550E-05   2.29883390E-05  
  24               9.57253326E-02   4.74356389E+02   8.38306368E-01   1.60504994E-01   5.98102182E-04   1.18803809E-21   1.40887473E-04   3.57930861E-04   5.81593160E-05   2.29882712E-05  
  25               1.11662599E-01   4.86854741E+02   8.38304851E-01   1.60503597E-01   5.98100729E-04   4.57899994E-21   1.40887131E-04   3.57929991E-04   5.81591764E-05   2.29880711E-05  
  26               1.30088612E-01   4.98588078E+02   8.38305983E-01   1.60502474E-01   5.98095753E-04   1.51706055E-20   1.40885958E-04   3.57927013E-04   5.81586944E-05   2.29879103E-05  
  27               1.51366606E-01   5.12105420E+02   8.38307173E-01   1.60501211E-01   5.98133551E-04   5.68101265E-20   1.40894862E-04   3.57949633E-04   5.81623718E-05   2.29877295E-05  
  28               1.75908439E-01   5.25107496E+02   8.38308367E-01   1.60500021E-01   5.98131437E-04   1.88692956E-19   1.40894364E-04   3.57948368E-04   5.81621682E-05   2.29875590E-05  
  29               2.04182618E-01   5.40070369E+02   8.38309937E-01   1.60498456E-01   5.98129136E-04   7.04879791E-19   1.40893822E-04   3.57946991E-04   5.81619465E-05   2.29873348E-05  
  30               2.36717517E-01   5.54672030E+02   8.38311389E-01   1.60497009E-01   5.98126580E-04   2.37090103E-18   1.40893219E-04   3.57945461E-04   5.81617003E-05   2.29871276E-05  
  31               2.74110293E-01   5.71309106E+02   8.38313140E-01   1.60495264E-01   5.98123630E-04   8.81702360E-18   1.40892524E-04   3.57943696E-04   5.81614158E-05   2.29868778E-05  
  32               3.17016077E-01   5.87773418E+02   8.38314708E-01   1.60493702E-01   5.98120884E-04   2.99531379E-17   1.40891877E-04   3.57942052E-04   5.81611514E-05   2.29866539E-05  
  33               3.66151839E-01   6.06509712E+02   8.38316481E-01   1.60491935E-01   5.98117909E-04   1.11849123E-16   1.40891176E-04   3.57940272E-04   5.81608649E-05   2.29864009E-05  
  34               4.22288094E-01   6.25368079E+02   8.38318034E-01   1.60490386E-01   5.98115239E-04   3.88021970E-16   1.40890547E-04   3.57938674E-04   5.81606085E-05   2.29861791E-05  
  35               4.86333096E-01   6.46734237E+02   8.38319678E-01   1.60488747E-01   5.98112505E-04   1.46365886E-15   1.40889903E-04   3.57937038E-04   5.81603461E-05   2.29859444E-05  
  36               5.59334828E-01   6.68401429E+02   8.38321068E-01   1.60487360E-01   5.98110153E-04   5.14721287E-15   1.40889349E-04   3.57935630E-04   5.81601211E-05   2.29857457E-05  
  37               6.42408714E-01   6.92615290E+02   8.38322433E-01   1.60485992E-01   5.98107936E-04   1.92074411E-14   1.40888826E-04   3.57934303E-04   5.81599097E-05   2.29855498E-05  
  38               7.36707716E-01   7.17286082E+02   8.38323541E-01   1.60484863E-01   5.98106167E-04   6.69333741E-14   1.40888409E-04   3.57933244E-04   5.81597421E-05   2.29853881E-05  
  39               8.43413344E-01   7.44649376E+02   8.38324543E-01   1.60483791E-01   5.98104780E-04   2.43613260E-13   1.40888082E-04   3.57932414E-04   5.81596121E-05   2.29852344E-05  
  40               9.63790785E-01   7.72627931E+02   8.38325231E-01   1.60482899E-01   5.98104393E-04   8.29125211E-13   1.40887991E-04   3.57932182E-04   5.81595796E-05   2.29851064E-05  
  41               1.09951728E+00   8.03381980E+02   8.38325827E-01   1.60482078E-01   5.98106658E-04   2.89685163E-12   1.40888524E-04   3.57933537E-04   5.81598053E-05   2.29849884E-05  
  42               1.25235188E+00   8.35160546E+02   8.38326456E-01   1.60481429E-01   5.98109153E-04   9.56853564E-12   1.40889112E-04   3.57935030E-04   5.81600537E-05   2.29858740E-05  
  43               1.42423323E+00   8.67541786E+02   8.38326957E-01   1.60480880E-01   5.98108442E-04   2.94906906E-11   1.40888946E-04   3.57934605E-04   5.81599905E-05   2.29960289E-05  
  44               1.61709129E+00   9.00856859E+02   8.38327333E-01   1.60480350E-01   5.98108025E-04   8.61853517E-11   1.40888858E-04   3.57934355E-04   5.81599562E-05   2.30282982E-05  
  45               1.83287894E+00   9.34738658E+02   8.38327490E-01   1.60479734E-01   5.98108456E-04   2.36751586E-10   1.40889018E-04   3.57934613E-04   5.81600045E-05   2.31263481E-05  
  46               2.07422678E+00   9.69459017E+02   8.38327012E-01   1.60478791E-01   5.98111312E-04   6.18904666E-10   1.40889976E-04   3.57936321E-04   5.81602888E-05   2.34065729E-05  
  47               2.34419958E+00   1.00488148E+03   8.38326591E-01   1.60477443E-01   5.98126384E-04   1.53807447E-09   1.40894839E-04   3.57945338E-04   5.81617615E-05   2.42882993E-05  
  48               2.64600087E+00   1.04111078E+03   8.38328655E-01   1.60475395E-01   5.98122322E-04   3.65495503E-09   1.40899492E-04   3.57942881E-04   5.81613765E-05   2.42879115E-05  
  49               2.98319852E+00   1.07731760E+03   8.38332016E-01   1.60472031E-01   5.98115622E-04   8.16779358E-09   1.40920363E-04   3.57938663E-04   5.81607572E-05   2.42872698E-05  
  50               3.35993332E+00   1.11294357E+03   8.38337061E-01   1.60466924E-01   5.98104532E-04   1.70609859E-08   1.41000314E-04   3.57930591E-04   5.81598598E-05   2.42862845E-05  
  51               3.78094040E+00   1.14879589E+03   8.38344298E-01   1.60459448E-01   5.98081579E-04   3.41134973E-08   1.41270354E-04   3.57908432E-04   5.81586528E-05   2.42848178E-05  
  52               4.25251908E+00   1.18411501E+03   8.38353428E-01   1.60449612E-01   5.98014188E-04   6.45691764E-08   1.42093671E-04   3.57824898E-04   5.81573081E-05   2.42828308E-05  
  53               4.78171106E+00   1.21968610E+03   8.38364117E-01   1.60437195E-01   5.97768566E-04   1.17994847E-07   1.44337030E-04   3.57488336E-04   5.81562028E-05   2.42802149E-05  
  54               5.37644660E+00   1.25469527E+03   8.38374851E-01   1.60423077E-01   5.96877897E-04   2.05819448E-07   1.49749635E-04   3.56238090E-04   5.81561477E-05   2.42770472E-05  
  55               6.04644727E+00   1.28995769E+03   8.38385722E-01   1.60407605E-01   5.94056155E-04   3.48774340E-07   1.60916305E-04   3.52311509E-04   5.81578120E-05   2.42732565E-05  
  56               6.80518669E+00   1.32467218E+03   8.38398736E-01   1.60392796E-01   5.86717406E-04   5.68106188E-07   1.79628870E-04   3.42461832E-04   5.81608203E-05   2.42690613E-05  
  57               7.67269492E+00   1.35974718E+03   8.38419530E-01   1.60379831E-01   5.72008483E-04   9.04188178E-07   2.04488281E-04   3.24077955E-04   5.81627128E-05   2.42643837E-05  
  58               8.67648896E+00   1.39440059E+03   8.38447879E-01   1.60370043E-01   5.50760319E-04   1.39192012E-06   2.30403641E-04   3.00226421E-04   5.81618363E-05   2.42591401E-05  
  59               9.84580001E+00   1.42970125E+03   8.38478372E-01   1.60361873E-01   5.27414383E-04   2.10717907E-06   2.54892413E-04   2.75961797E-04   5.81594148E-05   2.42480609E-05  
  60               1.12045379E+01   1.46497273E+03   8.38505137E-01   1.60354845E-01   5.06126469E-04   3.11283760E-06   2.76361238E-04   2.54458098E-04   5.81569656E-05   2.42416644E-05  
  61               1.27707915E+01   1.50141877E+03   8.38529641E-01   1.60348254E-01   4.86632545E-04   4.56293488E-06   2.96463059E-04   2.34308777E-04   5.81551670E-05   2.41947877E-05  
  62               1.45582675E+01   1.53839858E+03   8.38548664E-01   1.60341809E-01   4.68766288E-04   6.58971696E-06   3.14449614E-04   2.16273642E-04   5.81524841E-05   2.41845307E-05  
  63               1.65778795E+01   1.57717991E+03   8.38566240E-01   1.60335573E-01   4.53948428E-04   9.51825871E-06   3.32781304E-04   1.97880758E-04   5.81534436E-05   2.39236203E-05  
  64               1.88395500E+01   1.61710189E+03   8.38569447E-01   1.60327165E-01   4.37694579E-04   1.36437983E-05   3.49302456E-04   1.81287395E-04   5.81474688E-05   2.39029996E-05  
  65               2.13226422E+01   1.65945975E+03   8.38573134E-01   1.60319897E-01   4.35501208E-04   1.96744511E-05   3.69977519E-04   1.60531655E-04   5.81612361E-05   2.26673008E-05  
  66               2.39960304E+01   1.70361948E+03   8.38583968E-01   1.60313458E-01   4.20087691E-04   2.83349112E-05   3.86677632E-04   1.43742964E-04   5.81446849E-05   2.26143118E-05  
  67               2.68174737E+01   1.75087371E+03   8.38583137E-01   1.60305177E-01   4.06974121E-04   4.12117599E-05   4.04528895E-04   1.25783700E-04   5.81231456E-05   2.24849998E-05  
  68               2.96897145E+01   1.80134555E+03   8.38559548E-01   1.60294053E-01   4.03022184E-04   6.05095817E-05   4.24601033E-04   1.05589588E-04   5.81077392E-05   2.21411660E-05  
  69               3.24823273E+01   1.84155721E+03   8.38499529E-01   1.60281498E-01   4.16390028E-04   8.04438658E-05   4.39177245E-04   9.09120566E-05   5.80755116E-05   2.16592262E-05  
  70               3.49702699E+01   1.88021310E+03   8.38419617E-01   1.60269044E-01   4.51135554E-04   1.05059284E-04   4.55597997E-04   7.44206437E-05   5.80723119E-05   2.09612946E-05  
  71               3.70663927E+01   1.90609607E+03   8.38407692E-01   1.60266130E-01   4.46786242E-04   1.24227778E-04   4.59933772E-04   7.00203301E-05   5.80323191E-05   2.09524920E-05  
  72               3.93886296E+01   1.93915375E+03   8.38388750E-01   1.60261775E-01   4.40555615E-04   1.53767163E-04   4.66146009E-04   6.37248628E-05   5.80079805E-05   2.09311284E-05  
  73               4.19513031E+01   1.96808974E+03   8.38355168E-01   1.60256006E-01   4.36712454E-04   1.83206545E-04   4.69951800E-04   5.98295230E-05   5.79578196E-05   2.09180787E-05  
  74               4.40098312E+01   1.99524572E+03   8.38330506E-01   1.60252054E-01   4.32529270E-04   2.16002364E-04   4.74117773E-04   5.55874195E-05   5.79359890E-05   2.08973266E-05  
  75               4.55594419E+01   2.01022237E+03   8.38314768E-01   1.60250095E-01   4.31133188E-04   2.35065736E-04   4.75494906E-04   5.41613128E-05   5.79009743E-05   2.08907707E-05  
  76               4.73147033E+01   2.03251195E+03   8.38288759E-01   1.60246508E-01   4.28091515E-04   2.67695684E-04   4.78527259E-04   5.10618413E-05   5.78815086E-05   2.08710589E-05  
  77               4.92949168E+01   2.05103583E+03   8.38264630E-01   1.60243753E-01   4.26540068E-04   2.96089022E-04   4.80052579E-04   4.94711010E-05   5.78382615E-05   2.08600494E-05  
  78               5.15199469E+01   2.07688037E+03   8.38226419E-01   1.60239146E-01   4.23600910E-04   3.41817302E-04   4.82990567E-04   4.64473867E-05   5.78096100E-05   2.08346966E-05  
  79               5.40092020E+01   2.09902059E+03   8.38160199E-01   1.60229599E-01   4.21988473E-04   3.83521061E-04   4.84535540E-04   4.47975227E-05   5.77540532E-05   2.08167082E-05  
  80               5.58890488E+01   2.11990397E+03   8.38121395E-01   1.60225347E-01   4.19914582E-04   4.28615099E-04   4.86620465E-04   4.26373193E-05   5.77305417E-05   2.07924136E-05  
  81               5.72766756E+01   2.13032437E+03   8.38101409E-01   1.60223427E-01   4.19460114E-04   4.50954872E-04   4.87056308E-04   4.21547680E-05   5.76963990E-05   2.07845945E-05  
  82               5.88717121E+01   2.14773316E+03   8.38064378E-01   1.60219496E-01   4.17815655E-04   4.93565942E-04   4.88671577E-04   4.04732420E-05   5.76765848E-05   2.07616961E-05  
  83               6.06993423E+01   2.16155685E+03   8.38034121E-01   1.60216610E-01   4.17188031E-04   5.27313946E-04   4.89273240E-04   3.98070529E-05   5.76344560E-05   2.07486135E-05  
  84               6.27869056E+01   2.18249245E+03   8.37982930E-01   1.60211429E-01   4.15492086E-04   5.85385372E-04   4.90930441E-04   3.80629078E-05   5.76048492E-05   2.07190249E-05  
  85               6.51634173E+01   2.20012239E+03   8.37937940E-01   1.60207207E-01   4.14733700E-04   6.35330680E-04   4.91653315E-04   3.72522461E-05   5.75523534E-05   2.06987364E-05  
  86               6.78603069E+01   2.22486346E+03   8.37866914E-01   1.60200310E-01   4.13053628E-04   7.14934438E-04   4.93282588E-04   3.55091510E-05   5.75102428E-05   2.06602019E-05  
  87               7.09106379E+01   2.24657546E+03   8.37801015E-01   1.60194243E-01   4.12225902E-04   7.87702650E-04   4.94062730E-04   3.46110613E-05   5.74448776E-05   2.06302559E-05  
  88               7.43504514E+01   2.27522222E+03   8.37702664E-01   1.60185014E-01   4.10641152E-04   8.96866056E-04   4.95582010E-04   3.29433111E-05   5.73871684E-05   2.05801447E-05  
  89               7.82175103E+01   2.30114265E+03   8.37605540E-01   1.60176026E-01   4.09813500E-04   1.00141756E-03   4.96345181E-04   3.20220161E-05   5.73059297E-05   2.05375838E-05  
  90               8.25528541E+01   2.33360777E+03   8.37462793E-01   1.60163415E-01   4.13920934E-04   1.15040010E-03   4.98083108E-04   3.01173334E-05   5.72350266E-05   2.05014671E-05  
  91               8.74004795E+01   2.36371423E+03   8.37327373E-01   1.60151338E-01   4.13277491E-04   1.29848962E-03   4.98761108E-04   2.92352856E-05   5.71354727E-05   2.04433657E-05  
  92               9.28103509E+01   2.39973978E+03   8.37143537E-01   1.60134863E-01   4.12234731E-04   1.49981465E-03   4.99826354E-04   2.79241406E-05   5.70363069E-05   2.03620780E-05  
  93               9.88345766E+01   2.43392579E+03   8.36954029E-01   1.60118134E-01   4.11706423E-04   1.70654006E-03   5.00357303E-04   2.71256685E-05   5.69142109E-05   2.02848373E-05  
  94               1.05533485E+02   2.47312259E+03   8.36708403E-01   1.60096408E-01   4.10937102E-04   1.97464181E-03   5.01108484E-04   2.60577800E-05   5.67876313E-05   2.01845683E-05  
  95               1.12969552E+02   2.51120877E+03   8.36447718E-01   1.60073556E-01   4.10566296E-04   2.25852174E-03   5.01444266E-04   2.53731097E-05   5.66387448E-05   2.00853808E-05  
  96               1.21220955E+02   2.55305524E+03   8.36126467E-01   1.60045393E-01   4.10116199E-04   2.60837331E-03   5.01836640E-04   2.45749231E-05   5.64794164E-05   1.99658739E-05  
  97               1.30372903E+02   2.59489061E+03   8.35774058E-01   1.60014644E-01   4.09943612E-04   2.99168791E-03   5.01937868E-04   2.40202091E-05   5.62984244E-05   1.98426561E-05  
  98               1.40529102E+02   2.63878700E+03   8.35364726E-01   1.59978979E-01   4.09868062E-04   3.43675179E-03   5.01926024E-04   2.35143122E-05   5.60994253E-05   1.97058903E-05  
  99               1.51803707E+02   2.68374558E+03   8.34904142E-01   1.59938933E-01   4.09981926E-04   3.93725937E-03   5.01715225E-04   2.31396820E-05   5.58781707E-05   1.95605269E-05  
  100              1.64328089E+02   2.73075184E+03   8.34373000E-01   1.59892793E-01   4.10219950E-04   4.51430047E-03   5.01370919E-04   2.28157538E-05   5.56349138E-05   1.94013461E-05  
  101              1.78253968E+02   2.77877298E+03   8.33779636E-01   1.59841323E-01   4.10675053E-04   5.15867555E-03   5.00809678E-04   2.26211914E-05   5.53649290E-05   1.92343506E-05  
