# ATMO chemical composition profiles
# Chemical abundances given as mole fraction for the 8 most abundant species
# Model Level      Pressure [Ba]    Temperature [K]  H2               He               H                CO               H2O              N2               CH4              Mg              
  1                1.00000000E-05   4.88364431E+02   8.38547453E-01   1.60519317E-01   5.72158198E-19   4.94197328E-04   2.92608147E-04   6.01715196E-05   5.36777832E-05   0.00000000E+00  
  2                1.82240929E-05   5.19200398E+02   8.38548081E-01   1.60518725E-01   1.04694519E-17   4.94196520E-04   2.92607669E-04   6.01714212E-05   5.36776955E-05   0.00000000E+00  
  3                2.82424292E-05   5.31003272E+02   8.38548233E-01   1.60518565E-01   2.60239018E-17   4.94196429E-04   2.92607614E-04   6.01714099E-05   5.36776856E-05   0.00000000E+00  
  4                4.06219982E-05   5.44260785E+02   8.38548710E-01   1.60518091E-01   7.28269498E-17   4.94195852E-04   2.92607273E-04   6.01713393E-05   5.36776229E-05   0.00000000E+00  
  5                5.59577687E-05   5.52856914E+02   8.38548825E-01   1.60517966E-01   1.31924223E-16   4.94195931E-04   2.92607320E-04   6.01713484E-05   5.36776315E-05   0.00000000E+00  
  6                7.49810131E-05   5.64451166E+02   8.38549474E-01   1.60517320E-01   3.04039230E-16   4.94195212E-04   2.92606894E-04   6.01712601E-05   5.36775534E-05   0.00000000E+00  
  7                9.85905356E-05   5.72278534E+02   8.38549613E-01   1.60517150E-01   5.02918135E-16   4.94195458E-04   2.92607040E-04   6.01712891E-05   5.36775802E-05   0.00000000E+00  
  8                1.27906152E-04   5.83202568E+02   8.38550476E-01   1.60516291E-01   1.04854853E-15   4.94194612E-04   2.92606539E-04   6.01711845E-05   5.36774883E-05   0.00000000E+00  
  9                1.64310236E-04   5.90741384E+02   8.38550680E-01   1.60516081E-01   1.64962497E-15   4.94194946E-04   2.92606737E-04   6.01712234E-05   5.36775247E-05   0.00000000E+00  
  10               2.09523248E-04   6.01369948E+02   8.38551729E-01   1.60514970E-01   3.22195793E-15   4.94194599E-04   2.92606531E-04   6.01711786E-05   5.36774870E-05   0.00000000E+00  
  11               2.65670460E-04   6.08835450E+02   8.38551972E-01   1.60514722E-01   4.90614493E-15   4.94195180E-04   2.92606875E-04   6.01712462E-05   5.36775502E-05   0.00000000E+00  
  12               3.35390513E-04   6.19409875E+02   8.38553348E-01   1.60513348E-01   9.16754713E-15   4.94194494E-04   2.92606469E-04   6.01711587E-05   5.36774758E-05   0.00000000E+00  
  13               4.21953047E-04   6.26944332E+02   8.38553450E-01   1.60513028E-01   1.36564313E-14   4.94195419E-04   2.92607017E-04   6.01712664E-05   5.36775763E-05   0.00000000E+00  
  14               5.29447750E-04   6.37604437E+02   8.38555120E-01   1.60511355E-01   2.46923067E-14   4.94197224E-04   2.92608085E-04   6.01714799E-05   5.36777724E-05   0.00000000E+00  
  15               6.62941071E-04   6.45265124E+02   8.38555411E-01   1.60511055E-01   3.61243729E-14   4.94198780E-04   2.92609007E-04   6.01716621E-05   5.36779417E-05   0.00000000E+00  
  16               8.28723434E-04   6.56061912E+02   8.38557364E-01   1.60509102E-01   6.34771936E-14   4.94199175E-04   2.92609240E-04   6.01717013E-05   5.36779847E-05   0.00000000E+00  
  17               1.03458573E-03   6.63835619E+02   8.38557419E-01   1.60508815E-01   9.11488053E-14   4.94201580E-04   2.92610665E-04   6.01719838E-05   5.36782461E-05   0.00000000E+00  
  18               1.29019215E-03   6.74739935E+02   8.38559565E-01   1.60506668E-01   1.55561375E-13   4.94201349E-04   2.92610528E-04   6.01719436E-05   5.36782214E-05   0.00000000E+00  
  19               1.60749725E-03   6.82599343E+02   8.38559674E-01   1.60506546E-01   2.19047086E-13   4.94204676E-04   2.92612498E-04   6.01723348E-05   5.36785830E-05   0.00000000E+00  
  20               2.00129744E-03   6.93680090E+02   8.38561958E-01   1.60504255E-01   3.65042021E-13   4.94207458E-04   2.92614146E-04   6.01726578E-05   5.36788857E-05   0.00000000E+00  
  21               2.48985461E-03   7.01722773E+02   8.38561945E-01   1.60504252E-01   5.07178947E-13   4.94211895E-04   2.92616773E-04   6.01731804E-05   5.36793680E-05   0.00000000E+00  
  22               3.09573773E-03   7.13011832E+02   8.38564310E-01   1.60501882E-01   8.27441683E-13   4.94212900E-04   2.92617369E-04   6.01732833E-05   5.36794777E-05   0.00000000E+00  
  23               3.84678361E-03   7.21259866E+02   8.38564149E-01   1.60502023E-01   1.13591433E-12   4.94218361E-04   2.92620603E-04   6.01739270E-05   5.36800715E-05   0.00000000E+00  
  24               4.77738278E-03   7.32731912E+02   8.38566483E-01   1.60499680E-01   1.81322020E-12   4.94220102E-04   2.92621634E-04   6.01741159E-05   5.36802613E-05   0.00000000E+00  
  25               5.92997270E-03   7.41020886E+02   8.38566006E-01   1.60500133E-01   2.44056862E-12   4.94226676E-04   2.92625528E-04   6.01748919E-05   5.36809761E-05   0.00000000E+00  
  26               7.35696925E-03   7.52568360E+02   8.38568117E-01   1.60498005E-01   3.79681274E-12   4.94229278E-04   2.92627070E-04   6.01751827E-05   5.36812596E-05   0.00000000E+00  
  27               9.12313345E-03   7.60880972E+02   8.38567289E-01   1.60498802E-01   5.01331717E-12   4.94236873E-04   2.92631568E-04   6.01760802E-05   5.36820855E-05   0.00000000E+00  
  28               1.13092616E-02   7.72484589E+02   8.38569068E-01   1.60496996E-01   7.60729345E-12   4.94240329E-04   2.92633616E-04   6.01764727E-05   5.36824618E-05   0.00000000E+00  
  29               1.40151237E-02   7.80916772E+02   8.38567969E-01   1.60498055E-01   9.90717622E-12   4.94248617E-04   2.92638525E-04   6.01774526E-05   5.36833631E-05   0.00000000E+00  
  30               1.73635247E-02   7.92964410E+02   8.38569679E-01   1.60496299E-01   1.49279776E-11   4.94252491E-04   2.92640820E-04   6.01778943E-05   5.36837849E-05   0.00000000E+00  
  31               2.15053100E-02   8.01834585E+02   8.38568557E-01   1.60497363E-01   1.94367016E-11   4.94261011E-04   2.92645867E-04   6.01789010E-05   5.36847114E-05   0.00000000E+00  
  32               2.66252300E-02   8.14549535E+02   8.38570336E-01   1.60495502E-01   2.93149145E-11   4.94265040E-04   2.92648254E-04   6.01793604E-05   5.36851502E-05   0.00000000E+00  
  33               3.29492194E-02   8.24319761E+02   8.38569512E-01   1.60496227E-01   3.88078379E-11   4.94273219E-04   2.92653099E-04   6.01803247E-05   5.36860397E-05   0.00000000E+00  
  34               4.07517203E-02   8.38239121E+02   8.38571750E-01   1.60493824E-01   5.96445238E-11   4.94277097E-04   2.92655397E-04   6.01807647E-05   5.36864620E-05   0.00000000E+00  
  35               5.03647932E-02   8.49253528E+02   8.38571391E-01   1.60493975E-01   8.09930214E-11   4.94284526E-04   2.92659798E-04   6.01816369E-05   5.36872701E-05   0.00000000E+00  
  36               6.21896213E-02   8.64820866E+02   8.38574383E-01   1.60490597E-01   1.28165814E-10   4.94288568E-04   2.92662193E-04   6.01820963E-05   5.36877103E-05   0.00000000E+00  
  37               7.67066110E-02   8.77773959E+02   8.38575126E-01   1.60489613E-01   1.81810678E-10   4.94294334E-04   2.92665610E-04   6.01827651E-05   5.36883378E-05   0.00000000E+00  
  38               9.44839726E-02   8.95606909E+02   8.38579140E-01   1.60484405E-01   2.99842639E-10   4.94300626E-04   2.92669337E-04   6.01834973E-05   5.36890224E-05   0.00000000E+00  
  39               1.16190825E-01   9.11049321E+02   8.38580561E-01   1.60481538E-01   4.47839340E-10   4.94303818E-04   2.92671230E-04   6.01838514E-05   5.36893702E-05   0.00000000E+00  
  40               1.42618839E-01   9.31755064E+02   8.38588392E-01   1.60473721E-01   7.74779087E-10   4.94306935E-04   2.92673077E-04   6.01841955E-05   5.36897098E-05   0.00000000E+00  
  41               1.74714334E-01   9.50340344E+02   8.38594054E-01   1.60468084E-01   1.22563777E-09   4.94306320E-04   2.92672714E-04   6.01840841E-05   5.36896437E-05   0.00000000E+00  
  42               2.13590116E-01   9.74605202E+02   8.38606036E-01   1.60456154E-01   2.23119769E-09   4.94294410E-04   2.92665660E-04   6.01825957E-05   5.36883492E-05   0.00000000E+00  
  43               2.60537700E-01   9.97277986E+02   8.38616155E-01   1.60446072E-01   3.76760588E-09   4.94287485E-04   2.92661545E-04   6.01817110E-05   5.36875893E-05   0.00000000E+00  
  44               3.17030337E-01   1.02615506E+03   8.38633651E-01   1.60428640E-01   7.26251628E-09   4.94267335E-04   2.92649551E-04   6.01792073E-05   5.36853642E-05   1.59306920E-15  
  45               3.84680516E-01   1.05389113E+03   8.38649085E-01   1.60413249E-01   1.30944734E-08   4.94252991E-04   2.92640791E-04   6.01773815E-05   5.36836280E-05   7.01429786E-15  
  46               4.65264678E-01   1.08809392E+03   8.38671086E-01   1.60391307E-01   2.64616660E-08   4.94227234E-04   2.92624491E-04   6.01740665E-05   5.36800301E-05   4.14441691E-14  
  47               5.60769949E-01   1.12145192E+03   8.38689739E-01   1.60372679E-01   5.01446569E-08   4.94211932E-04   2.92611123E-04   6.01716607E-05   5.36744716E-05   2.08111318E-13  
  48               6.73418002E-01   1.16137980E+03   8.38711955E-01   1.60350471E-01   1.04128889E-07   4.94199291E-04   2.92587104E-04   6.01683501E-05   5.36556997E-05   1.31991961E-12  
  49               8.05862200E-01   1.20075966E+03   8.38729455E-01   1.60332952E-01   2.03155772E-07   4.94229208E-04   2.92541964E-04   6.01661300E-05   5.35798333E-05   7.09855020E-12  
  50               9.61120556E-01   1.24675070E+03   8.38747337E-01   1.60315134E-01   4.24736453E-07   4.94358296E-04   2.92400201E-04   6.01636182E-05   5.32718815E-05   4.50833690E-11  
  51               1.14294527E+00   1.29196468E+03   8.38760639E-01   1.60302549E-01   8.28795920E-07   4.94773070E-04   2.91952890E-04   6.01619133E-05   5.21118988E-05   2.37179041E-10  
  52               1.35637030E+00   1.34291401E+03   8.38773987E-01   1.60291919E-01   1.67777215E-06   4.95846134E-04   2.90693422E-04   6.01596314E-05   4.85585983E-05   1.34503439E-09  
  53               1.60845598E+00   1.39188519E+03   8.38785894E-01   1.60285914E-01   3.12237226E-06   4.98148382E-04   2.87910550E-04   6.01572167E-05   4.10640955E-05   6.09582359E-09  
  54               1.90917654E+00   1.44508854E+03   8.38796372E-01   1.60281632E-01   5.85223271E-06   5.02214772E-04   2.83323786E-04   6.01551549E-05   3.10109613E-05   2.76454179E-08  
  55               2.26609834E+00   1.49581205E+03   8.38795314E-01   1.60278017E-01   1.01267051E-05   5.07422763E-04   2.79198702E-04   6.01557688E-05   2.36630142E-05   1.01904026E-07  
  56               2.67596868E+00   1.55044263E+03   8.38779279E-01   1.60273317E-01   1.76231018E-05   5.13080864E-04   2.79793717E-04   6.01827806E-05   1.74770429E-05   3.70298218E-07  
  57               3.13310017E+00   1.60248142E+03   8.38757135E-01   1.60270385E-01   2.87171971E-05   5.17463731E-04   2.90042674E-04   6.01842434E-05   1.30835977E-05   1.20024837E-06  
  58               3.62425913E+00   1.65800793E+03   8.38724084E-01   1.60265449E-01   4.70473777E-05   5.20765528E-04   2.95315629E-04   6.01949421E-05   9.78602188E-06   6.33350528E-06  
  59               4.09815377E+00   1.71315366E+03   8.38638195E-01   1.60255323E-01   7.49239153E-05   5.23682500E-04   3.20634626E-04   6.02243519E-05   6.81733123E-06   2.43503898E-05  
  60               4.52802374E+00   1.75904130E+03   8.38513696E-01   1.60245515E-01   1.07783406E-04   5.25843409E-04   3.81002004E-04   6.02937851E-05   4.62393508E-06   6.51427493E-05  
  61               4.91511977E+00   1.79727328E+03   8.38472136E-01   1.60240618E-01   1.43708631E-04   5.26521355E-04   3.80769570E-04   6.02873636E-05   3.92950021E-06   6.50227687E-05  
  62               5.27311757E+00   1.83067131E+03   8.38436749E-01   1.60237324E-01   1.82857926E-04   5.27001174E-04   3.80224554E-04   6.02944823E-05   3.43705281E-06   6.49147857E-05  
  63               5.58435998E+00   1.85804678E+03   8.38401931E-01   1.60234148E-01   2.21192591E-04   5.27321675E-04   3.79839789E-04   6.02857912E-05   3.10051938E-06   6.48229900E-05  
  64               5.95043190E+00   1.88890000E+03   8.38322726E-01   1.60223708E-01   2.72210241E-04   5.27603510E-04   3.79444701E-04   6.02683782E-05   2.77494826E-06   6.47142169E-05  
  65               6.22834654E+00   1.91107410E+03   8.38283999E-01   1.60220256E-01   3.14528235E-04   5.27795633E-04   3.79216087E-04   6.03032538E-05   2.57430051E-06   6.46353046E-05  
  66               6.42993737E+00   1.92688902E+03   8.38253413E-01   1.60217536E-01   3.47982924E-04   5.27911280E-04   3.79052026E-04   6.02927573E-05   2.44260668E-06   6.45783887E-05  
  67               6.67326848E+00   1.94516416E+03   8.38214825E-01   1.60214116E-01   3.90120431E-04   5.28032799E-04   3.78887586E-04   6.02836045E-05   2.30568823E-06   6.45108657E-05  
  68               6.96469283E+00   1.96661200E+03   8.38164580E-01   1.60209675E-01   4.44932869E-04   5.28160855E-04   3.78711108E-04   6.02753346E-05   2.15785937E-06   6.44306189E-05  
  69               7.31093413E+00   1.99086061E+03   8.38101046E-01   1.60204076E-01   5.14170916E-04   5.28283293E-04   3.78538800E-04   6.02668699E-05   2.01075469E-06   6.43371369E-05  
  70               7.71870237E+00   2.01848035E+03   8.38018939E-01   1.60196859E-01   6.03603898E-04   5.28401855E-04   3.78367548E-04   6.02571883E-05   1.86085626E-06   6.42284842E-05  
  71               8.19703218E+00   2.04906506E+03   8.37915123E-01   1.60187754E-01   7.16709725E-04   5.28505356E-04   3.78158011E-04   6.02452629E-05   1.71822475E-06   6.41039364E-05  
  72               8.75742092E+00   2.08328415E+03   8.37780741E-01   1.60175986E-01   8.63055881E-04   5.28594735E-04   3.77940240E-04   6.02307067E-05   1.57905145E-06   6.39607046E-05  
  73               9.41020889E+00   2.12055931E+03   8.37610482E-01   1.60161096E-01   1.04840612E-03   5.28660037E-04   3.77722352E-04   6.02127507E-05   1.45145669E-06   6.37983273E-05  
  74               1.01667100E+01   2.16129583E+03   8.37392179E-01   1.60142023E-01   1.28599977E-03   5.28700284E-04   3.77498020E-04   6.01910284E-05   1.33255314E-06   6.36146363E-05  
  75               1.10393796E+01   2.20483278E+03   8.37117968E-01   1.60118084E-01   1.58438094E-03   5.28707519E-04   3.77272076E-04   6.01646517E-05   1.22762770E-06   6.34093048E-05  
  76               1.20420675E+01   2.25147438E+03   8.36771214E-01   1.60087827E-01   1.96164851E-03   5.28679615E-04   3.77037049E-04   6.01330515E-05   1.13354489E-06   6.31802304E-05  
  77               1.31902792E+01   2.30046694E+03   8.36340330E-01   1.60050038E-01   2.42824488E-03   5.28608659E-04   3.76795016E-04   6.00950609E-05   1.05365700E-06   6.29271471E-05  
  78               1.45008490E+01   2.35206476E+03   8.35799757E-01   1.60003419E-01   3.00703935E-03   5.28513676E-04   3.82907198E-04   6.00517750E-05   9.68232226E-07   6.26482729E-05  
  79               1.59935755E+01   2.40552350E+03   8.35154027E-01   1.59947125E-01   3.70928228E-03   5.28348188E-04   3.82762588E-04   5.99989594E-05   9.12549705E-07   6.23435610E-05  
  80               1.76914770E+01   2.46112301E+03   8.34369790E-01   1.59878763E-01   4.56218260E-03   5.28127157E-04   3.82570931E-04   5.99369424E-05   8.66463459E-07   6.20106769E-05  
  81               1.96200419E+01   2.51815776E+03   8.33437979E-01   1.59797546E-01   5.57559114E-03   5.27845850E-04   3.82337099E-04   5.98645331E-05   8.31126909E-07   6.16497058E-05  
  82               2.18086288E+01   2.57692936E+03   8.32330910E-01   1.59701061E-01   6.77960889E-03   5.27497733E-04   3.82058079E-04   5.97803701E-05   8.03933579E-07   6.12583903E-05  
  83               2.42907082E+01   2.63669868E+03   8.31045973E-01   1.59589083E-01   8.17705833E-03   5.27079478E-04   3.81742666E-04   5.96831893E-05   7.86123067E-07   6.08371852E-05  
  84               2.71043479E+01   2.69788780E+03   8.29552418E-01   1.59458931E-01   9.80137249E-03   5.26582999E-04   3.81388165E-04   5.95712163E-05   7.75301901E-07   6.03836346E-05  
  85               3.02924870E+01   2.75975858E+03   8.27856846E-01   1.59311186E-01   1.16453512E-02   5.26007008E-04   3.81007858E-04   5.94430365E-05   7.72826936E-07   5.98986852E-05  
  86               3.39030803E+01   2.82268319E+03   8.25932024E-01   1.59143474E-01   1.37385991E-02   5.25343190E-04   3.80602323E-04   5.92962933E-05   7.76955073E-07   5.93803442E-05  
  87               3.79891152E+01   2.88612115E+03   8.23788744E-01   1.58956739E-01   1.60693515E-02   5.24591213E-04   3.80187354E-04   5.91289304E-05   7.88641511E-07   5.88296978E-05  
  88               4.26091121E+01   2.95039105E+03   8.21404131E-01   1.58748990E-01   1.86624667E-02   5.23742738E-04   3.79766952E-04   5.89373244E-05   8.06674894E-07   5.82453998E-05  
  89               4.78272554E+01   3.01492991E+03   8.18802438E-01   1.58522344E-01   2.14915363E-02   5.22800222E-04   3.79361909E-04   5.87179756E-05   8.32271175E-07   5.76294153E-05  
  90               5.37107528E+01   3.08008637E+03   8.15962245E-01   1.58274935E-01   2.45798320E-02   5.21754778E-04   3.78976350E-04   5.84644418E-05   8.64320521E-07   5.69810660E-05  
  91               6.03248493E+01   3.14510750E+03   8.12932147E-01   1.58011003E-01   2.78744700E-02   5.20614859E-04   3.78635446E-04   5.81705264E-05   9.04431146E-07   5.63045365E-05  
  92               6.77387601E+01   3.21048602E+03   8.09683849E-01   1.57728081E-01   3.14062003E-02   5.19369156E-04   3.78336051E-04   5.78239567E-05   9.51150447E-07   5.55995964E-05  
  93               7.60265431E+01   3.27547678E+03   8.06280436E-01   1.57431670E-01   3.51063807E-02   5.18029020E-04   3.78100905E-04   5.74122043E-05   1.00638976E-06   5.48710429E-05  
  94               8.52699430E+01   3.34065844E+03   8.02687528E-01   1.57118771E-01   3.90123774E-02   5.16580061E-04   3.77917122E-04   5.69120141E-05   1.06876869E-06   5.41183570E-05  
  95               9.55597377E+01   3.40539374E+03   7.98972186E-01   1.56795229E-01   4.30512262E-02   5.15033173E-04   3.77800106E-04   5.62991133E-05   1.14039397E-06   5.33459723E-05  
  96               1.06997717E+02   3.47036400E+03   7.95087737E-01   1.56456971E-01   4.72736546E-02   5.13368715E-04   3.77724111E-04   5.55310429E-05   1.21988371E-06   5.25526504E-05  
  97               1.19698947E+02   3.53491901E+03   7.91111708E-01   1.56110751E-01   5.15953102E-02   5.11598240E-04   3.77700896E-04   5.45660853E-05   1.30991643E-06   5.17427103E-05  
  98               1.33793095E+02   3.59986109E+03   7.86980092E-01   1.55750983E-01   5.60857526E-02   5.09695120E-04   3.77691293E-04   5.33319169E-05   1.40897561E-06   5.09140350E-05  
  99               1.49424961E+02   3.66447637E+03   7.82784174E-01   1.55385617E-01   6.06456523E-02   5.07672208E-04   3.77709026E-04   5.17665071E-05   1.52047234E-06   5.00711004E-05  
  100              1.66759642E+02   3.72964742E+03   7.78444612E-01   1.55007724E-01   6.53612186E-02   5.05496284E-04   3.77704691E-04   4.97613233E-05   1.64278347E-06   4.92111756E-05  
  101              1.85985501E+02   3.79468435E+03   7.74057047E-01   1.54625634E-01   7.01283695E-02   5.03178598E-04   3.77697344E-04   4.72427541E-05   1.77993431E-06   4.83383606E-05  
