# ATMO chemical composition profiles
# Chemical abundances given as mole fraction for the 8 most abundant species
# Model Level      Pressure [Ba]    Temperature [K]  H2               He               H2O              CH4              NH3              H                N2               H2S             
  1                1.00000000E-05   4.03640389E+01   8.38098983E-01   1.60468646E-01   7.79500144E-04   5.30352394E-04   6.90633409E-05   3.16306269E-109  2.61702320E-05   2.29807696E-05  
  2                6.79074622E-05   5.18273712E+01   8.38098983E-01   1.60468646E-01   7.79500143E-04   5.30352394E-04   6.90633409E-05   1.21380535E-109  2.61702320E-05   2.29807696E-05  
  3                1.39198711E-04   5.58696736E+01   8.38098983E-01   1.60468646E-01   7.79500143E-04   5.30352393E-04   6.90633409E-05   8.47793714E-110  2.61702320E-05   2.29807696E-05  
  4                2.26962435E-04   5.93817655E+01   8.38098983E-01   1.60468646E-01   7.79500142E-04   5.30352393E-04   6.90633410E-05   6.63943018E-110  2.61702320E-05   2.29807696E-05  
  5                3.34988296E-04   6.29062482E+01   8.38098983E-01   1.60468646E-01   7.79500142E-04   5.30352392E-04   6.90633410E-05   5.46503543E-110  2.61702320E-05   2.29807696E-05  
  6                4.67918350E-04   6.58732920E+01   8.38098983E-01   1.60468646E-01   7.79500141E-04   5.30352392E-04   6.90633410E-05   4.62405254E-110  2.61702320E-05   2.29807696E-05  
  7                6.31456240E-04   6.88395800E+01   8.38098983E-01   1.60468646E-01   7.79500140E-04   5.30352391E-04   6.90633411E-05   3.98048663E-110  2.61702320E-05   2.29807696E-05  
  8                8.32562652E-04   7.15254451E+01   8.38098983E-01   1.60468646E-01   7.79500139E-04   5.30352391E-04   6.90633411E-05   3.46656491E-110  2.61702320E-05   2.29807696E-05  
  9                1.07893842E-03   7.45184692E+01   8.38098983E-01   1.60468646E-01   7.79500139E-04   5.30352390E-04   6.90633411E-05   3.04515546E-110  2.61702320E-05   2.29807696E-05  
  10               1.37905067E-03   7.74645529E+01   8.38098983E-01   1.60468646E-01   7.79500138E-04   5.30352390E-04   6.90633411E-05   2.69350438E-110  2.61702319E-05   2.29807696E-05  
  11               1.74310484E-03   8.07547989E+01   8.38098983E-01   1.60468646E-01   7.79500138E-04   5.30352390E-04   6.90633411E-05   2.39577509E-110  2.61702319E-05   2.29807696E-05  
  12               2.18371757E-03   8.39100381E+01   8.38098983E-01   1.60468646E-01   7.79500137E-04   5.30352389E-04   6.90633411E-05   2.14047207E-110  2.61702319E-05   2.29807696E-05  
  13               2.71649910E-03   8.74368981E+01   8.38098983E-01   1.60468646E-01   7.79500137E-04   5.30352389E-04   6.90633411E-05   1.91912391E-110  2.61702319E-05   2.29807696E-05  
  14               3.36146061E-03   9.08792818E+01   8.38098983E-01   1.60468646E-01   7.79500137E-04   5.30352389E-04   6.90633411E-05   1.72521722E-110  2.61702319E-05   2.29807696E-05  
  15               4.14273892E-03   9.47008333E+01   8.38098983E-01   1.60468646E-01   7.79500136E-04   5.30352389E-04   6.90633411E-05   1.55404652E-110  2.61702319E-05   2.29807696E-05  
  16               5.08930156E-03   9.84981479E+01   8.38098983E-01   1.60468646E-01   7.79500136E-04   5.30352388E-04   6.90633411E-05   1.40209909E-110  2.61702319E-05   2.29807696E-05  
  17               6.23594358E-03   1.02786890E+02   8.38098486E-01   1.60468551E-01   7.79499706E-04   5.30352096E-04   6.90633031E-05   1.47851835E-107  2.61702175E-05   2.29807560E-05  
  18               7.62525231E-03   1.07015998E+02   8.38097104E-01   1.60468287E-01   7.79500599E-04   5.30352704E-04   6.90633823E-05   2.99243720E-103  2.61702475E-05   2.29807181E-05  
  19               9.30909700E-03   1.11721410E+02   8.38093124E-01   1.60467524E-01   7.79496484E-04   5.30349904E-04   6.90630177E-05   7.69478267E-99   2.61701093E-05   2.29806089E-05  
  20               1.13498181E-02   1.16413461E+02   8.38078519E-01   1.60464728E-01   7.79507859E-04   5.30357643E-04   6.90640256E-05   8.43811274E-95   2.61704912E-05   2.29802085E-05  
  21               1.38224400E-02   1.21676361E+02   8.38025813E-01   1.60454637E-01   7.79499977E-04   5.30352281E-04   6.90633274E-05   1.22847775E-90   2.61702267E-05   2.29787633E-05  
  22               1.68180702E-02   1.26888616E+02   8.38098932E-01   1.60468637E-01   7.79533718E-04   5.30375237E-04   6.90663170E-05   7.39887890E-87   2.61713595E-05   2.29807682E-05  
  23               2.04464474E-02   1.32712210E+02   8.38098839E-01   1.60468619E-01   7.79595644E-04   5.30417370E-04   6.90718037E-05   5.53427663E-83   2.61734385E-05   2.29807657E-05  
  24               2.48403244E-02   1.38486722E+02   8.38098838E-01   1.60468619E-01   7.79595642E-04   5.30417368E-04   6.90718037E-05   1.81814077E-79   2.61734385E-05   2.29807656E-05  
  25               3.01602504E-02   1.44894265E+02   8.38098837E-01   1.60468618E-01   7.79595639E-04   5.30417367E-04   6.90718037E-05   6.84291087E-76   2.61734384E-05   2.29807656E-05  
  26               3.66001809E-02   1.51238102E+02   8.38098831E-01   1.60468617E-01   7.79595638E-04   5.30417365E-04   6.90718037E-05   1.18508489E-72   2.61734384E-05   2.29807655E-05  
  27               4.43948545E-02   1.58232016E+02   8.38098809E-01   1.60468613E-01   7.79595621E-04   5.30417354E-04   6.90718025E-05   2.21023786E-69   2.61734379E-05   2.29807648E-05  
  28               5.38290659E-02   1.65125386E+02   8.38098715E-01   1.60468595E-01   7.79595666E-04   5.30417385E-04   6.90718068E-05   1.96660578E-66   2.61734395E-05   2.29807623E-05  
  29               6.52453505E-02   1.72647615E+02   8.38098415E-01   1.60468538E-01   7.79595456E-04   5.30417242E-04   6.90717885E-05   1.75445673E-63   2.61734325E-05   2.29807540E-05  
  30               7.90559377E-02   1.80121481E+02   8.38097311E-01   1.60468326E-01   7.79596168E-04   5.30417726E-04   6.90718519E-05   8.48357015E-61   2.61734564E-05   2.29807238E-05  
  31               9.57588820E-02   1.88259354E+02   8.38094163E-01   1.60467723E-01   7.79593934E-04   5.30416207E-04   6.90716544E-05   4.07227614E-58   2.61733815E-05   2.29806374E-05  
  32               1.15947963E-01   1.96441349E+02   8.38084269E-01   1.60465829E-01   7.79601942E-04   5.30421655E-04   6.90723643E-05   1.19997772E-55   2.61736504E-05   2.29803662E-05  
  33               1.40324425E-01   2.05226056E+02   8.37966192E-01   1.60443221E-01   7.79583686E-04   5.30409234E-04   6.90707472E-05   3.24585505E-53   2.61730376E-05   2.29771285E-05  
  34               1.69744708E-01   2.13744260E+02   8.38098622E-01   1.60468577E-01   7.79739019E-04   5.30514918E-04   6.90845101E-05   4.73311959E-51   2.61782527E-05   2.29807597E-05  
  35               2.05257401E-01   2.22708816E+02   8.37596939E-01   1.60372521E-01   7.79652879E-04   5.30456311E-04   6.90768787E-05   5.92450451E-49   2.61753608E-05   2.29670035E-05  
  36               2.48117504E-01   2.31340950E+02   8.38098647E-01   1.60468582E-01   7.79722510E-04   5.30503686E-04   6.90830485E-05   4.31933349E-47   2.61776986E-05   2.29807604E-05  
  37               2.99886389E-01   2.40318169E+02   8.38097915E-01   1.60468442E-01   7.80206464E-04   5.30832957E-04   6.91259272E-05   2.68757407E-45   2.61939465E-05   2.29807403E-05  
  38               3.62477338E-01   2.49021967E+02   8.38097909E-01   1.60468441E-01   7.80210285E-04   5.30835556E-04   6.91262663E-05   1.10033013E-43   2.61940749E-05   2.29807402E-05  
  39               4.38188728E-01   2.58219483E+02   8.38097909E-01   1.60468441E-01   7.80210276E-04   5.30835550E-04   6.91262661E-05   4.23412977E-42   2.61940747E-05   2.29807402E-05  
  40               5.29832859E-01   2.67379613E+02   8.38097909E-01   1.60468441E-01   7.80210267E-04   5.30835544E-04   6.91262659E-05   1.24322618E-40   2.61940745E-05   2.29807402E-05  
  41               6.40729053E-01   2.77276319E+02   8.38097909E-01   1.60468441E-01   7.80210257E-04   5.30835537E-04   6.91262657E-05   3.73275205E-39   2.61940743E-05   2.29807402E-05  
  42               7.74779901E-01   2.87419995E+02   8.38097909E-01   1.60468441E-01   7.80210245E-04   5.30835529E-04   6.91262654E-05   9.53491669E-38   2.61940740E-05   2.29807402E-05  
  43               9.36659054E-01   2.98601255E+02   8.38097909E-01   1.60468441E-01   7.80210233E-04   5.30835521E-04   6.91262652E-05   2.63790183E-36   2.61940737E-05   2.29807402E-05  
  44               1.13204683E+00   3.10357867E+02   8.38097909E-01   1.60468441E-01   7.80210220E-04   5.30835512E-04   6.91262649E-05   6.68044717E-35   2.61940735E-05   2.29807402E-05  
  45               1.36756806E+00   3.23392361E+02   8.38097909E-01   1.60468441E-01   7.80210206E-04   5.30835502E-04   6.91262646E-05   1.83326670E-33   2.61940731E-05   2.29807402E-05  
  46               1.65079083E+00   3.37385839E+02   8.38097909E-01   1.60468441E-01   7.80210192E-04   5.30835493E-04   6.91262644E-05   4.83051375E-32   2.61940728E-05   2.29807402E-05  
  47               1.99048056E+00   3.53302346E+02   8.38097908E-01   1.60468441E-01   7.80210174E-04   5.30835481E-04   6.91262640E-05   1.46476607E-30   2.61940724E-05   2.29807401E-05  
  48               2.39744599E+00   3.70871562E+02   8.38097730E-01   1.60468406E-01   7.80210167E-04   5.30835476E-04   6.91262647E-05   4.51708924E-29   2.61940724E-05   2.29807353E-05  
  49               2.88369461E+00   3.90819730E+02   8.38097748E-01   1.60468389E-01   7.80209786E-04   5.30835217E-04   6.91262323E-05   1.53274262E-27   2.61940599E-05   2.29807328E-05  
  50               3.46173356E+00   4.13325564E+02   8.38097741E-01   1.60468388E-01   7.80214515E-04   5.30838434E-04   6.91266529E-05   5.45542354E-26   2.61942189E-05   2.29807326E-05  
  51               4.14572472E+00   4.35860498E+02   8.38097740E-01   1.60468388E-01   7.80214490E-04   5.30838417E-04   6.91266525E-05   1.33980524E-24   2.61942184E-05   2.29807326E-05  
  52               4.95311071E+00   4.60254748E+02   8.38097703E-01   1.60468381E-01   7.80214466E-04   5.30838401E-04   6.91266523E-05   3.01195620E-23   2.61942179E-05   2.29807316E-05  
  53               5.90204570E+00   4.84580169E+02   8.38097307E-01   1.60468337E-01   7.80214526E-04   5.30838441E-04   6.91266598E-05   4.88381328E-22   2.61942202E-05   2.29807254E-05  
  54               7.01142069E+00   5.10794688E+02   8.38094117E-01   1.60468060E-01   7.80216527E-04   5.30839803E-04   6.91268395E-05   7.31196678E-21   2.61942878E-05   2.29806857E-05  
  55               8.30468951E+00   5.36792569E+02   8.38094402E-01   1.60467777E-01   7.80215831E-04   5.30839329E-04   6.91267805E-05   8.19873917E-20   2.61942649E-05   2.29806451E-05  
  56               9.81388859E+00   5.64912104E+02   8.38094315E-01   1.60467746E-01   7.80280775E-04   5.30883515E-04   6.91325373E-05   8.72679230E-19   2.61964457E-05   2.29806407E-05  
  57               1.15704789E+01   5.92813303E+02   8.38094337E-01   1.60467725E-01   7.80280693E-04   5.30883460E-04   6.91325333E-05   7.26528116E-18   2.61964435E-05   2.29806377E-05  
  58               1.36052798E+01   6.20082335E+02   8.38094371E-01   1.60467691E-01   7.80280581E-04   5.30883384E-04   6.91325267E-05   4.76516913E-17   2.61964403E-05   2.29806328E-05  
  59               1.59497938E+01   6.48106489E+02   8.38094428E-01   1.60467635E-01   7.80280422E-04   5.30883275E-04   6.91325163E-05   2.78657129E-16   2.61964356E-05   2.29806247E-05  
  60               1.86548736E+01   6.77287508E+02   8.38094517E-01   1.60467545E-01   7.80280186E-04   5.30883115E-04   6.91324994E-05   1.49889977E-15   2.61964284E-05   2.29806119E-05  
  61               2.17710948E+01   7.08956090E+02   8.38094667E-01   1.60467395E-01   7.80279844E-04   5.30882882E-04   6.91324732E-05   7.97168267E-15   2.61964176E-05   2.29805904E-05  
  62               2.53456425E+01   7.42030209E+02   8.38094895E-01   1.60467165E-01   7.80279295E-04   5.30882509E-04   6.91324290E-05   3.91757686E-14   2.61963999E-05   2.29805574E-05  
  63               2.94269591E+01   7.75414626E+02   8.38095204E-01   1.60466847E-01   7.80278559E-04   5.30882008E-04   6.91323685E-05   1.69749287E-13   2.61963759E-05   2.29805119E-05  
  64               3.40943124E+01   8.10277190E+02   8.38095614E-01   1.60466405E-01   7.80277649E-04   5.30881389E-04   6.91322930E-05   6.89311151E-13   2.61963462E-05   2.29804484E-05  
  65               3.94620484E+01   8.45784090E+02   8.38095983E-01   1.60465822E-01   7.80276734E-04   5.30880766E-04   6.91322173E-05   2.54312482E-12   2.61963164E-05   2.29803647E-05  
  66               4.56265033E+01   8.83053670E+02   8.38096445E-01   1.60465090E-01   7.80280211E-04   5.30883132E-04   6.91325309E-05   8.93386524E-12   2.61964341E-05   2.29802591E-05  
  67               5.26588338E+01   9.20724598E+02   8.38097206E-01   1.60464314E-01   7.80279724E-04   5.30882800E-04   6.91324938E-05   2.85997504E-11   2.61964187E-05   2.29801464E-05  
  68               6.06045187E+01   9.59685222E+02   8.38098037E-01   1.60463435E-01   7.80281572E-04   5.30884058E-04   6.91326638E-05   8.64704283E-11   2.61964818E-05   2.29903322E-05  
  69               6.95600855E+01   9.98684701E+02   8.38098814E-01   1.60462532E-01   7.80279963E-04   5.30882963E-04   6.91325277E-05   2.39339711E-10   2.61964288E-05   2.30174873E-05  
  70               7.96802369E+01   1.03914152E+03   8.38099444E-01   1.60461558E-01   7.80279468E-04   5.30882626E-04   6.91324905E-05   6.34234307E-10   2.61964133E-05   2.30937485E-05  
  71               9.10906233E+01   1.07973451E+03   8.38099567E-01   1.60460563E-01   7.80281958E-04   5.30884318E-04   6.91327179E-05   1.56233283E-09   2.61964981E-05   2.32878175E-05  
  72               1.03885676E+02   1.12160112E+03   8.38099089E-01   1.60459515E-01   7.80304758E-04   5.30899808E-04   6.91347447E-05   3.69430754E-09   2.61972648E-05   2.37625138E-05  
  73               1.18157445E+02   1.16325843E+03   8.38098893E-01   1.60458637E-01   7.80302621E-04   5.30898178E-04   6.91345605E-05   8.15653949E-09   2.61971946E-05   2.42853540E-05  
  74               1.34074022E+02   1.20611160E+03   8.38099602E-01   1.60457866E-01   7.80300838E-04   5.30895806E-04   6.91343972E-05   1.73867039E-08   2.61971385E-05   2.42851000E-05  
  75               1.51920436E+02   1.24907695E+03   8.38100195E-01   1.60457177E-01   7.80299283E-04   5.30888478E-04   6.91342432E-05   3.51534132E-08   2.61971189E-05   2.42847792E-05  
  76               1.71938295E+02   1.29359196E+03   8.38100730E-01   1.60456501E-01   7.80294829E-04   5.30858425E-04   6.91339921E-05   6.93395328E-08   2.61972246E-05   2.42843323E-05  
  77               1.94315094E+02   1.33815310E+03   8.38101191E-01   1.60455900E-01   7.80269912E-04   5.30755786E-04   6.91331611E-05   1.30464255E-07   2.61978428E-05   2.42837266E-05  
  78               2.19201515E+02   1.38398022E+03   8.38101690E-01   1.60455316E-01   7.80176683E-04   5.30518521E-04   6.91298115E-05   2.39342939E-07   2.62004331E-05   2.42828614E-05  
  79               2.46804895E+02   1.42961575E+03   8.38102191E-01   1.60454793E-01   7.79972944E-04   5.30146210E-04   6.91171168E-05   4.20303040E-07   2.62098662E-05   2.42816682E-05  
  80               2.77503656E+02   1.47661194E+03   8.38102731E-01   1.60454255E-01   7.79625527E-04   5.29616947E-04   6.90743643E-05   7.23194185E-07   2.62398229E-05   2.42799232E-05  
  81               3.11845419E+02   1.52389050E+03   8.38103228E-01   1.60453732E-01   7.79127849E-04   5.28925475E-04   6.89523161E-05   1.20399983E-06   2.63195731E-05   2.42773549E-05  
  82               3.50203511E+02   1.57279004E+03   8.38103704E-01   1.60453153E-01   7.78439201E-04   5.28005283E-04   6.86711504E-05   1.97347263E-06   2.64894984E-05   2.42731420E-05  
  83               3.92760246E+02   1.62162571E+03   8.38103897E-01   1.60452534E-01   7.77578201E-04   5.26876329E-04   6.82494727E-05   3.13035919E-06   2.67197835E-05   2.42657742E-05  
  84               4.39517732E+02   1.67137390E+03   8.38086789E-01   1.60448569E-01   7.76578630E-04   5.25457738E-04   6.78193959E-05   4.86752121E-06   2.69339682E-05   2.42506098E-05  
  85               4.90306133E+02   1.72015932E+03   8.38066172E-01   1.60447737E-01   7.96301186E-04   5.23653505E-04   6.76190037E-05   7.30416248E-06   2.70307028E-05   2.34152696E-05  
  86               5.44473196E+02   1.76862963E+03   8.38065291E-01   1.60446828E-01   7.94588824E-04   5.21745472E-04   6.75355058E-05   1.06850037E-05   2.70650692E-05   2.34319627E-05  
  87               6.02400139E+02   1.81568516E+03   8.38062615E-01   1.60445701E-01   7.92942995E-04   5.19688350E-04   6.76620663E-05   1.51301056E-05   2.69934140E-05   2.34412011E-05  
  88               6.65425702E+02   1.86362181E+03   8.38058763E-01   1.60444410E-01   7.91226876E-04   5.17338698E-04   6.78659479E-05   2.11666673E-05   2.68810275E-05   2.34465363E-05  
  89               7.35074355E+02   1.91182717E+03   8.38051003E-01   1.60442684E-01   7.90184013E-04   5.14793321E-04   6.82555067E-05   2.91110939E-05   2.66734020E-05   2.34396718E-05  
  90               8.13141256E+02   1.96234051E+03   8.38035796E-01   1.60440132E-01   7.91228319E-04   5.11832508E-04   6.87283785E-05   3.99503077E-05   2.64204733E-05   2.34045305E-05  
  91               9.01276320E+02   2.01416148E+03   8.38003347E-01   1.60435740E-01   7.97941857E-04   5.08498585E-04   6.93880954E-05   5.42622276E-05   2.60700347E-05   2.33086666E-05  
  92               1.00082481E+03   2.06858674E+03   8.37936911E-01   1.60427714E-01   8.17044559E-04   5.04364599E-04   7.01439811E-05   7.35564910E-05   2.56654605E-05   2.30967355E-05  
  93               1.11873452E+03   2.12695711E+03   8.37820582E-01   1.60418461E-01   8.74601999E-04   4.98469744E-04   7.11229111E-05   9.99681601E-05   2.51432671E-05   2.25973811E-05  
  94               1.24983873E+03   2.18671496E+03   8.37788965E-01   1.60413989E-01   8.70977130E-04   4.94204876E-04   7.22105278E-05   1.34404121E-04   2.45623220E-05   2.26020746E-05  
  95               1.38660776E+03   2.24323604E+03   8.37755146E-01   1.60409936E-01   8.67744476E-04   4.90242088E-04   7.33771679E-05   1.74923271E-04   2.39393006E-05   2.26010663E-05  
  96               1.54696275E+03   2.30440559E+03   8.37706937E-01   1.60404363E-01   8.64397741E-04   4.85943420E-04   7.46938081E-05   2.29022735E-04   2.32319181E-05   2.25937332E-05  
  97               1.69996424E+03   2.35757075E+03   8.37640374E-01   1.60397092E-01   8.66478832E-04   4.82120517E-04   7.59393055E-05   2.85706215E-04   2.25613397E-05   2.25893414E-05  
  98               1.83303192E+03   2.40101956E+03   8.37592409E-01   1.60392334E-01   8.64686102E-04   4.79177024E-04   7.69718514E-05   3.39636889E-04   2.20029478E-05   2.25772611E-05  
  99               1.98778647E+03   2.44807816E+03   8.37532709E-01   1.60386519E-01   8.62920470E-04   4.76108975E-04   7.81456421E-05   4.06316277E-04   2.13671419E-05   2.25611509E-05  
  100              2.16715841E+03   2.49908706E+03   8.37457873E-01   1.60379420E-01   8.61226484E-04   4.72857642E-04   7.94415325E-05   4.89289537E-04   2.06620303E-05   2.25402067E-05  
  101              2.30867208E+03   2.53666146E+03   8.37365024E-01   1.60367802E-01   8.60149460E-04   4.70546373E-04   8.04275952E-05   5.57904486E-04   2.01222236E-05   2.25219628E-05  
