# ATMO chemical composition profiles
# Chemical abundances given as mole fraction for the 8 most abundant species
# Model Level      Pressure [Ba]    Temperature [K]  H2               He               H                CO               H2O              CH4              N2               H2S             
  1                1.00000000E-05   2.30521404E+02   8.38481370E-01   1.60541840E-01   4.55324804E-45   4.42594672E-04   3.40470106E-04   1.04788150E-04   5.99927916E-05   2.29939364E-05  
  2                1.16433992E-04   2.71519838E+02   8.38481411E-01   1.60541799E-01   3.73724976E-38   4.42594643E-04   3.40470083E-04   1.04788143E-04   5.99927811E-05   2.29939305E-05  
  3                2.33847756E-04   2.89363448E+02   8.38481501E-01   1.60541709E-01   1.01303073E-35   4.42594642E-04   3.40470083E-04   1.04788143E-04   5.99927632E-05   2.29939176E-05  
  4                3.68336986E-04   3.00529862E+02   8.38481590E-01   1.60541620E-01   2.33794444E-34   4.42594617E-04   3.40470063E-04   1.04788137E-04   5.99927413E-05   2.29939048E-05  
  5                5.23940589E-04   3.10001845E+02   8.38481705E-01   1.60541504E-01   2.81934349E-33   4.42594621E-04   3.40470066E-04   1.04788138E-04   5.99927233E-05   2.29938882E-05  
  6                7.04665302E-04   3.17952608E+02   8.38481821E-01   1.60541385E-01   2.01676971E-32   4.42594544E-04   3.40470007E-04   1.04788120E-04   5.99926942E-05   2.29938712E-05  
  7                9.14982340E-04   3.25830840E+02   8.38481992E-01   1.60541215E-01   1.30132126E-31   4.42594530E-04   3.40469996E-04   1.04788117E-04   5.99926736E-05   2.29938468E-05  
  8                1.16001432E-03   3.32905861E+02   8.38482166E-01   1.60541040E-01   6.39992771E-31   4.42594361E-04   3.40469866E-04   1.04788077E-04   5.99926318E-05   2.29938218E-05  
  9                1.44569456E-03   3.40281001E+02   8.38482413E-01   1.60540785E-01   3.16566561E-30   4.42594220E-04   3.40469757E-04   1.04788043E-04   5.99925932E-05   2.29937853E-05  
  10               1.77892729E-03   3.47073259E+02   8.38482669E-01   1.60540530E-01   1.29153161E-29   4.42594087E-04   3.40469655E-04   1.04788012E-04   5.99925554E-05   2.29937487E-05  
  11               2.16786177E-03   3.54145136E+02   8.38483011E-01   1.60540188E-01   5.29963616E-29   4.42593870E-04   3.40469487E-04   1.04787961E-04   5.99925055E-05   2.29936998E-05  
  12               2.62200178E-03   3.60731637E+02   8.38483280E-01   1.60539849E-01   1.86625703E-28   4.42593430E-04   3.40469149E-04   1.04787857E-04   5.99924249E-05   2.29936511E-05  
  13               3.15242035E-03   3.67718797E+02   8.38483722E-01   1.60539406E-01   6.78970857E-28   4.42593691E-04   3.40469349E-04   1.04787919E-04   5.99924386E-05   2.29935877E-05  
  14               3.77199835E-03   3.74367848E+02   8.38484146E-01   1.60538983E-01   2.20787450E-27   4.42593123E-04   3.40468912E-04   1.04787784E-04   5.99923392E-05   2.29935272E-05  
  15               4.49574468E-03   3.81455756E+02   8.38484693E-01   1.60538437E-01   7.45201679E-27   4.42592715E-04   3.40468598E-04   1.04787687E-04   5.99922611E-05   2.29934490E-05  
  16               5.34106352E-03   3.88311295E+02   8.38485226E-01   1.60537906E-01   2.30748060E-26   4.42591890E-04   3.40467963E-04   1.04787492E-04   5.99921258E-05   2.29933729E-05  
  17               6.32812627E-03   3.95728062E+02   8.38485913E-01   1.60537217E-01   7.53940591E-26   4.42593283E-04   3.40469034E-04   1.04787822E-04   5.99922906E-05   2.29932742E-05  
  18               7.48034634E-03   4.02998694E+02   8.38486318E-01   1.60536489E-01   2.29932622E-25   4.42592321E-04   3.40468294E-04   1.04787594E-04   5.99921353E-05   2.29931700E-05  
  19               8.82482997E-03   4.10882260E+02   8.38487197E-01   1.60535613E-01   7.40421132E-25   4.42591451E-04   3.40467625E-04   1.04787389E-04   5.99919920E-05   2.29930444E-05  
  20               1.03928021E-02   4.18720176E+02   8.38488041E-01   1.60534771E-01   2.26153781E-24   4.42589977E-04   3.40466491E-04   1.04787040E-04   5.99917659E-05   2.29929238E-05  
  21               1.22204097E-02   4.27321409E+02   8.38489078E-01   1.60533716E-01   7.38762903E-24   4.42596112E-04   3.40471209E-04   1.04788492E-04   5.99925701E-05   2.29927728E-05  
  22               1.43495956E-02   4.36059839E+02   8.38490125E-01   1.60532648E-01   2.34211160E-23   4.42594930E-04   3.40470301E-04   1.04788213E-04   5.99923819E-05   2.29926198E-05  
  23               1.68277086E-02   4.45918626E+02   8.38488632E-01   1.60530769E-01   8.21566325E-23   4.42596261E-04   3.40471324E-04   1.04788528E-04   5.99925330E-05   2.29923507E-05  
  24               1.97103873E-02   4.55258361E+02   8.38489670E-01   1.60529385E-01   2.54920702E-22   4.42592218E-04   3.40468213E-04   1.04787571E-04   5.99919545E-05   2.29921525E-05  
  25               2.30649952E-02   4.64933303E+02   8.38490529E-01   1.60528464E-01   7.85428068E-22   4.42621510E-04   3.40490746E-04   1.04794506E-04   5.99958933E-05   2.29920206E-05  
  26               2.69663127E-02   4.74975437E+02   8.38491669E-01   1.60527328E-01   2.40691981E-21   4.42619993E-04   3.40489579E-04   1.04794147E-04   5.99956548E-05   2.29918578E-05  
  27               3.14998264E-02   4.85556122E+02   8.38492829E-01   1.60526170E-01   7.46068240E-21   4.42618873E-04   3.40488717E-04   1.04793882E-04   5.99954683E-05   2.29916920E-05  
  28               3.67628365E-02   4.96583725E+02   8.38493967E-01   1.60525036E-01   2.30575021E-20   4.42617412E-04   3.40487593E-04   1.04793536E-04   5.99952342E-05   2.29915295E-05  
  29               4.28654691E-02   5.08259456E+02   8.38495106E-01   1.60523900E-01   7.23145389E-20   4.42616319E-04   3.40486752E-04   1.04793278E-04   5.99950480E-05   2.29913668E-05  
  30               4.99326837E-02   5.20574144E+02   8.38496220E-01   1.60522789E-01   2.28702077E-19   4.42614960E-04   3.40485706E-04   1.04792956E-04   5.99948236E-05   2.29912077E-05  
  31               5.81102437E-02   5.33757421E+02   8.38497325E-01   1.60521686E-01   7.41401023E-19   4.42613912E-04   3.40484899E-04   1.04792708E-04   5.99946392E-05   2.29910497E-05  
  32               6.75627890E-02   5.47749021E+02   8.38498385E-01   1.60520629E-01   2.43198168E-18   4.42612690E-04   3.40483959E-04   1.04792419E-04   5.99944288E-05   2.29908983E-05  
  33               7.84732002E-02   5.62812700E+02   8.38499413E-01   1.60519603E-01   8.20087920E-18   4.42611741E-04   3.40483228E-04   1.04792194E-04   5.99942530E-05   2.29907514E-05  
  34               9.10426705E-02   5.78908936E+02   8.38500377E-01   1.60518641E-01   2.80824514E-17   4.42610721E-04   3.40482444E-04   1.04791953E-04   5.99940651E-05   2.29906136E-05  
  35               1.05489990E-01   5.96420969E+02   8.38501297E-01   1.60517722E-01   9.96941180E-17   4.42609926E-04   3.40481831E-04   1.04791765E-04   5.99939048E-05   2.29904821E-05  
  36               1.22054907E-01   6.15363872E+02   8.38502147E-01   1.60516874E-01   3.62894081E-16   4.42609125E-04   3.40481214E-04   1.04791576E-04   5.99937407E-05   2.29903605E-05  
  37               1.40996668E-01   6.35994357E+02   8.38502926E-01   1.60516096E-01   1.36210231E-15   4.42608546E-04   3.40480769E-04   1.04791439E-04   5.99936039E-05   2.29902491E-05  
  38               1.62618457E-01   6.58396471E+02   8.38503618E-01   1.60515400E-01   5.22856521E-15   4.42608082E-04   3.40480412E-04   1.04791329E-04   5.99934794E-05   2.29901495E-05  
  39               1.87241494E-01   6.82871978E+02   8.38504219E-01   1.60514782E-01   2.06122795E-14   4.42607924E-04   3.40480289E-04   1.04791292E-04   5.99933932E-05   2.29900609E-05  
  40               2.15189620E-01   7.09548267E+02   8.38504690E-01   1.60514236E-01   8.27622477E-14   4.42610567E-04   3.40482322E-04   1.04791918E-04   5.99936837E-05   2.29899826E-05  
  41               2.46768983E-01   7.39585379E+02   8.38504997E-01   1.60513721E-01   3.52906629E-13   4.42611043E-04   3.40482687E-04   1.04792031E-04   5.99936770E-05   2.29899087E-05  
  42               2.82328520E-01   7.69177643E+02   8.38505160E-01   1.60513320E-01   1.31322591E-12   4.42613390E-04   3.40484492E-04   1.04792587E-04   5.99939208E-05   2.29898510E-05  
  43               3.22366397E-01   8.00593070E+02   8.38505499E-01   1.60512970E-01   4.76839256E-12   4.42613442E-04   3.40484531E-04   1.04792599E-04   5.99938502E-05   2.29897999E-05  
  44               3.67456580E-01   8.31597878E+02   8.38505846E-01   1.60512581E-01   1.54138542E-11   4.42613580E-04   3.40484637E-04   1.04792632E-04   5.99937883E-05   2.29977369E-05  
  45               4.18169432E-01   8.64537013E+02   8.38506364E-01   1.60511919E-01   4.89270177E-11   4.42613879E-04   3.40484867E-04   1.04792703E-04   5.99937454E-05   2.30259588E-05  
  46               4.75092582E-01   8.96990015E+02   8.38507141E-01   1.60510684E-01   1.39991201E-10   4.42614913E-04   3.40485661E-04   1.04792948E-04   5.99937992E-05   2.31151353E-05  
  47               5.38812858E-01   9.31356415E+02   8.38508374E-01   1.60507980E-01   3.93742290E-10   4.42625821E-04   3.40494047E-04   1.04795530E-04   5.99951880E-05   2.34008920E-05  
  48               6.10040837E-01   9.65142088E+02   8.38511470E-01   1.60503152E-01   1.00914161E-09   4.42619142E-04   3.40488890E-04   1.04793943E-04   5.99941876E-05   2.42922010E-05  
  49               6.89670992E-01   1.00091597E+03   8.38520509E-01   1.60494176E-01   2.55254793E-09   4.42607506E-04   3.40479852E-04   1.04791159E-04   5.99925004E-05   2.42907670E-05  
  50               7.78610286E-01   1.03613023E+03   8.38534571E-01   1.60480185E-01   5.95603209E-09   4.42589212E-04   3.40465398E-04   1.04786688E-04   5.99898584E-05   2.42885185E-05  
  51               8.77811372E-01   1.07334651E+03   8.38555721E-01   1.60459112E-01   1.37369073E-08   4.42564576E-04   3.40444877E-04   1.04780200E-04   5.99861642E-05   2.42850901E-05  
  52               9.88344704E-01   1.10997361E+03   8.38580838E-01   1.60434067E-01   2.94991446E-08   4.42538946E-04   3.40418792E-04   1.04770982E-04   5.99816294E-05   2.42809097E-05  
  53               1.11137100E+00   1.14858850E+03   8.38609624E-01   1.60405325E-01   6.26672177E-08   4.42528548E-04   3.40385790E-04   1.04753634E-04   5.99766861E-05   2.42758921E-05  
  54               1.24837401E+00   1.18666857E+03   8.38636610E-01   1.60378342E-01   1.25152327E-07   4.42582144E-04   3.40329016E-04   1.04695266E-04   5.99718442E-05   2.42707756E-05  
  55               1.40108994E+00   1.22641632E+03   8.38661941E-01   1.60353032E-01   2.46038678E-07   4.42838842E-04   3.40168266E-04   1.04444807E-04   5.99675266E-05   2.42652815E-05  
  56               1.57195559E+00   1.26240202E+03   8.38680624E-01   1.60334847E-01   4.33928366E-07   4.43622056E-04   3.39640208E-04   1.03473663E-04   5.99641032E-05   2.42603259E-05  
  57               1.76427784E+00   1.30109497E+03   8.38698976E-01   1.60318603E-01   7.72076395E-07   4.45488767E-04   3.38168403E-04   1.00585581E-04   5.99608866E-05   2.42543188E-05  
  58               1.98331848E+00   1.33623449E+03   8.38714857E-01   1.60308323E-01   1.25502815E-06   4.49120096E-04   3.34872884E-04   9.40866954E-05   5.99575263E-05   2.42478907E-05  
  59               2.23648612E+00   1.37429869E+03   8.38733195E-01   1.60299990E-01   2.06636071E-06   4.55071290E-04   3.28955003E-04   8.30921845E-05   5.99538600E-05   2.42375717E-05  
  60               2.53268258E+00   1.40897260E+03   8.38748264E-01   1.60295341E-01   3.14762851E-06   4.62911917E-04   3.20932436E-04   7.09342156E-05   5.99504966E-05   2.42214535E-05  
  61               2.87941098E+00   1.44725124E+03   8.38762540E-01   1.60291196E-01   4.90019518E-06   4.72080487E-04   3.11785966E-04   5.88776406E-05   5.99487844E-05   2.41192781E-05  
  62               3.28163654E+00   1.48277087E+03   8.38766203E-01   1.60287491E-01   7.17843973E-06   4.80411976E-04   3.04160532E-04   5.05097917E-05   5.99501459E-05   2.41063595E-05  
  63               3.74169359E+00   1.52288527E+03   8.38769794E-01   1.60284406E-01   1.08679100E-05   4.88827884E-04   3.00392629E-04   4.16044625E-05   5.99493699E-05   2.34872284E-05  
  64               4.25890659E+00   1.56095047E+03   8.38758733E-01   1.60279522E-01   1.57110922E-05   4.94920869E-04   2.95641358E-04   3.57876885E-05   5.99546899E-05   2.34657463E-05  
  65               4.82150148E+00   1.60428671E+03   8.38745944E-01   1.60276378E-01   2.35938245E-05   5.02363837E-04   3.04060366E-04   2.81451369E-05   5.99756006E-05   2.20012883E-05  
  66               5.41835320E+00   1.64630791E+03   8.38733988E-01   1.60272895E-01   3.42557311E-05   5.07181340E-04   3.02250720E-04   2.33732230E-05   5.99771651E-05   2.19399529E-05  
  67               6.02882538E+00   1.69496453E+03   8.38701956E-01   1.60267359E-01   5.21162032E-05   5.12651149E-04   3.07599301E-04   1.78444957E-05   5.99878514E-05   2.16907321E-05  
  68               6.61190721E+00   1.73604755E+03   8.38639353E-01   1.60259454E-01   7.27001185E-05   5.16562104E-04   3.26599644E-04   1.39067393E-05   6.00080358E-05   2.12422842E-05  
  69               7.14190559E+00   1.77273725E+03   8.38556944E-01   1.60251220E-01   9.67041189E-05   5.19756219E-04   3.60409691E-04   1.06787219E-05   6.00417714E-05   2.06673032E-05  
  70               7.60067633E+00   1.80104674E+03   8.38496697E-01   1.60246035E-01   1.19288640E-04   5.21516710E-04   3.85643670E-04   8.90046455E-06   6.00655573E-05   2.03371062E-05  
  71               8.10427106E+00   1.83250728E+03   8.38459493E-01   1.60241237E-01   1.49713322E-04   5.22552526E-04   3.84644274E-04   7.84059659E-06   6.00544467E-05   2.03442460E-05  
  72               8.52954568E+00   1.85616682E+03   8.38435805E-01   1.60238906E-01   1.76343426E-04   5.23174033E-04   3.83978996E-04   7.20610943E-06   6.00602369E-05   2.03464620E-05  
  73               8.85919421E+00   1.87546444E+03   8.38413592E-01   1.60236755E-01   2.01214946E-04   5.23665498E-04   3.83447556E-04   6.69990110E-06   6.00527605E-05   2.03444970E-05  
  74               9.23108923E+00   1.89466510E+03   8.38389146E-01   1.60234453E-01   2.28366414E-04   5.24060714E-04   3.83012905E-04   6.29079888E-06   6.00445760E-05   2.03408916E-05  
  75               9.65136331E+00   1.91745856E+03   8.38356108E-01   1.60231371E-01   2.64964012E-04   5.24522794E-04   3.82503045E-04   5.81005019E-06   6.00343288E-05   2.03319219E-05  
  76               1.01242685E+01   1.94034188E+03   8.38287770E-01   1.60222011E-01   3.05894100E-04   5.24873599E-04   3.82068346E-04   5.41796015E-06   6.00133872E-05   2.03191757E-05  
  77               1.04628789E+01   1.95759230E+03   8.38256216E-01   1.60219147E-01   3.40563455E-04   5.25156945E-04   3.81753307E-04   5.12086060E-06   6.00363160E-05   2.03064551E-05  
  78               1.06938263E+01   1.96771353E+03   8.38236769E-01   1.60217398E-01   3.61883603E-04   5.25282599E-04   3.81612638E-04   4.98370646E-06   6.00240972E-05   2.02987943E-05  
  79               1.09579031E+01   1.98083532E+03   8.38209452E-01   1.60214932E-01   3.91868847E-04   5.25472435E-04   3.81388606E-04   4.77994734E-06   6.00157965E-05   2.02861943E-05  
  80               1.12605092E+01   1.99378381E+03   8.38181230E-01   1.60212409E-01   4.22728336E-04   5.25617482E-04   3.81234896E-04   4.62058460E-06   6.00083617E-05   2.02736671E-05  
  81               1.16059516E+01   2.00996097E+03   8.38142748E-01   1.60208964E-01   4.64864960E-04   5.25816069E-04   3.80991686E-04   4.40324463E-06   6.00014089E-05   2.02544590E-05  
  82               1.19988210E+01   2.02613331E+03   8.38101831E-01   1.60205329E-01   5.09516956E-04   5.25970721E-04   3.80833788E-04   4.22840700E-06   5.99927899E-05   2.02345175E-05  
  83               1.24438090E+01   2.04563302E+03   8.38047530E-01   1.60200507E-01   5.68878378E-04   5.26166684E-04   3.80580083E-04   4.00693095E-06   5.99838575E-05   2.02056879E-05  
  84               1.29481422E+01   2.06532308E+03   8.37988460E-01   1.60195289E-01   6.33362362E-04   5.26319079E-04   3.80367149E-04   3.82639357E-06   5.99722514E-05   2.01745046E-05  
  85               1.35178056E+01   2.08845926E+03   8.37911217E-01   1.60188471E-01   7.17665052E-04   5.26500664E-04   3.80110332E-04   3.60972803E-06   5.99601024E-05   2.01319288E-05  
  86               1.41591400E+01   2.11187105E+03   8.37825932E-01   1.60180972E-01   8.10652813E-04   5.26638620E-04   3.79892616E-04   3.43267280E-06   5.99446842E-05   2.00853942E-05  
  87               1.48789111E+01   2.13867227E+03   8.37716422E-01   1.60171350E-01   9.30025160E-04   5.26792275E-04   3.79641425E-04   3.23087800E-06   5.99282610E-05   2.00243914E-05  
  88               1.56843328E+01   2.16578930E+03   8.37594301E-01   1.60160648E-01   1.06305311E-03   5.26902791E-04   3.79426517E-04   3.06640473E-06   5.99080875E-05   1.99576037E-05  
  89               1.65831523E+01   2.19613123E+03   8.37440193E-01   1.60147151E-01   1.23089430E-03   5.27016432E-04   3.79186931E-04   2.88704510E-06   5.98862107E-05   1.98732028E-05  
  90               1.75836952E+01   2.22679165E+03   8.37267374E-01   1.60132042E-01   1.41903001E-03   5.27087891E-04   3.78979662E-04   2.74172290E-06   5.98601093E-05   1.97811772E-05  
  91               1.86950158E+01   2.26037723E+03   8.37053401E-01   1.60113343E-01   1.65193571E-03   5.27150944E-04   3.78755042E-04   2.58978520E-06   5.98314017E-05   1.96689615E-05  
  92               1.99269339E+01   2.29432933E+03   8.36810441E-01   1.60091927E-01   1.91416468E-03   5.27172413E-04   3.78555992E-04   2.46694108E-06   5.97978329E-05   1.95471669E-05  
  93               2.12897012E+01   2.33081492E+03   8.36509667E-01   1.60066200E-01   2.23237898E-03   5.27220554E-04   3.84542527E-04   2.30595806E-06   5.97630361E-05   1.94369776E-05  
  94               2.27951779E+01   2.36756005E+03   8.36181560E-01   1.60037587E-01   2.58919342E-03   5.27184560E-04   3.84463518E-04   2.20924908E-06   5.97207822E-05   1.92829436E-05  
  95               2.44569376E+01   2.40650059E+03   8.35790332E-01   1.60003474E-01   3.01466555E-03   5.27122727E-04   3.84364189E-04   2.11533749E-06   5.96737748E-05   1.91064094E-05  
  96               2.62894248E+01   2.44570684E+03   8.35352920E-01   1.59965348E-01   3.49034698E-03   5.27021065E-04   3.84266645E-04   2.04257290E-06   5.96206049E-05   1.89192885E-05  
  97               2.83086814E+01   2.48663109E+03   8.34842623E-01   1.59920875E-01   4.04529583E-03   5.26886470E-04   3.84152951E-04   1.97563422E-06   5.95614057E-05   1.87115152E-05  
  98               3.05324859E+01   2.52795093E+03   8.34272832E-01   1.59871228E-01   4.66492576E-03   5.26711552E-04   3.84039579E-04   1.92507415E-06   5.94951486E-05   1.84928156E-05  
  99               3.29813639E+01   2.57034958E+03   8.33625825E-01   1.59814860E-01   5.36851675E-03   5.26497300E-04   3.83919017E-04   1.88387605E-06   5.94214470E-05   1.82585124E-05  
  100              3.56784114E+01   2.61352726E+03   8.32900312E-01   1.59751659E-01   6.15746294E-03   5.26240778E-04   3.83796586E-04   1.85360502E-06   5.93395358E-05   1.80116226E-05  
  101              3.86501224E+01   2.65690845E+03   8.32104474E-01   1.59682343E-01   7.02285251E-03   5.25939903E-04   3.83682505E-04   1.83756914E-06   5.92486522E-05   1.77583315E-05  
