# ATMO chemical composition profiles
# Chemical abundances given as mole fraction for the 8 most abundant species
# Model Level      Pressure [Ba]    Temperature [K]  H2               He               H2O              CH4              NH3              N2               H2S              H2O(s)          
  1                1.00000000E-05   2.44322158E+01   8.38109161E-01   1.60470387E-01   7.77884864E-04   5.29679304E-04   5.85408752E-05   2.69881832E-05   2.29833235E-05   0.00000000E+00  
  2                2.70880716E-05   2.94232944E+01   8.38109161E-01   1.60470387E-01   7.77884793E-04   5.29679255E-04   5.85407863E-05   2.69882929E-05   2.29833235E-05   0.00000000E+00  
  3                4.71564926E-05   3.14053765E+01   8.38109161E-01   1.60470387E-01   7.77884756E-04   5.29679230E-04   5.85407382E-05   2.69883523E-05   2.29833235E-05   0.00000000E+00  
  4                7.07237772E-05   3.34008554E+01   8.38109161E-01   1.60470387E-01   7.77884730E-04   5.29679212E-04   5.85407056E-05   2.69883926E-05   2.29833235E-05   0.00000000E+00  
  5                9.83975672E-05   3.44745318E+01   8.38109161E-01   1.60470387E-01   7.77884710E-04   5.29679198E-04   5.85406799E-05   2.69884243E-05   2.29833235E-05   0.00000000E+00  
  6                1.30892028E-04   3.60443990E+01   8.38109161E-01   1.60470387E-01   7.77884693E-04   5.29679186E-04   5.85406572E-05   2.69884525E-05   2.29833235E-05   0.00000000E+00  
  7                1.69042838E-04   3.69045990E+01   8.38109161E-01   1.60470387E-01   7.77884678E-04   5.29679176E-04   5.85406370E-05   2.69884775E-05   2.29833235E-05   0.00000000E+00  
  8                2.13831041E-04   3.83616303E+01   8.38109161E-01   1.60470387E-01   7.77884664E-04   5.29679166E-04   5.85406182E-05   2.69885009E-05   2.29833235E-05   0.00000000E+00  
  9                2.66407393E-04   3.91352749E+01   8.38109161E-01   1.60470387E-01   7.77884652E-04   5.29679158E-04   5.85406002E-05   2.69885234E-05   2.29833235E-05   0.00000000E+00  
  10               3.28117268E-04   4.05811148E+01   8.38109161E-01   1.60470387E-01   7.77884640E-04   5.29679149E-04   5.85405826E-05   2.69885453E-05   2.29833235E-05   0.00000000E+00  
  11               4.00538242E-04   4.13483889E+01   8.38109161E-01   1.60470387E-01   7.77884628E-04   5.29679141E-04   5.85405654E-05   2.69885669E-05   2.29833235E-05   0.00000000E+00  
  12               4.85521882E-04   4.28114172E+01   8.38109161E-01   1.60470387E-01   7.77884617E-04   5.29679134E-04   5.85405482E-05   2.69885884E-05   2.29833235E-05   0.00000000E+00  
  13               5.85230409E-04   4.35940563E+01   8.38109161E-01   1.60470387E-01   7.77884606E-04   5.29679126E-04   5.85405309E-05   2.69886101E-05   2.29833235E-05   0.00000000E+00  
  14               7.02187600E-04   4.51435999E+01   8.38109161E-01   1.60470387E-01   7.77884595E-04   5.29679118E-04   5.85405134E-05   2.69886320E-05   2.29833235E-05   0.00000000E+00  
  15               8.39357264E-04   4.59927253E+01   8.38109161E-01   1.60470387E-01   7.77884584E-04   5.29679111E-04   5.85404957E-05   2.69886544E-05   2.29833235E-05   0.00000000E+00  
  16               1.00020551E-03   4.76432205E+01   8.38109161E-01   1.60470387E-01   7.77884573E-04   5.29679103E-04   5.85404775E-05   2.69886772E-05   2.29833235E-05   0.00000000E+00  
  17               1.18876846E-03   4.85817132E+01   8.38109161E-01   1.60470387E-01   7.77884561E-04   5.29679095E-04   5.85404588E-05   2.69887007E-05   2.29833235E-05   0.00000000E+00  
  18               1.40974095E-03   5.03836287E+01   8.38109161E-01   1.60470387E-01   7.77884550E-04   5.29679087E-04   5.85404396E-05   2.69887250E-05   2.29833235E-05   0.00000000E+00  
  19               1.66863220E-03   5.14344766E+01   8.38109161E-01   1.60470387E-01   7.77884538E-04   5.29679079E-04   5.85404197E-05   2.69887501E-05   2.29833235E-05   0.00000000E+00  
  20               1.97187455E-03   5.33727871E+01   8.38109161E-01   1.60470387E-01   7.77884527E-04   5.29679071E-04   5.85403989E-05   2.69887763E-05   2.29833235E-05   0.00000000E+00  
  21               2.32692135E-03   5.45303646E+01   8.38109161E-01   1.60470387E-01   7.77884514E-04   5.29679062E-04   5.85403773E-05   2.69888037E-05   2.29833235E-05   0.00000000E+00  
  22               2.74239104E-03   5.66561350E+01   8.38109161E-01   1.60470387E-01   7.77884501E-04   5.29679053E-04   5.85403546E-05   2.69888324E-05   2.29833235E-05   0.00000000E+00  
  23               3.22832820E-03   5.79615995E+01   8.38109161E-01   1.60470387E-01   7.77884488E-04   5.29679044E-04   5.85403309E-05   2.69888623E-05   2.29833235E-05   0.00000000E+00  
  24               3.79650008E-03   6.02954202E+01   8.38109161E-01   1.60470387E-01   7.77884474E-04   5.29679035E-04   5.85403061E-05   2.69888937E-05   2.29833235E-05   0.00000000E+00  
  25               4.46044635E-03   6.17901157E+01   8.38109161E-01   1.60470387E-01   7.77884460E-04   5.29679025E-04   5.85402801E-05   2.69889267E-05   2.29833235E-05   0.00000000E+00  
  26               5.23568945E-03   6.44822194E+01   8.38109161E-01   1.60470387E-01   7.77884445E-04   5.29679014E-04   5.85402524E-05   2.69889618E-05   2.29833235E-05   0.00000000E+00  
  27               6.14002591E-03   6.63861547E+01   8.38109161E-01   1.60470387E-01   7.77884429E-04   5.29679003E-04   5.85402227E-05   2.69889994E-05   2.29833235E-05   0.00000000E+00  
  28               7.19431537E-03   6.96533825E+01   8.38109161E-01   1.60470387E-01   7.77884411E-04   5.29678991E-04   5.85401906E-05   2.69890402E-05   2.29833235E-05   0.00000000E+00  
  29               8.42209627E-03   7.24728368E+01   8.38109161E-01   1.60470387E-01   7.77884393E-04   5.29678978E-04   5.85401554E-05   2.69890848E-05   2.29833235E-05   0.00000000E+00  
  30               9.84444722E-03   7.61530394E+01   8.38109161E-01   1.60470387E-01   7.77884372E-04   5.29678964E-04   5.85401169E-05   2.69891338E-05   2.29833235E-05   0.00000000E+00  
  31               1.14829026E-02   7.99064881E+01   8.38109161E-01   1.60470387E-01   7.77884350E-04   5.29678948E-04   5.85400744E-05   2.69891878E-05   2.29833235E-05   0.00000000E+00  
  32               1.33653899E-02   8.38523519E+01   8.38109161E-01   1.60470387E-01   7.77884326E-04   5.29678932E-04   5.85400283E-05   2.69892464E-05   2.29833235E-05   0.00000000E+00  
  33               1.55279973E-02   8.78754418E+01   8.38109161E-01   1.60470387E-01   7.77884304E-04   5.29678916E-04   5.85399840E-05   2.69893027E-05   2.29833235E-05   0.00000000E+00  
  34               1.80155280E-02   9.21216238E+01   8.38109161E-01   1.60470387E-01   7.77884285E-04   5.29678903E-04   5.85399468E-05   2.69893501E-05   2.29833235E-05   0.00000000E+00  
  35               2.08798236E-02   9.64679895E+01   8.38109162E-01   1.60470387E-01   7.77884269E-04   5.29678892E-04   5.85399158E-05   2.69893895E-05   2.29833235E-05   0.00000000E+00  
  36               2.41806413E-02   1.01071723E+02   8.38109064E-01   1.60470369E-01   7.77884257E-04   5.29678883E-04   5.85398925E-05   2.69894191E-05   2.29833208E-05   8.85645403E-17  
  37               2.79865454E-02   1.05794790E+02   8.38108730E-01   1.60470305E-01   7.77884339E-04   5.29678939E-04   5.85398823E-05   2.69894440E-05   2.29833117E-05   1.01280156E-15  
  38               3.23771355E-02   1.10807687E+02   8.38107472E-01   1.60470064E-01   7.77884734E-04   5.29679208E-04   5.85399006E-05   2.69894729E-05   2.29832772E-05   9.77955901E-15  
  39               3.74451003E-02   1.15958805E+02   8.38102748E-01   1.60469159E-01   7.77886175E-04   5.29680189E-04   5.85399967E-05   2.69895395E-05   2.29831476E-05   8.88278455E-14  
  40               4.32977557E-02   1.21434502E+02   8.38086589E-01   1.60466065E-01   7.77891727E-04   5.29683969E-04   5.85404010E-05   2.69897502E-05   2.29827045E-05   7.25274317E-13  
  41               5.00583151E-02   1.27173381E+02   8.38038280E-01   1.60456816E-01   7.77911048E-04   5.29697126E-04   5.85418403E-05   2.69904404E-05   2.29813798E-05   5.55185027E-12  
  42               5.78672922E-02   1.33276604E+02   8.38109031E-01   1.60470362E-01   7.77970789E-04   5.29737804E-04   5.85463196E-05   2.69925352E-05   2.29833200E-05   3.80601084E-11  
  43               6.68867645E-02   1.39654319E+02   8.38109143E-01   1.60470384E-01   7.77896120E-04   5.29686960E-04   5.85406821E-05   2.69899691E-05   2.29833230E-05   2.44440542E-10  
  44               7.73057584E-02   1.46418582E+02   8.38109017E-01   1.60470360E-01   7.77979540E-04   5.29743763E-04   5.85469392E-05   2.69928912E-05   2.29833196E-05   1.41049735E-09  
  45               8.93445558E-02   1.53475411E+02   8.38109013E-01   1.60470359E-01   7.77978970E-04   5.29743374E-04   5.85468729E-05   2.69929027E-05   2.29833194E-05   7.49906159E-09  
  46               1.03256367E-01   1.60883362E+02   8.38108988E-01   1.60470354E-01   7.77979643E-04   5.29743832E-04   5.85468970E-05   2.69929618E-05   2.29833188E-05   3.63274715E-08  
  47               1.19329332E-01   1.68615567E+02   8.38108881E-01   1.60470334E-01   7.77979660E-04   5.29743844E-04   5.85468678E-05   2.69930033E-05   2.29833158E-05   1.63596615E-07  
  48               1.37894838E-01   1.76736501E+02   8.38108452E-01   1.60470252E-01   7.77979761E-04   5.29743912E-04   5.85468404E-05   2.69930537E-05   2.29833041E-05   6.74080549E-07  
  49               1.59336237E-01   1.85197978E+02   8.38106848E-01   1.60469944E-01   7.77980230E-04   5.29744231E-04   5.85468353E-05   2.69931241E-05   2.29832601E-05   2.58419985E-06  
  50               1.84098991E-01   1.94051222E+02   8.38101389E-01   1.60468899E-01   7.77982067E-04   5.29745482E-04   5.85469270E-05   2.69932503E-05   2.29831104E-05   9.08532209E-06  
  51               2.12670896E-01   2.03236866E+02   8.38084011E-01   1.60465572E-01   7.77988516E-04   5.29749873E-04   5.85473586E-05   2.69935462E-05   2.29826338E-05   2.97799253E-05  
  52               2.45608127E-01   2.12801201E+02   8.38033093E-01   1.60455823E-01   7.78009488E-04   5.29764152E-04   5.85488748E-05   2.69943570E-05   2.29812375E-05   9.04108038E-05  
  53               2.83553777E-01   2.22703262E+02   8.37565374E-01   1.60366270E-01   7.78072059E-04   5.29806758E-04   5.85535121E-05   2.69966239E-05   2.29684113E-05   6.47585604E-04  
  54               3.27272556E-01   2.33006844E+02   8.38108156E-01   1.60470195E-01   7.78553231E-04   5.30134398E-04   5.85896404E-05   2.70134292E-05   2.29832959E-05   0.00000000E+00  
  55               3.77685736E-01   2.43684655E+02   8.38108257E-01   1.60470214E-01   7.78485730E-04   5.30088434E-04   5.85844667E-05   2.70112132E-05   2.29832987E-05   0.00000000E+00  
  56               4.35854645E-01   2.54810493E+02   8.38108785E-01   1.60470315E-01   7.78134726E-04   5.29849427E-04   5.85579452E-05   2.69991778E-05   2.29833132E-05   0.00000000E+00  
  57               5.03025429E-01   2.66362151E+02   8.38108105E-01   1.60470185E-01   7.78587099E-04   5.30157457E-04   5.85918683E-05   2.70150347E-05   2.29832945E-05   0.00000000E+00  
  58               5.80561783E-01   2.78407271E+02   8.38108098E-01   1.60470184E-01   7.78591744E-04   5.30160619E-04   5.85920862E-05   2.70153725E-05   2.29832944E-05   0.00000000E+00  
  59               6.69946831E-01   2.90897419E+02   8.38108098E-01   1.60470184E-01   7.78591719E-04   5.30160600E-04   5.85919419E-05   2.70155627E-05   2.29832944E-05   0.00000000E+00  
  60               7.72954726E-01   3.03904816E+02   8.38108098E-01   1.60470184E-01   7.78591636E-04   5.30160543E-04   5.85917879E-05   2.70157581E-05   2.29832944E-05   0.00000000E+00  
  61               8.91587946E-01   3.17391280E+02   8.38108098E-01   1.60470184E-01   7.78591544E-04   5.30160479E-04   5.85916156E-05   2.70159768E-05   2.29832944E-05   0.00000000E+00  
  62               1.02817173E+00   3.31438508E+02   8.38108098E-01   1.60470184E-01   7.78591442E-04   5.30160408E-04   5.85914227E-05   2.70162216E-05   2.29832943E-05   0.00000000E+00  
  63               1.18533024E+00   3.46006388E+02   8.38108098E-01   1.60470184E-01   7.78591327E-04   5.30160328E-04   5.85912071E-05   2.70164954E-05   2.29832943E-05   0.00000000E+00  
  64               1.36603644E+00   3.61177970E+02   8.38108085E-01   1.60470181E-01   7.78591200E-04   5.30160240E-04   5.85909663E-05   2.70168013E-05   2.29832940E-05   0.00000000E+00  
  65               1.57364564E+00   3.76901746E+02   8.38108087E-01   1.60470180E-01   7.78591048E-04   5.30160134E-04   5.85906969E-05   2.70171421E-05   2.29832938E-05   0.00000000E+00  
  66               1.81185203E+00   3.93262711E+02   8.38108087E-01   1.60470180E-01   7.78590906E-04   5.30160035E-04   5.85903991E-05   2.70175225E-05   2.29832938E-05   0.00000000E+00  
  67               2.08497774E+00   4.10206244E+02   8.38108087E-01   1.60470180E-01   7.78590726E-04   5.30159910E-04   5.85900664E-05   2.70179443E-05   2.29832938E-05   0.00000000E+00  
  68               2.39771982E+00   4.27826837E+02   8.38107761E-01   1.60470117E-01   7.78590733E-04   5.30159912E-04   5.85897132E-05   2.70184193E-05   2.29832848E-05   0.00000000E+00  
  69               2.75515317E+00   4.46036028E+02   8.38107790E-01   1.60470085E-01   7.78590224E-04   5.30159563E-04   5.85892832E-05   2.70189272E-05   2.29832802E-05   0.00000000E+00  
  70               3.16269717E+00   4.64915935E+02   8.38107733E-01   1.60470076E-01   7.78589719E-04   5.30159216E-04   5.85888120E-05   2.70194910E-05   2.29832789E-05   0.00000000E+00  
  71               3.62610463E+00   4.84353736E+02   8.38107335E-01   1.60470048E-01   7.78596659E-04   5.30163938E-04   5.85888562E-05   2.70203734E-05   2.29832749E-05   0.00000000E+00  
  72               4.15254926E+00   5.04473524E+02   8.38107072E-01   1.60470309E-01   7.78597711E-04   5.30164650E-04   5.85884089E-05   2.70211163E-05   2.29833123E-05   0.00000000E+00  
  73               4.75026230E+00   5.25191363E+02   8.38104335E-01   1.60469774E-01   7.78597375E-04   5.30164417E-04   5.85878059E-05   2.70218800E-05   2.29832357E-05   0.00000000E+00  
  74               5.42819759E+00   5.46635172E+02   8.38104610E-01   1.60469495E-01   7.78599794E-04   5.30166059E-04   5.85873551E-05   2.70228133E-05   2.29831957E-05   0.00000000E+00  
  75               6.19552421E+00   5.68678091E+02   8.38104642E-01   1.60469468E-01   7.78596878E-04   5.30164068E-04   5.85864441E-05   2.70236403E-05   2.29831918E-05   0.00000000E+00  
  76               7.06156388E+00   5.91423300E+02   8.38104596E-01   1.60469403E-01   7.78658231E-04   5.30205840E-04   5.85903072E-05   2.70267812E-05   2.29831826E-05   0.00000000E+00  
  77               8.03725475E+00   6.14738778E+02   8.38104672E-01   1.60469327E-01   7.78658264E-04   5.30205857E-04   5.85894916E-05   2.70278805E-05   2.29831717E-05   0.00000000E+00  
  78               9.13603063E+00   6.38787847E+02   8.38104791E-01   1.60469209E-01   7.78657621E-04   5.30205413E-04   5.85885582E-05   2.70290464E-05   2.29831547E-05   0.00000000E+00  
  79               1.03721118E+01   6.63435288E+02   8.38104970E-01   1.60469031E-01   7.78656819E-04   5.30204860E-04   5.85875403E-05   2.70303040E-05   2.29831292E-05   0.00000000E+00  
  80               1.17596484E+01   6.88815780E+02   8.38105229E-01   1.60468773E-01   7.78655813E-04   5.30204167E-04   5.85864288E-05   2.70316598E-05   2.29830923E-05   0.00000000E+00  
  81               1.33126558E+01   7.14732798E+02   8.38105586E-01   1.60468416E-01   7.78654572E-04   5.30203315E-04   5.85852172E-05   2.70331184E-05   2.29830412E-05   0.00000000E+00  
  82               1.50456822E+01   7.41317956E+02   8.38106060E-01   1.60467942E-01   7.78653005E-04   5.30202240E-04   5.85838959E-05   2.70346799E-05   2.29829732E-05   0.00000000E+00  
  83               1.69814571E+01   7.68452235E+02   8.38106655E-01   1.60467340E-01   7.78651111E-04   5.30200942E-04   5.85824637E-05   2.70363462E-05   2.29828870E-05   0.00000000E+00  
  84               1.91482893E+01   7.96416757E+02   8.38107335E-01   1.60466592E-01   7.78648886E-04   5.30199419E-04   5.85809164E-05   2.70381225E-05   2.29827798E-05   0.00000000E+00  
  85               2.15747807E+01   8.25047872E+02   8.38108138E-01   1.60465724E-01   7.78646454E-04   5.30197754E-04   5.85792561E-05   2.70400225E-05   2.29826553E-05   0.00000000E+00  
  86               2.42873568E+01   8.54545248E+02   8.38108989E-01   1.60464733E-01   7.78643998E-04   5.30196072E-04   5.85774914E-05   2.70420597E-05   2.29825129E-05   0.00000000E+00  
  87               2.73094604E+01   8.84602830E+02   8.38109823E-01   1.60463659E-01   7.78645837E-04   5.30197315E-04   5.85759436E-05   2.70443892E-05   2.29823583E-05   0.00000000E+00  
  88               3.06615464E+01   9.15374041E+02   8.38110895E-01   1.60462576E-01   7.78643690E-04   5.30195843E-04   5.85739868E-05   2.70467272E-05   2.29822015E-05   0.00000000E+00  
  89               3.43774287E+01   9.46596141E+02   8.38111938E-01   1.60461491E-01   7.78644513E-04   5.30196393E-04   5.85721403E-05   2.70493205E-05   2.29916085E-05   0.00000000E+00  
  90               3.84963683E+01   9.78584518E+02   8.38112928E-01   1.60460409E-01   7.78641519E-04   5.30194344E-04   5.85698789E-05   2.70519535E-05   2.30141839E-05   0.00000000E+00  
  91               4.30540251E+01   1.01101193E+03   8.38113749E-01   1.60459362E-01   7.78639220E-04   5.30192768E-04   5.85675271E-05   2.70548028E-05   2.30677128E-05   0.00000000E+00  
  92               4.80820371E+01   1.04412240E+03   8.38114274E-01   1.60458327E-01   7.78638574E-04   5.30192316E-04   5.85651479E-05   2.70579140E-05   2.31907302E-05   0.00000000E+00  
  93               5.36079559E+01   1.07749940E+03   8.38113977E-01   1.60457253E-01   7.78641545E-04   5.30194325E-04   5.85628865E-05   2.70613589E-05   2.34552608E-05   0.00000000E+00  
  94               5.96543546E+01   1.11136086E+03   8.38113245E-01   1.60456276E-01   7.78660819E-04   5.30207420E-04   5.85617017E-05   2.70655731E-05   2.42850661E-05   0.00000000E+00  
  95               6.62671588E+01   1.14540272E+03   8.38113965E-01   1.60455512E-01   7.78658331E-04   5.30205614E-04   5.85587395E-05   2.70692250E-05   2.42848773E-05   0.00000000E+00  
  96               7.35338638E+01   1.18014277E+03   8.38114602E-01   1.60454788E-01   7.78656101E-04   5.30203591E-04   5.85556576E-05   2.70730964E-05   2.42846550E-05   0.00000000E+00  
  97               8.15242100E+01   1.21530289E+03   8.38115138E-01   1.60454109E-01   7.78653857E-04   5.30199878E-04   5.85524763E-05   2.70772126E-05   2.42843838E-05   0.00000000E+00  
  98               9.02964023E+01   1.25116770E+03   8.38115588E-01   1.60453445E-01   7.78648996E-04   5.30188136E-04   5.85492019E-05   2.70815766E-05   2.42840345E-05   0.00000000E+00  
  99               9.98977042E+01   1.28732782E+03   8.38115954E-01   1.60452800E-01   7.78632704E-04   5.30149577E-04   5.85458449E-05   2.70861668E-05   2.42835804E-05   0.00000000E+00  
  100              1.10365664E+02   1.32400835E+03   8.38116272E-01   1.60452144E-01   7.78587740E-04   5.30052200E-04   5.85424454E-05   2.70908821E-05   2.42829762E-05   0.00000000E+00  
  101              1.21730721E+02   1.36074349E+03   8.38022359E-01   1.60433443E-01   7.78237480E-04   5.29591926E-04   5.85340846E-05   2.70893889E-05   2.42794518E-05   0.00000000E+00  
