# ATMO chemical composition profiles
# Chemical abundances given as mole fraction for the 8 most abundant species
# Model Level      Pressure [Ba]    Temperature [K]  H2               He               H2O              CH4              H                CO               N2               H2S             
  1                1.00000000E-05   8.15576112E+01   8.38159722E-01   1.60480267E-01   7.52070284E-04   5.04471047E-04   3.16334517E-109  8.82753170E-06   5.41131955E-05   2.29827804E-05  
  2                5.46091439E-04   1.10334166E+02   8.38086158E-01   1.60466182E-01   7.52006008E-04   5.04427932E-04   1.69218857E-99   8.82677724E-06   5.41085750E-05   2.29807632E-05  
  3                1.11323976E-03   1.32859707E+02   8.38159606E-01   1.60480245E-01   7.52136952E-04   5.04515766E-04   2.95018906E-82   8.82831417E-06   5.41180127E-05   2.29827772E-05  
  4                1.74540798E-03   1.48101251E+02   8.38159416E-01   1.60480209E-01   7.52136892E-04   5.04515725E-04   1.40435108E-73   8.82831343E-06   5.41180192E-05   2.29827720E-05  
  5                2.46695998E-03   1.59353737E+02   8.38158066E-01   1.60479950E-01   7.52136361E-04   5.04515368E-04   2.99477082E-68   8.82830717E-06   5.41179897E-05   2.29827350E-05  
  6                3.29816636E-03   1.69799679E+02   8.38153443E-01   1.60479065E-01   7.52135312E-04   5.04514664E-04   6.17383065E-64   8.82829483E-06   5.41179216E-05   2.29826082E-05  
  7                4.26026152E-03   1.78472892E+02   8.38135330E-01   1.60475597E-01   7.52131106E-04   5.04511842E-04   9.57388146E-61   8.82824545E-06   5.41176257E-05   2.29821116E-05  
  8                5.37637612E-03   1.87365380E+02   8.38093767E-01   1.60467639E-01   7.52132492E-04   5.04512772E-04   8.86341116E-58   8.82826169E-06   5.41177317E-05   2.29809719E-05  
  9                6.67206419E-03   1.95272698E+02   8.37601954E-01   1.60373473E-01   7.52120272E-04   5.04504574E-04   2.25503979E-55   8.82811824E-06   5.41168584E-05   2.29674861E-05  
  10               8.17730813E-03   2.03685686E+02   8.38159381E-01   1.60480202E-01   7.52299826E-04   5.04625015E-04   5.13435285E-53   8.83022576E-06   5.41297836E-05   2.29827710E-05  
  11               9.92739179E-03   2.11162503E+02   8.38158742E-01   1.60480080E-01   7.52729039E-04   5.04912921E-04   4.38726895E-51   8.83526370E-06   5.41606722E-05   2.29827535E-05  
  12               1.19632024E-02   2.19202244E+02   8.38158741E-01   1.60480080E-01   7.52730014E-04   5.04913574E-04   3.75287326E-49   8.83527512E-06   5.41607479E-05   2.29827535E-05  
  13               1.43320908E-02   2.26375684E+02   8.38158747E-01   1.60480081E-01   7.52726108E-04   5.04910954E-04   1.50437728E-47   8.83522927E-06   5.41604725E-05   2.29827536E-05  
  14               1.70882858E-02   2.34077019E+02   8.38158741E-01   1.60480080E-01   7.52730057E-04   5.04913603E-04   6.17424270E-46   8.83527560E-06   5.41607621E-05   2.29827535E-05  
  15               2.02945954E-02   2.40947102E+02   8.38158741E-01   1.60480080E-01   7.52730104E-04   5.04913634E-04   1.37289553E-44   8.83527613E-06   5.41607709E-05   2.29827535E-05  
  16               2.40259478E-02   2.48491271E+02   8.38158741E-01   1.60480080E-01   7.52730119E-04   5.04913644E-04   3.41468080E-43   8.83527630E-06   5.41607773E-05   2.29827535E-05  
  17               2.83680670E-02   2.55396023E+02   8.38158741E-01   1.60480080E-01   7.52730134E-04   5.04913653E-04   5.42427254E-42   8.83527645E-06   5.41607833E-05   2.29827535E-05  
  18               3.34209624E-02   2.63016999E+02   8.38158741E-01   1.60480080E-01   7.52730149E-04   5.04913663E-04   9.75010199E-41   8.83527662E-06   5.41607896E-05   2.29827535E-05  
  19               3.93001423E-02   2.70058417E+02   8.38158740E-01   1.60480080E-01   7.52730165E-04   5.04913674E-04   1.20638366E-39   8.83527679E-06   5.41607962E-05   2.29827535E-05  
  20               4.61390672E-02   2.77877914E+02   8.38158740E-01   1.60480080E-01   7.52730182E-04   5.04913685E-04   1.70690854E-38   8.83527696E-06   5.41608031E-05   2.29827535E-05  
  21               5.40908959E-02   2.85254835E+02   8.38158740E-01   1.60480079E-01   7.52730199E-04   5.04913696E-04   1.80633309E-37   8.83527715E-06   5.41608103E-05   2.29827535E-05  
  22               6.33346189E-02   2.93434531E+02   8.38158740E-01   1.60480079E-01   7.52730217E-04   5.04913708E-04   2.16224626E-36   8.83527735E-06   5.41608179E-05   2.29827535E-05  
  23               7.40774571E-02   3.01200859E+02   8.38158740E-01   1.60480079E-01   7.52730236E-04   5.04913720E-04   2.00149124E-35   8.83527755E-06   5.41608258E-05   2.29827535E-05  
  24               8.65586726E-02   3.09846677E+02   8.38158740E-01   1.60480079E-01   7.52730256E-04   5.04913734E-04   2.10168245E-34   8.83527776E-06   5.41608342E-05   2.29827535E-05  
  25               1.01053043E-01   3.18201529E+02   8.38158740E-01   1.60480079E-01   7.52730279E-04   5.04913748E-04   1.79570719E-33   8.83527801E-06   5.41608430E-05   2.29827535E-05  
  26               1.17877957E-01   3.27489990E+02   8.38158740E-01   1.60480079E-01   7.52730301E-04   5.04913762E-04   1.72341643E-32   8.83527824E-06   5.41608523E-05   2.29827534E-05  
  27               1.37399204E-01   3.36528166E+02   8.38158740E-01   1.60480079E-01   7.52730328E-04   5.04913781E-04   1.37332687E-31   8.83527854E-06   5.41608623E-05   2.29827534E-05  
  28               1.60036078E-01   3.46575920E+02   8.38158739E-01   1.60480079E-01   7.52730352E-04   5.04913796E-04   1.22114217E-30   8.83527879E-06   5.41608726E-05   2.29827534E-05  
  29               1.86270404E-01   3.56547410E+02   8.38158739E-01   1.60480079E-01   7.52730393E-04   5.04913823E-04   9.41881277E-30   8.83527925E-06   5.41608845E-05   2.29827533E-05  
  30               2.16651874E-01   3.67753859E+02   8.38158729E-01   1.60480076E-01   7.52730409E-04   5.04913833E-04   8.24296222E-29   8.83527940E-06   5.41608951E-05   2.29827530E-05  
  31               2.51804364E-01   3.79061189E+02   8.38158730E-01   1.60480075E-01   7.52730693E-04   5.04914023E-04   6.44134678E-28   8.83528271E-06   5.41609256E-05   2.29827528E-05  
  32               2.92427794E-01   3.91676876E+02   8.38158732E-01   1.60480074E-01   7.52730721E-04   5.04914042E-04   5.57688195E-27   8.83528301E-06   5.41609383E-05   2.29827527E-05  
  33               3.39297639E-01   4.04531885E+02   8.38158482E-01   1.60480024E-01   7.52730749E-04   5.04914060E-04   4.37026499E-26   8.83528330E-06   5.41609516E-05   2.29827455E-05  
  34               3.93267498E-01   4.18940806E+02   8.38158511E-01   1.60479995E-01   7.52730258E-04   5.04913730E-04   3.79865719E-25   8.83527751E-06   5.41609283E-05   2.29827414E-05  
  35               4.55286882E-01   4.33909003E+02   8.38158506E-01   1.60479985E-01   7.52737363E-04   5.04918495E-04   3.08167457E-24   8.83536086E-06   5.41614523E-05   2.29827399E-05  
  36               5.26456550E-01   4.50654295E+02   8.38158495E-01   1.60479964E-01   7.52737370E-04   5.04918500E-04   2.73069838E-23   8.83536091E-06   5.41614666E-05   2.29827369E-05  
  37               6.07969965E-01   4.68162245E+02   8.38158130E-01   1.60479879E-01   7.52737474E-04   5.04918569E-04   2.26042734E-22   8.83536209E-06   5.41614888E-05   2.29827247E-05  
  38               7.01102495E-01   4.87808404E+02   8.38155089E-01   1.60479554E-01   7.52739426E-04   5.04919877E-04   2.03107103E-21   8.83538495E-06   5.41616451E-05   2.29826782E-05  
  39               8.07126254E-01   5.09525819E+02   8.38155519E-01   1.60479125E-01   7.52738604E-04   5.04919325E-04   1.89519665E-20   8.83537525E-06   5.41616031E-05   2.29826167E-05  
  40               9.27705359E-01   5.30529581E+02   8.38155701E-01   1.60478839E-01   7.52797456E-04   5.04958801E-04   1.37298272E-19   8.83606598E-06   5.41658562E-05   2.29825758E-05  
  41               1.06493243E+00   5.53650218E+02   8.38156218E-01   1.60478324E-01   7.52796474E-04   5.04958141E-04   1.02360908E-18   8.83605440E-06   5.41658056E-05   2.29825021E-05  
  42               1.22102712E+00   5.76031820E+02   8.38156978E-01   1.60477565E-01   7.52795443E-04   5.04957448E-04   6.10266142E-18   8.83604224E-06   5.41657533E-05   2.29823934E-05  
  43               1.39834596E+00   6.00693075E+02   8.38158222E-01   1.60476326E-01   7.52792882E-04   5.04955729E-04   3.75171142E-17   8.83601211E-06   5.41655928E-05   2.29822160E-05  
  44               1.59936392E+00   6.24487393E+02   8.38159738E-01   1.60474815E-01   7.52789604E-04   5.04953529E-04   1.87802012E-16   8.83597356E-06   5.41653829E-05   2.29819996E-05  
  45               1.82690095E+00   6.50685070E+02   8.38161780E-01   1.60472782E-01   7.52785272E-04   5.04950622E-04   9.68126357E-16   8.83592263E-06   5.41650996E-05   2.29817083E-05  
  46               2.08460928E+00   6.75945377E+02   8.38163828E-01   1.60470740E-01   7.52780715E-04   5.04947564E-04   4.14905858E-15   8.83586906E-06   5.41648033E-05   2.29814160E-05  
  47               2.37630195E+00   7.03830792E+02   8.38166168E-01   1.60468406E-01   7.52775656E-04   5.04944169E-04   1.83767655E-14   8.83580958E-06   5.41644745E-05   2.29810817E-05  
  48               2.70587691E+00   7.30651385E+02   8.38168186E-01   1.60466382E-01   7.52771146E-04   5.04941142E-04   6.86944346E-14   8.83575654E-06   5.41641898E-05   2.29807918E-05  
  49               3.07735209E+00   7.60195035E+02   8.38170245E-01   1.60464292E-01   7.52766807E-04   5.04938229E-04   2.64392434E-13   8.83570548E-06   5.41639230E-05   2.29804924E-05  
  50               3.49536014E+00   7.88480578E+02   8.38171728E-01   1.60462604E-01   7.52763628E-04   5.04936095E-04   8.69172960E-13   8.83566805E-06   5.41637456E-05   2.29802505E-05  
  51               3.96623376E+00   8.19704015E+02   8.38173141E-01   1.60460931E-01   7.52764809E-04   5.04936885E-04   2.94813267E-12   8.83568191E-06   5.41638882E-05   2.29800105E-05  
  52               4.49698214E+00   8.49637767E+02   8.38174372E-01   1.60459686E-01   7.52767097E-04   5.04938416E-04   8.69013984E-12   8.83570956E-06   5.41641166E-05   2.29798313E-05  
  53               5.09445377E+00   8.82710317E+02   8.38175564E-01   1.60458473E-01   7.52764674E-04   5.04936789E-04   2.64258940E-11   8.83568641E-06   5.41640118E-05   2.29859594E-05  
  54               5.76523846E+00   9.14260635E+02   8.38176404E-01   1.60457560E-01   7.52762962E-04   5.04935637E-04   7.04324444E-11   8.83569717E-06   5.41639634E-05   2.30014398E-05  
  55               6.51581682E+00   9.48976504E+02   8.38177112E-01   1.60456642E-01   7.52761940E-04   5.04934948E-04   1.92679224E-10   8.83583860E-06   5.41639692E-05   2.30495039E-05  
  56               7.35424393E+00   9.81896710E+02   8.38177293E-01   1.60455890E-01   7.52763014E-04   5.04935665E-04   4.65886384E-10   8.83659619E-06   5.41641294E-05   2.31689213E-05  
  57               8.29111252E+00   1.01817011E+03   8.38176745E-01   1.60454979E-01   7.52768380E-04   5.04939259E-04   1.15717607E-09   8.83981787E-06   5.41646011E-05   2.35021757E-05  
  58               9.33774970E+00   1.05254231E+03   8.38175904E-01   1.60454212E-01   7.52786595E-04   5.04951458E-04   2.57167884E-09   8.85309003E-06   5.41660006E-05   2.42847630E-05  
  59               1.05056072E+01   1.09044845E+03   8.38176684E-01   1.60453381E-01   7.52784529E-04   5.04949959E-04   5.87056740E-09   8.90081330E-06   5.41659515E-05   2.42845475E-05  
  60               1.18067342E+01   1.12621744E+03   8.38177439E-01   1.60452454E-01   7.52781968E-04   5.04947457E-04   1.20872115E-08   9.06734763E-06   5.41659341E-05   2.42842698E-05  
  61               1.32539782E+01   1.16566838E+03   8.38178421E-01   1.60450962E-01   7.52775588E-04   5.04938705E-04   2.55449588E-08   9.57094258E-06   5.41660141E-05   2.42838002E-05  
  62               1.48629005E+01   1.20180080E+03   8.38179020E-01   1.60449083E-01   7.52745428E-04   5.04893737E-04   4.82137259E-08   1.08903651E-05   5.41664724E-05   2.42831762E-05  
  63               1.66579297E+01   1.23747327E+03   8.38179132E-01   1.60446503E-01   7.52603160E-04   5.04692327E-04   8.67629049E-08   1.36456374E-05   5.41675361E-05   2.42822978E-05  
  64               1.86655788E+01   1.27133396E+03   8.38178947E-01   1.60443418E-01   7.52055775E-04   5.03957156E-04   1.46217035E-07   1.81121513E-05   5.41691743E-05   2.42811872E-05  
  65               2.09127148E+01   1.30580189E+03   8.38179965E-01   1.60439734E-01   7.50410391E-04   5.01854595E-04   2.41543028E-07   2.43978580E-05   5.41710783E-05   2.42797334E-05  
  66               2.34272894E+01   1.33936120E+03   8.38184343E-01   1.60436170E-01   7.46513499E-04   4.97202475E-04   3.82642686E-07   3.19500388E-05   5.41721241E-05   2.42780307E-05  
  67               2.62387831E+01   1.37438862E+03   8.38193497E-01   1.60432416E-01   7.39327452E-04   4.89220563E-04   6.03859016E-07   4.14448639E-05   5.41723538E-05   2.42758345E-05  
  68               2.93790300E+01   1.40928655E+03   8.38206470E-01   1.60428744E-01   7.29325461E-04   4.78795226E-04   9.27829845E-07   5.21827836E-05   5.41715481E-05   2.42731059E-05  
  69               3.28931873E+01   1.44634229E+03   8.38222969E-01   1.60424343E-01   7.16520406E-04   4.65708813E-04   1.43245021E-06   6.53828536E-05   5.41703770E-05   2.42692214E-05  
  70               3.68328092E+01   1.48382124E+03   8.38241151E-01   1.60419577E-01   7.02232483E-04   4.51201426E-04   2.16983617E-06   7.98678928E-05   5.41690534E-05   2.42637246E-05  
  71               4.12425401E+01   1.52382356E+03   8.38262393E-01   1.60413894E-01   6.85316829E-04   4.33982243E-04   3.30845977E-06   9.70496451E-05   5.41677938E-05   2.42545211E-05  
  72               4.61539756E+01   1.56453591E+03   8.38283161E-01   1.60407558E-01   6.67329835E-04   4.15630769E-04   4.96468065E-06   1.15335815E-04   5.41661719E-05   2.42379406E-05  
  73               5.15800738E+01   1.60792715E+03   8.38306900E-01   1.60400535E-01   6.48147626E-04   3.94430110E-04   7.49274441E-06   1.36453208E-04   5.41669419E-05   2.41334674E-05  
  74               5.75101995E+01   1.65216310E+03   8.38315480E-01   1.60390100E-01   6.26681119E-04   3.72661386E-04   1.11438188E-05   1.58107950E-04   5.41638467E-05   2.41190908E-05  
  75               6.38910848E+01   1.69921783E+03   8.38327398E-01   1.60380814E-01   6.19348725E-04   3.45202951E-04   1.66602257E-05   1.85432874E-04   5.41861483E-05   2.31343973E-05  
  76               7.07220914E+01   1.74588251E+03   8.38349518E-01   1.60372457E-01   5.96646581E-04   3.21709347E-04   2.42732829E-05   2.08772859E-04   5.41778840E-05   2.31031417E-05  
  77               7.80110861E+01   1.79163876E+03   8.38364320E-01   1.60364156E-01   5.76938729E-04   2.99830871E-04   3.43940484E-05   2.30476258E-04   5.41480208E-05   2.30481274E-05  
  78               8.56720463E+01   1.83641772E+03   8.38365698E-01   1.60354947E-01   5.62097210E-04   2.79021414E-04   4.75232471E-05   2.51086870E-04   5.40965775E-05   2.29346798E-05  
  79               9.34913629E+01   1.87871876E+03   8.38349335E-01   1.60344750E-01   5.55978667E-04   2.59277084E-04   6.35148622E-05   2.70619746E-04   5.40266302E-05   2.27151056E-05  
  80               1.01153081E+02   1.91769629E+03   8.38304571E-01   1.60331748E-01   5.61321578E-04   2.39849331E-04   8.19859520E-05   2.89832616E-04   5.39495034E-05   2.23634840E-05  
  81               1.09327879E+02   1.95653535E+03   8.38225877E-01   1.60316304E-01   5.92917900E-04   2.16284747E-04   1.04563863E-04   3.13193924E-04   5.38642409E-05   2.17174007E-05  
  82               1.16921040E+02   1.99073287E+03   8.38218059E-01   1.60310966E-01   5.82166022E-04   2.05320294E-04   1.28468324E-04   3.23947707E-04   5.37727109E-05   2.16920467E-05  
  83               1.23505266E+02   2.01880845E+03   8.38207779E-01   1.60306562E-01   5.74062329E-04   1.97031000E-04   1.51246302E-04   3.32049851E-04   5.36878306E-05   2.16704274E-05  
  84               1.30796889E+02   2.04864564E+03   8.38192867E-01   1.60301783E-01   5.66020063E-04   1.88778570E-04   1.78961658E-04   3.40088616E-04   5.35916444E-05   2.16461224E-05  
  85               1.38888604E+02   2.08003953E+03   8.38162571E-01   1.60294784E-01   5.58270796E-04   1.80796889E-04   2.12376209E-04   3.47821743E-04   5.34793964E-05   2.16192268E-05  
  86               1.47909271E+02   2.11353050E+03   8.38134827E-01   1.60289086E-01   5.50627666E-04   1.72880274E-04   2.53424786E-04   3.55459060E-04   5.33536813E-05   2.15888126E-05  
  87               1.55675952E+02   2.14093311E+03   8.38107272E-01   1.60284224E-01   5.44921855E-04   1.66932099E-04   2.91497434E-04   3.61161495E-04   5.32421623E-05   2.15627634E-05  
  88               1.61986068E+02   2.16252981E+03   8.38082313E-01   1.60280217E-01   5.40692099E-04   1.62478111E-04   3.24644203E-04   3.65410756E-04   5.31515851E-05   2.15411402E-05  
  89               1.69104858E+02   2.18590643E+03   8.38051899E-01   1.60275735E-01   5.36425556E-04   1.57994063E-04   3.63764631E-04   3.69661051E-04   5.30469976E-05   2.15169393E-05  
  90               1.77095037E+02   2.21134645E+03   8.37983085E-01   1.60264584E-01   5.32061275E-04   1.53355800E-04   4.10512962E-04   3.74011051E-04   5.29278166E-05   2.14884793E-05  
  91               1.86090842E+02   2.23869604E+03   8.37937721E-01   1.60258870E-01   5.27757946E-04   1.48767522E-04   4.65861482E-04   3.78292859E-04   5.27937705E-05   2.14574521E-05  
  92               1.96336133E+02   2.26877352E+03   8.37881347E-01   1.60252079E-01   5.23350720E-04   1.44027127E-04   5.33396749E-04   3.82674410E-04   5.26416752E-05   2.14211829E-05  
  93               2.04467001E+02   2.29160260E+03   8.37833708E-01   1.60246634E-01   5.20304506E-04   1.40712565E-04   5.89496040E-04   3.85700058E-04   5.25195468E-05   2.13925609E-05  
  94               2.10667824E+02   2.30867234E+03   8.37793233E-01   1.60241971E-01   5.18115181E-04   1.38314924E-04   6.34438588E-04   3.87871501E-04   5.24272526E-05   2.13700943E-05  
  95               2.17770948E+02   2.32752848E+03   8.37741340E-01   1.60236695E-01   5.20502482E-04   1.34956204E-04   6.87002082E-04   3.91001320E-04   5.23247572E-05   2.13613510E-05  
  96               2.25883923E+02   2.34862492E+03   8.37686537E-01   1.60230912E-01   5.18203347E-04   1.32280608E-04   7.49834046E-04   3.93378373E-04   5.22039893E-05   2.13321484E-05  
  97               2.35122831E+02   2.37169378E+03   8.37621871E-01   1.60224280E-01   5.15925427E-04   1.29580486E-04   8.23349219E-04   3.95735777E-04   5.20650868E-05   2.12993334E-05  
  98               2.45615360E+02   2.39716460E+03   8.37544389E-01   1.60216497E-01   5.13566675E-04   1.26743489E-04   9.10910983E-04   3.98175722E-04   5.19086759E-05   2.12613400E-05  
  99               2.57500928E+02   2.42472751E+03   8.37453160E-01   1.60207560E-01   5.11303780E-04   1.23946125E-04   1.01326921E-03   4.00518405E-04   5.17304235E-05   2.12188165E-05  
  100              2.70932259E+02   2.45478888E+03   8.37344355E-01   1.60197096E-01   5.09046893E-04   1.21086245E-04   1.13472344E-03   4.02853669E-04   5.15307459E-05   2.11700663E-05  
  101              2.86076235E+02   2.48698941E+03   8.37216724E-01   1.60185075E-01   5.06971887E-04   1.18337311E-04   1.27637211E-03   4.05003304E-04   5.13051419E-05   2.11158237E-05  
