# ATMO chemical composition profiles
# Chemical abundances given as mole fraction for the 8 most abundant species
# Model Level      Pressure [Ba]    Temperature [K]  H2               He               H2O              CH4              H                CO               N2               NH3             
  1                1.00000000E-05   1.13499440E+02   8.38124016E-01   1.60473435E-01   7.74386065E-04   5.25265192E-04   9.06985357E-96   9.44524973E-07   4.69724002E-05   2.77003525E-05  
  2                8.55917294E-05   1.35973264E+02   8.38123819E-01   1.60473397E-01   7.74385781E-04   5.25264999E-04   9.52834073E-80   9.44524626E-07   4.69723830E-05   2.77003423E-05  
  3                1.74452743E-04   1.48913623E+02   8.38122630E-01   1.60473169E-01   7.74371062E-04   5.25255015E-04   1.16141376E-72   9.44506673E-07   4.69714905E-05   2.76998159E-05  
  4                2.81154307E-04   1.58582847E+02   8.38116616E-01   1.60472018E-01   7.74387892E-04   5.25266430E-04   4.00069764E-68   9.44527200E-07   4.69725116E-05   2.77004180E-05  
  5                4.10097380E-04   1.67651551E+02   8.38108076E-01   1.60470383E-01   7.74315119E-04   5.25217069E-04   2.44065277E-64   9.44438439E-07   4.69680978E-05   2.76978149E-05  
  6                5.66608403E-04   1.74069075E+02   8.37992182E-01   1.60448193E-01   7.74410263E-04   5.25281605E-04   6.47419913E-62   9.44554486E-07   4.69738694E-05   2.77012184E-05  
  7                7.57020995E-04   1.81155220E+02   8.38124566E-01   1.60473540E-01   7.74023165E-04   5.25019037E-04   1.98358876E-59   9.44082340E-07   4.69503895E-05   2.76873718E-05  
  8                9.88838660E-04   1.86719042E+02   8.37624870E-01   1.60377865E-01   7.74536081E-04   5.25366947E-04   1.27478591E-57   9.44707947E-07   4.69815023E-05   2.77057193E-05  
  9                1.27121572E-03   1.93281590E+02   8.38123115E-01   1.60473262E-01   7.74996800E-04   5.25679452E-04   1.30267622E-55   9.45269890E-07   4.70094490E-05   2.77221998E-05  
  10               1.61542345E-03   1.98528035E+02   8.38123115E-01   1.60473262E-01   7.74996802E-04   5.25679454E-04   4.11803758E-54   9.45269892E-07   4.70094498E-05   2.77222001E-05  
  11               2.03516589E-03   2.04932712E+02   8.38123115E-01   1.60473262E-01   7.74996805E-04   5.25679455E-04   2.24725024E-52   9.45269895E-07   4.70094507E-05   2.77222004E-05  
  12               2.54704397E-03   2.10114061E+02   8.38123115E-01   1.60473262E-01   7.74996808E-04   5.25679457E-04   4.66911575E-51   9.45269899E-07   4.70094518E-05   2.77222008E-05  
  13               3.17124287E-03   2.16499955E+02   8.38123115E-01   1.60473262E-01   7.74996811E-04   5.25679460E-04   1.64397963E-49   9.45269903E-07   4.70094530E-05   2.77222012E-05  
  14               3.93232953E-03   2.21709852E+02   8.38123115E-01   1.60473262E-01   7.74996816E-04   5.25679463E-04   2.52378762E-48   9.45269907E-07   4.70094543E-05   2.77222017E-05  
  15               4.86019111E-03   2.28080112E+02   8.38123115E-01   1.60473262E-01   7.74996821E-04   5.25679466E-04   6.12671195E-47   9.45269913E-07   4.70094559E-05   2.77222024E-05  
  16               5.99090127E-03   2.33367125E+02   8.38123115E-01   1.60473262E-01   7.74996826E-04   5.25679470E-04   7.42143370E-46   9.45269919E-07   4.70094576E-05   2.77222031E-05  
  17               7.36843992E-03   2.39936660E+02   8.38123115E-01   1.60473262E-01   7.74996833E-04   5.25679474E-04   1.44198615E-44   9.45269927E-07   4.70094596E-05   2.77222039E-05  
  18               9.04621201E-03   2.45439041E+02   8.38123115E-01   1.60473262E-01   7.74996841E-04   5.25679479E-04   1.50140393E-43   9.45269935E-07   4.70094618E-05   2.77222048E-05  
  19               1.10888555E-02   2.52234739E+02   8.38123115E-01   1.60473262E-01   7.74996849E-04   5.25679485E-04   2.40042229E-42   9.45269945E-07   4.70094642E-05   2.77222058E-05  
  20               1.35742607E-02   2.58080901E+02   8.38123115E-01   1.60473262E-01   7.74996859E-04   5.25679492E-04   2.27824549E-41   9.45269956E-07   4.70094668E-05   2.77222070E-05  
  21               1.65971128E-02   2.65285427E+02   8.38123115E-01   1.60473262E-01   7.74996871E-04   5.25679499E-04   3.24172701E-40   9.45269968E-07   4.70094697E-05   2.77222083E-05  
  22               2.02715883E-02   2.71549945E+02   8.38123115E-01   1.60473262E-01   7.74996883E-04   5.25679508E-04   2.86159434E-39   9.45269982E-07   4.70094729E-05   2.77222097E-05  
  23               2.47357596E-02   2.79091700E+02   8.38123115E-01   1.60473262E-01   7.74996897E-04   5.25679517E-04   3.51285920E-38   9.45269998E-07   4.70094763E-05   2.77222112E-05  
  24               3.01568298E-02   2.85666066E+02   8.38123115E-01   1.60473262E-01   7.74996912E-04   5.25679527E-04   2.76112907E-37   9.45270015E-07   4.70094800E-05   2.77222129E-05  
  25               3.67385770E-02   2.93408703E+02   8.38123115E-01   1.60473262E-01   7.74996929E-04   5.25679539E-04   2.81663660E-36   9.45270034E-07   4.70094840E-05   2.77222148E-05  
  26               4.47265291E-02   3.00224219E+02   8.38123115E-01   1.60473262E-01   7.74996947E-04   5.25679551E-04   1.94051178E-35   9.45270055E-07   4.70094882E-05   2.77222168E-05  
  27               5.44163892E-02   3.08296350E+02   8.38123114E-01   1.60473262E-01   7.74996967E-04   5.25679564E-04   1.73177620E-34   9.45270077E-07   4.70094928E-05   2.77222189E-05  
  28               6.61642369E-02   3.15600741E+02   8.38123114E-01   1.60473262E-01   7.74996988E-04   5.25679578E-04   1.12498995E-33   9.45270101E-07   4.70094976E-05   2.77222212E-05  
  29               8.03993847E-02   3.24263348E+02   8.38123114E-01   1.60473262E-01   7.74997014E-04   5.25679596E-04   9.40214144E-33   9.45270130E-07   4.70095029E-05   2.77222238E-05  
  30               9.76377247E-02   3.32242173E+02   8.38123114E-01   1.60473262E-01   7.74997038E-04   5.25679612E-04   5.95694179E-32   9.45270158E-07   4.70095083E-05   2.77222264E-05  
  31               1.18500195E-01   3.41633062E+02   8.38123113E-01   1.60473262E-01   7.74997072E-04   5.25679635E-04   4.74292088E-31   9.45270197E-07   4.70095145E-05   2.77222295E-05  
  32               1.43733865E-01   3.50394076E+02   8.38123113E-01   1.60473261E-01   7.74997099E-04   5.25679652E-04   2.94159153E-30   9.45270227E-07   4.70095205E-05   2.77222324E-05  
  33               1.74242880E-01   3.60593794E+02   8.38123096E-01   1.60473258E-01   7.74997151E-04   5.25679687E-04   2.22555290E-29   9.45270287E-07   4.70095282E-05   2.77222363E-05  
  34               2.11104973E-01   3.70312089E+02   8.38123098E-01   1.60473256E-01   7.74997163E-04   5.25679696E-04   1.36778531E-28   9.45270300E-07   4.70095338E-05   2.77222389E-05  
  35               2.55606409E-01   3.81649828E+02   8.38123098E-01   1.60473255E-01   7.74997259E-04   5.25679760E-04   1.02310067E-27   9.45270413E-07   4.70095447E-05   2.77222447E-05  
  36               3.09267310E-01   3.92695268E+02   8.38123099E-01   1.60473254E-01   7.74997263E-04   5.25679763E-04   6.45365160E-27   9.45270415E-07   4.70095503E-05   2.77222472E-05  
  37               3.73879228E-01   4.05425744E+02   8.38123099E-01   1.60473253E-01   7.74998045E-04   5.25680293E-04   4.80460724E-26   9.45271366E-07   4.70096034E-05   2.77222778E-05  
  38               4.51545994E-01   4.17955542E+02   8.38122813E-01   1.60473195E-01   7.74998081E-04   5.25680317E-04   3.05715487E-25   9.45271406E-07   4.70096115E-05   2.77222818E-05  
  39               5.44778821E-01   4.32337095E+02   8.38122845E-01   1.60473163E-01   7.74997851E-04   5.25680160E-04   2.25958429E-24   9.45271122E-07   4.70096039E-05   2.77222765E-05  
  40               6.56545028E-01   4.46736546E+02   8.38122842E-01   1.60473155E-01   7.74997582E-04   5.25679978E-04   1.46482811E-23   9.45270790E-07   4.70095943E-05   2.77222699E-05  
  41               7.90276211E-01   4.63209177E+02   8.38122729E-01   1.60473126E-01   7.75005031E-04   5.25685030E-04   1.08624926E-22   9.45279872E-07   4.70100532E-05   2.77225396E-05  
  42               9.49926473E-01   4.80032026E+02   8.38122379E-01   1.60473132E-01   7.75005309E-04   5.25685218E-04   7.27183701E-22   9.45280207E-07   4.70100776E-05   2.77225530E-05  
  43               1.14016151E+00   4.99509688E+02   8.38119413E-01   1.60472776E-01   7.75011730E-04   5.25689573E-04   5.64832735E-21   9.45288033E-07   4.70104751E-05   2.77227864E-05  
  44               1.36620713E+00   5.19684705E+02   8.38119759E-01   1.60472439E-01   7.75006608E-04   5.25686098E-04   4.00731177E-20   9.45281781E-07   4.70101731E-05   2.77226072E-05  
  45               1.63436606E+00   5.41008811E+02   8.38119792E-01   1.60472299E-01   7.75067483E-04   5.25727389E-04   2.71130317E-19   9.45356025E-07   4.70138749E-05   2.77247890E-05  
  46               1.95177428E+00   5.64098178E+02   8.38120007E-01   1.60472084E-01   7.75067078E-04   5.25727114E-04   1.82924755E-18   9.45355525E-07   4.70138603E-05   2.77247791E-05  
  47               2.32701481E+00   5.88462691E+02   8.38120358E-01   1.60471735E-01   7.75066410E-04   5.25726660E-04   1.16511250E-17   9.45354705E-07   4.70138306E-05   2.77247602E-05  
  48               2.76931503E+00   6.14539320E+02   8.38120919E-01   1.60471176E-01   7.75065211E-04   5.25725846E-04   7.18855537E-17   9.45353235E-07   4.70137696E-05   2.77247227E-05  
  49               3.28841276E+00   6.41780921E+02   8.38121740E-01   1.60470358E-01   7.75063511E-04   5.25724692E-04   4.10310964E-16   9.45351155E-07   4.70136793E-05   2.77246678E-05  
  50               3.89588330E+00   6.70535141E+02   8.38122883E-01   1.60469219E-01   7.75060970E-04   5.25722968E-04   2.21202173E-15   9.45348048E-07   4.70135393E-05   2.77245834E-05  
  51               4.60660781E+00   7.00229834E+02   8.38124302E-01   1.60467803E-01   7.75057934E-04   5.25720908E-04   1.08735355E-14   9.45344337E-07   4.70133706E-05   2.77244819E-05  
  52               5.43642013E+00   7.31210559E+02   8.38125958E-01   1.60466146E-01   7.75054178E-04   5.25718359E-04   4.98269695E-14   9.45339746E-07   4.70131598E-05   2.77243554E-05  
  53               6.40161105E+00   7.63045196E+02   8.38127705E-01   1.60464379E-01   7.75050464E-04   5.25715838E-04   2.08858824E-13   9.45335208E-07   4.70129533E-05   2.77242312E-05  
  54               7.52070384E+00   7.96285860E+02   8.38129352E-01   1.60462523E-01   7.75046697E-04   5.25713283E-04   8.24561939E-13   9.45330626E-07   4.70127454E-05   2.77241059E-05  
  55               8.82067979E+00   8.30829281E+02   8.38130904E-01   1.60460704E-01   7.75043974E-04   5.25711434E-04   3.05298632E-12   9.45327477E-07   4.70126025E-05   2.77240188E-05  
  56               1.03304566E+01   8.67411139E+02   8.38132620E-01   1.60458975E-01   7.75044959E-04   5.25712101E-04   1.08972237E-11   9.45330102E-07   4.70126864E-05   2.77240650E-05  
  57               1.20766455E+01   9.05759396E+02   8.38134191E-01   1.60457368E-01   7.75045985E-04   5.25712796E-04   3.70087225E-11   9.45342063E-07   4.70127744E-05   2.77241136E-05  
  58               1.40822325E+01   9.46199839E+02   8.38135569E-01   1.60455873E-01   7.75042960E-04   5.25710742E-04   1.20675762E-10   9.45414186E-07   4.70126182E-05   2.77240178E-05  
  59               1.63761460E+01   9.88090221E+02   8.38136530E-01   1.60454517E-01   7.75041263E-04   5.25709589E-04   3.70251999E-10   9.45914107E-07   4.70125438E-05   2.77239701E-05  
  60               1.90022013E+01   1.03150370E+03   8.38136427E-01   1.60453174E-01   7.75042684E-04   5.25710551E-04   1.07336331E-09   9.48915834E-07   4.70126596E-05   2.77240345E-05  
  61               2.20018763E+01   1.07550628E+03   8.38135614E-01   1.60452026E-01   7.75066384E-04   5.25726613E-04   2.88365623E-09   9.64910954E-07   4.70141283E-05   2.77248965E-05  
  62               2.54149674E+01   1.11981062E+03   8.38136419E-01   1.60451144E-01   7.75064258E-04   5.25725034E-04   7.18917162E-09   1.03620130E-06   4.70140392E-05   2.77248398E-05  
  63               2.92884526E+01   1.16348431E+03   8.38136994E-01   1.60450311E-01   7.75062102E-04   5.25722366E-04   1.64567428E-08   1.28319285E-06   4.70140237E-05   2.77248262E-05  
  64               3.36874010E+01   1.20687790E+03   8.38137279E-01   1.60449407E-01   7.75053631E-04   5.25708223E-04   3.51809683E-08   1.89440707E-06   4.70141565E-05   2.77248993E-05  
  65               3.87021493E+01   1.24927325E+03   8.38137299E-01   1.60448401E-01   7.74998899E-04   5.25624928E-04   6.98854809E-08   2.96716188E-06   4.70144701E-05   2.77250745E-05  
  66               4.44149196E+01   1.29125457E+03   8.38137412E-01   1.60447261E-01   7.74739707E-04   5.25260049E-04   1.31387634E-07   4.53312552E-06   4.70149630E-05   2.77253367E-05  
  67               5.08983161E+01   1.33234720E+03   8.38138358E-01   1.60446112E-01   7.73871837E-04   5.24142713E-04   2.33506610E-07   6.58513450E-06   4.70152665E-05   2.77254188E-05  
  68               5.82155452E+01   1.37347073E+03   8.38140812E-01   1.60444974E-01   7.71941226E-04   5.21899413E-04   4.00110262E-07   9.23316802E-06   4.70153982E-05   2.77251842E-05  
  69               6.64517156E+01   1.41444364E+03   8.38144548E-01   1.60443791E-01   7.68991497E-04   5.18716923E-04   6.61515050E-07   1.24957687E-05   4.70152956E-05   2.77242243E-05  
  70               7.57771111E+01   1.45652314E+03   8.38149358E-01   1.60442372E-01   7.65100888E-04   5.14624904E-04   1.07530825E-06   1.65946616E-05   4.70153049E-05   2.77217845E-05  
  71               8.63310098E+01   1.49963733E+03   8.38155134E-01   1.60440668E-01   7.60284282E-04   5.09599175E-04   1.71744399E-06   2.16010927E-05   4.70159359E-05   2.77158858E-05  
  72               9.82068378E+01   1.54496460E+03   8.38162202E-01   1.60438489E-01   7.54186119E-04   5.03227161E-04   2.73348456E-06   2.79388820E-05   4.70185910E-05   2.76997171E-05  
  73               1.11438858E+02   1.59222633E+03   8.38170388E-01   1.60435727E-01   7.46645562E-04   4.95339267E-04   4.31692339E-06   3.57748256E-05   4.70277647E-05   2.76576664E-05  
  74               1.25999819E+02   1.64239992E+03   8.38179612E-01   1.60432051E-01   7.37263064E-04   4.85280813E-04   6.82841227E-06   4.57566074E-05   4.70566771E-05   2.75466194E-05  
  75               1.41876111E+02   1.69574537E+03   8.38174844E-01   1.60424442E-01   7.26143232E-04   4.72494350E-04   1.08192583E-05   5.84219374E-05   4.71184793E-05   2.73367293E-05  
  76               1.59078751E+02   1.74777349E+03   8.38169748E-01   1.60419136E-01   7.31329954E-04   4.57563441E-04   1.64575405E-05   7.32101296E-05   4.71461979E-05   2.72509575E-05  
  77               1.77668796E+02   1.79987197E+03   8.38179950E-01   1.60413685E-01   7.17594386E-04   4.42990220E-04   2.44262957E-05   8.76012928E-05   4.71240505E-05   2.72392282E-05  
  78               1.97741418E+02   1.85084585E+03   8.38183308E-01   1.60407499E-01   7.05279632E-04   4.28378327E-04   3.51074379E-05   1.01988883E-04   4.70363860E-05   2.73497150E-05  
  79               2.19270099E+02   1.90168122E+03   8.38176041E-01   1.60400105E-01   6.96522784E-04   4.13061612E-04   4.94024480E-05   1.17028494E-04   4.69149807E-05   2.75137349E-05  
  80               2.41918610E+02   1.95048531E+03   8.38147490E-01   1.60390688E-01   6.96568063E-04   3.97459179E-04   6.73161090E-05   1.32308516E-04   4.67444768E-05   2.77670230E-05  
  81               2.65109030E+02   1.99723095E+03   8.38086659E-01   1.60377736E-01   7.10241852E-04   3.80441988E-04   8.91983696E-05   1.48960727E-04   4.65563767E-05   2.80480230E-05  
  82               2.90812174E+02   2.04494010E+03   8.38013127E-01   1.60365086E-01   7.38032633E-04   3.61279292E-04   1.17143067E-04   1.67714474E-04   4.63237346E-05   2.84112209E-05  
  83               3.17063997E+02   2.09050614E+03   8.37997796E-01   1.60358825E-01   7.26534254E-04   3.49320057E-04   1.50102298E-04   1.79219694E-04   4.60729114E-05   2.88011750E-05  
  84               3.42953092E+02   2.13241105E+03   8.37966833E-01   1.60350859E-01   7.16677192E-04   3.38988084E-04   1.86604269E-04   1.89070195E-04   4.58125314E-05   2.92079095E-05  
  85               3.72512884E+02   2.17725377E+03   8.37936660E-01   1.60344083E-01   7.06874836E-04   3.28604938E-04   2.33181031E-04   1.98878695E-04   4.55083961E-05   2.96849659E-05  
  86               3.99080453E+02   2.21517257E+03   8.37904093E-01   1.60337978E-01   6.99195883E-04   3.20372934E-04   2.79366127E-04   2.06567132E-04   4.52304368E-05   3.01210613E-05  
  87               4.21098866E+02   2.24479131E+03   8.37873639E-01   1.60332991E-01   6.93699091E-04   3.14399724E-04   3.20137607E-04   2.12076876E-04   4.49937669E-05   3.04953755E-05  
  88               4.46765148E+02   2.27817378E+03   8.37833849E-01   1.60326997E-01   6.87778538E-04   3.07865743E-04   3.71654944E-04   2.18044972E-04   4.47229248E-05   3.09190026E-05  
  89               4.76568972E+02   2.31435149E+03   8.37748917E-01   1.60313578E-01   6.82018633E-04   3.01459341E-04   4.34270639E-04   2.23761940E-04   4.43961869E-05   3.14329467E-05  
  90               5.11343200E+02   2.35511662E+03   8.37676487E-01   1.60305021E-01   6.80250769E-04   2.93601261E-04   5.14671105E-04   2.30813418E-04   4.40320396E-05   3.20035075E-05  
  91               5.40862856E+02   2.38690634E+03   8.37617268E-01   1.60298198E-01   6.76353287E-04   2.88861066E-04   5.84400181E-04   2.34857968E-04   4.37079199E-05   3.25206182E-05  
  92               5.65004449E+02   2.41286427E+03   8.37563852E-01   1.60292120E-01   6.73047432E-04   2.84832613E-04   6.47053430E-04   2.38281095E-04   4.34578063E-05   3.29081660E-05  
  93               5.93754187E+02   2.44141392E+03   8.37499499E-01   1.60285266E-01   6.70109237E-04   2.81063506E-04   7.21004424E-04   2.41343231E-04   4.31462034E-05   3.34042822E-05  
  94               6.27863299E+02   2.47481348E+03   8.37416410E-01   1.60276545E-01   6.66644220E-04   2.76575607E-04   8.16076634E-04   2.44948821E-04   4.27923632E-05   3.39559399E-05  
  95               6.68165891E+02   2.51108435E+03   8.37316394E-01   1.60266618E-01   6.63754202E-04   2.72508109E-04   9.28651358E-04   2.47985347E-04   4.23629880E-05   3.46394883E-05  
  96               7.15606523E+02   2.55238307E+03   8.37189115E-01   1.60254208E-01   6.60630448E-04   2.67954474E-04   1.07118689E-03   2.51271837E-04   4.18760239E-05   3.54033081E-05  
  97               7.71236052E+02   2.59652406E+03   8.37037183E-01   1.60240045E-01   6.58369683E-04   2.64047712E-04   1.23919978E-03   2.53704561E-04   4.12989584E-05   3.63239277E-05  
  98               8.36204327E+02   2.64552399E+03   8.36847450E-01   1.60222637E-01   6.56237691E-04   2.59937513E-04   1.44810164E-03   2.56031891E-04   4.06494136E-05   3.73494729E-05  
  99               9.11737432E+02   2.69694062E+03   8.36624757E-01   1.60202883E-01   6.55280995E-04   2.56710000E-04   1.69105374E-03   2.57206803E-04   3.98977989E-05   3.85536066E-05  
  100              9.99093447E+02   2.75261036E+03   8.36353617E-01   1.60179104E-01   6.54809812E-04   2.53542588E-04   1.98595050E-03   2.57939974E-04   3.90636427E-05   3.98804400E-05  
  101              1.09956622E+03   2.81076480E+03   8.36037012E-01   1.60151845E-01   6.55456636E-04   2.51078467E-04   2.32859901E-03   2.57608383E-04   3.81314425E-05   4.13717490E-05  
