# ATMO chemical composition profiles
# Chemical abundances given as mole fraction for the 8 most abundant species
# Model Level      Pressure [Ba]    Temperature [K]  H2               He               H2O              CH4              NH3              H2S              N2               H2O(s)          
  1                1.00000000E-05   2.29853279E+01   8.38078854E-01   1.60464584E-01   7.78568136E-04   5.30707888E-04   1.11606371E-04   2.29812386E-05   8.41314460E-06   0.00000000E+00  
  2                6.85763634E-05   2.73322173E+01   8.38078854E-01   1.60464585E-01   7.78568023E-04   5.30707811E-04   1.11605743E-04   2.29812386E-05   8.41314081E-06   0.00000000E+00  
  3                1.37764930E-04   3.03097516E+01   8.38078854E-01   1.60464585E-01   7.78567989E-04   5.30707787E-04   1.11605495E-04   2.29812386E-05   8.41313941E-06   0.00000000E+00  
  4                2.19487931E-04   3.16619016E+01   8.38078855E-01   1.60464585E-01   7.78567969E-04   5.30707774E-04   1.11605358E-04   2.29812386E-05   8.41313864E-06   0.00000000E+00  
  5                3.16008298E-04   3.36176143E+01   8.38078855E-01   1.60464585E-01   7.78567956E-04   5.30707765E-04   1.11605260E-04   2.29812386E-05   8.41313809E-06   0.00000000E+00  
  6                4.29982352E-04   3.44788502E+01   8.38078855E-01   1.60464585E-01   7.78567945E-04   5.30707757E-04   1.11605181E-04   2.29812386E-05   8.41313765E-06   0.00000000E+00  
  7                5.64552296E-04   3.61692616E+01   8.38078855E-01   1.60464585E-01   7.78567936E-04   5.30707751E-04   1.11605112E-04   2.29812386E-05   8.41313726E-06   0.00000000E+00  
  8                7.23394043E-04   3.68789624E+01   8.38078855E-01   1.60464585E-01   7.78567927E-04   5.30707745E-04   1.11605050E-04   2.29812386E-05   8.41313692E-06   0.00000000E+00  
  9                9.10852034E-04   3.84903676E+01   8.38078855E-01   1.60464585E-01   7.78567919E-04   5.30707740E-04   1.11604991E-04   2.29812386E-05   8.41313659E-06   0.00000000E+00  
  10               1.13203177E-03   3.91261676E+01   8.38078855E-01   1.60464585E-01   7.78567912E-04   5.30707735E-04   1.11604935E-04   2.29812386E-05   8.41313628E-06   0.00000000E+00  
  11               1.39289474E-03   4.07444710E+01   8.38078855E-01   1.60464585E-01   7.78567905E-04   5.30707730E-04   1.11604880E-04   2.29812386E-05   8.41313597E-06   0.00000000E+00  
  12               1.70046458E-03   4.13759565E+01   8.38078855E-01   1.60464585E-01   7.78567897E-04   5.30707725E-04   1.11604825E-04   2.29812386E-05   8.41313567E-06   0.00000000E+00  
  13               2.06300999E-03   4.30369065E+01   8.38078855E-01   1.60464585E-01   7.78567890E-04   5.30707720E-04   1.11604770E-04   2.29812386E-05   8.41313537E-06   0.00000000E+00  
  14               2.49014790E-03   4.36983633E+01   8.38078855E-01   1.60464585E-01   7.78567883E-04   5.30707715E-04   1.11604716E-04   2.29812386E-05   8.41313506E-06   0.00000000E+00  
  15               2.99305715E-03   4.54745916E+01   8.38078855E-01   1.60464585E-01   7.78567876E-04   5.30707710E-04   1.11604661E-04   2.29812386E-05   8.41313476E-06   0.00000000E+00  
  16               3.58496618E-03   4.62069839E+01   8.38078855E-01   1.60464585E-01   7.78567869E-04   5.30707705E-04   1.11604604E-04   2.29812386E-05   8.41313445E-06   0.00000000E+00  
  17               4.28128201E-03   4.80987950E+01   8.38078855E-01   1.60464585E-01   7.78567861E-04   5.30707700E-04   1.11604547E-04   2.29812386E-05   8.41313413E-06   0.00000000E+00  
  18               5.09976995E-03   4.89174031E+01   8.38078856E-01   1.60464585E-01   7.78567854E-04   5.30707695E-04   1.11604487E-04   2.29812386E-05   8.41313380E-06   0.00000000E+00  
  19               6.06087678E-03   5.09627323E+01   8.38078856E-01   1.60464585E-01   7.78567846E-04   5.30707690E-04   1.11604426E-04   2.29812386E-05   8.41313347E-06   0.00000000E+00  
  20               7.18867961E-03   5.18716977E+01   8.38078856E-01   1.60464585E-01   7.78567838E-04   5.30707684E-04   1.11604362E-04   2.29812386E-05   8.41313312E-06   0.00000000E+00  
  21               8.51110908E-03   5.40430857E+01   8.38078856E-01   1.60464585E-01   7.78567829E-04   5.30707678E-04   1.11604295E-04   2.29812386E-05   8.41313275E-06   0.00000000E+00  
  22               1.00602067E-02   5.50225973E+01   8.38078856E-01   1.60464585E-01   7.78567820E-04   5.30707672E-04   1.11604224E-04   2.29812386E-05   8.41313236E-06   0.00000000E+00  
  23               1.18726090E-02   5.73825421E+01   8.38078856E-01   1.60464585E-01   7.78567810E-04   5.30707666E-04   1.11604147E-04   2.29812386E-05   8.41313194E-06   0.00000000E+00  
  24               1.39905552E-02   5.85253132E+01   8.38078856E-01   1.60464585E-01   7.78567800E-04   5.30707659E-04   1.11604064E-04   2.29812386E-05   8.41313148E-06   0.00000000E+00  
  25               1.64631649E-02   6.12206461E+01   8.38078856E-01   1.60464585E-01   7.78567788E-04   5.30707651E-04   1.11603972E-04   2.29812386E-05   8.41313098E-06   0.00000000E+00  
  26               1.93473880E-02   6.27165267E+01   8.38078856E-01   1.60464585E-01   7.78567775E-04   5.30707642E-04   1.11603871E-04   2.29812386E-05   8.41313042E-06   0.00000000E+00  
  27               2.27092748E-02   6.60013478E+01   8.38078856E-01   1.60464585E-01   7.78567761E-04   5.30707632E-04   1.11603758E-04   2.29812386E-05   8.41312980E-06   0.00000000E+00  
  28               2.66250404E-02   6.84487304E+01   8.38078856E-01   1.60464585E-01   7.78567745E-04   5.30707621E-04   1.11603631E-04   2.29812386E-05   8.41312911E-06   0.00000000E+00  
  29               3.11819929E-02   7.19374010E+01   8.38078857E-01   1.60464585E-01   7.78567728E-04   5.30707609E-04   1.11603487E-04   2.29812386E-05   8.41312832E-06   0.00000000E+00  
  30               3.64741765E-02   7.55844943E+01   8.38078857E-01   1.60464585E-01   7.78567708E-04   5.30707596E-04   1.11603326E-04   2.29812387E-05   8.41312745E-06   0.00000000E+00  
  31               4.26096880E-02   7.93743699E+01   8.38078857E-01   1.60464585E-01   7.78567686E-04   5.30707581E-04   1.11603152E-04   2.29812387E-05   8.41312650E-06   0.00000000E+00  
  32               4.97222834E-02   8.33360479E+01   8.38078857E-01   1.60464585E-01   7.78567666E-04   5.30707567E-04   1.11602986E-04   2.29812387E-05   8.41312559E-06   0.00000000E+00  
  33               5.79714547E-02   8.74604437E+01   8.38078857E-01   1.60464585E-01   7.78567651E-04   5.30707557E-04   1.11602866E-04   2.29812387E-05   8.41312494E-06   0.00000000E+00  
  34               6.75430489E-02   9.17811319E+01   8.38078857E-01   1.60464585E-01   7.78567640E-04   5.30707549E-04   1.11602777E-04   2.29812387E-05   8.41312445E-06   0.00000000E+00  
  35               7.86582428E-02   9.62890991E+01   8.38078857E-01   1.60464585E-01   7.78567632E-04   5.30707544E-04   1.11602715E-04   2.29812387E-05   8.41312411E-06   7.08661550E-19  
  36               9.15761143E-02   1.01022444E+02   8.38078830E-01   1.60464580E-01   7.78567627E-04   5.30707541E-04   1.11602676E-04   2.29812379E-05   8.41312390E-06   2.57775801E-17  
  37               1.06598419E-01   1.05969981E+02   8.38078730E-01   1.60464561E-01   7.78567610E-04   5.30707529E-04   1.11602631E-04   2.29812352E-05   8.41312353E-06   3.17634370E-16  
  38               1.24069447E-01   1.11169982E+02   8.38078320E-01   1.60464482E-01   7.78567591E-04   5.30707516E-04   1.11602581E-04   2.29812239E-05   8.41312313E-06   3.42869967E-15  
  39               1.44394680E-01   1.16608410E+02   8.38076707E-01   1.60464173E-01   7.78567533E-04   5.30707476E-04   1.11602522E-04   2.29811797E-05   8.41312229E-06   3.40595013E-14  
  40               1.68052664E-01   1.22385495E+02   8.38070862E-01   1.60463054E-01   7.78567384E-04   5.30707375E-04   1.11602443E-04   2.29810194E-05   8.41312044E-06   3.07674472E-13  
  41               1.95606408E-01   1.28499775E+02   8.37987651E-01   1.60447122E-01   7.78567048E-04   5.30707146E-04   1.11602331E-04   2.29787377E-05   8.41311654E-06   2.53818836E-12  
  42               2.27710323E-01   1.34982487E+02   8.38078834E-01   1.60464581E-01   7.78583127E-04   5.30718106E-04   1.11604564E-04   2.29812380E-05   8.41328998E-06   1.89322920E-11  
  43               2.65120748E-01   1.41820184E+02   8.38078712E-01   1.60464557E-01   7.78662411E-04   5.30772150E-04   1.11615846E-04   2.29812347E-05   8.41414638E-06   1.29457059E-10  
  44               3.08725630E-01   1.49059474E+02   8.38078710E-01   1.60464557E-01   7.78663144E-04   5.30772649E-04   1.11615857E-04   2.29812346E-05   8.41415390E-06   7.88019539E-10  
  45               3.59571209E-01   1.56623288E+02   8.38078707E-01   1.60464556E-01   7.78663136E-04   5.30772644E-04   1.11615747E-04   2.29812345E-05   8.41415336E-06   4.42508378E-09  
  46               4.18901098E-01   1.64613932E+02   8.38078692E-01   1.60464553E-01   7.78663119E-04   5.30772633E-04   1.11615618E-04   2.29812341E-05   8.41415265E-06   2.24790376E-08  
  47               4.88173863E-01   1.72985705E+02   8.38078622E-01   1.60464540E-01   7.78663097E-04   5.30772617E-04   1.11615468E-04   2.29812322E-05   8.41415179E-06   1.05905900E-07  
  48               5.69094679E-01   1.81826044E+02   8.38078332E-01   1.60464485E-01   7.78663063E-04   5.30772594E-04   1.11615292E-04   2.29812243E-05   8.41415071E-06   4.51791139E-07  
  49               6.63668156E-01   1.91056416E+02   8.38077215E-01   1.60464271E-01   7.78663003E-04   5.30772554E-04   1.11615083E-04   2.29811936E-05   8.41414923E-06   1.78345826E-06  
  50               7.73971756E-01   2.00744825E+02   8.38073373E-01   1.60463535E-01   7.78662944E-04   5.30772513E-04   1.11614843E-04   2.29810883E-05   8.41414762E-06   6.36088053E-06  
  51               9.02266975E-01   2.10779765E+02   8.38060998E-01   1.60461166E-01   7.78662988E-04   5.30772543E-04   1.11614581E-04   2.29807489E-05   8.41414696E-06   2.11059895E-05  
  52               1.05124395E+00   2.21257435E+02   8.38024954E-01   1.60454265E-01   7.78664275E-04   5.30773421E-04   1.11614457E-04   2.29797606E-05   8.41415959E-06   6.40499203E-05  
  53               1.22422569E+00   2.32095309E+02   8.37924847E-01   1.60435097E-01   7.78669588E-04   5.30777042E-04   1.11614867E-04   2.29770155E-05   8.41421552E-06   1.83318009E-04  
  54               1.42535562E+00   2.43424378E+02   8.37656871E-01   1.60383789E-01   7.78375268E-04   5.30576420E-04   1.11572281E-04   2.29696672E-05   8.41103347E-06   5.03153130E-04  
  55               1.65955518E+00   2.55182444E+02   8.38077776E-01   1.60464378E-01   7.79271308E-04   5.31187202E-04   1.11700273E-04   2.29812090E-05   8.42071411E-06   0.00000000E+00  
  56               1.93238185E+00   2.67498623E+02   8.38077769E-01   1.60464377E-01   7.79275917E-04   5.31190343E-04   1.11700443E-04   2.29812088E-05   8.42076186E-06   0.00000000E+00  
  57               2.25005007E+00   2.80290694E+02   8.38077770E-01   1.60464377E-01   7.79275891E-04   5.31190326E-04   1.11699908E-04   2.29812088E-05   8.42075936E-06   0.00000000E+00  
  58               2.61927995E+00   2.93662107E+02   8.38077770E-01   1.60464377E-01   7.79275821E-04   5.31190278E-04   1.11699339E-04   2.29812089E-05   8.42075626E-06   0.00000000E+00  
  59               3.04763603E+00   3.07515391E+02   8.38077771E-01   1.60464377E-01   7.79275742E-04   5.31190225E-04   1.11698703E-04   2.29812089E-05   8.42075280E-06   0.00000000E+00  
  60               3.54347021E+00   3.21953289E+02   8.38077772E-01   1.60464377E-01   7.79275655E-04   5.31190165E-04   1.11697993E-04   2.29812089E-05   8.42074894E-06   0.00000000E+00  
  61               4.11664494E+00   3.36887623E+02   8.38077772E-01   1.60464377E-01   7.79275558E-04   5.31190099E-04   1.11697203E-04   2.29812089E-05   8.42074465E-06   0.00000000E+00  
  62               4.77875967E+00   3.52449794E+02   8.38077773E-01   1.60464377E-01   7.79275452E-04   5.31190026E-04   1.11696324E-04   2.29812089E-05   8.42073990E-06   0.00000000E+00  
  63               5.54261858E+00   3.68543623E+02   8.38077764E-01   1.60464376E-01   7.79275344E-04   5.31189953E-04   1.11695354E-04   2.29812087E-05   8.42073475E-06   0.00000000E+00  
  64               6.42167714E+00   3.85281025E+02   8.38077766E-01   1.60464375E-01   7.79275201E-04   5.31189855E-04   1.11694281E-04   2.29812086E-05   8.42072881E-06   0.00000000E+00  
  65               7.42959681E+00   4.02522408E+02   8.38077767E-01   1.60464375E-01   7.79275199E-04   5.31189854E-04   1.11693125E-04   2.29812086E-05   8.42072397E-06   0.00000000E+00  
  66               8.58300439E+00   4.20398886E+02   8.38077768E-01   1.60464375E-01   7.79275048E-04   5.31189751E-04   1.11691834E-04   2.29812086E-05   8.42071705E-06   0.00000000E+00  
  67               9.89944631E+00   4.38774136E+02   8.38077367E-01   1.60464299E-01   7.79274574E-04   5.31189428E-04   1.11690376E-04   2.29811976E-05   8.42070614E-06   0.00000000E+00  
  68               1.13960116E+01   4.57745739E+02   8.38077391E-01   1.60464257E-01   7.79281538E-04   5.31194175E-04   1.11689859E-04   2.29811917E-05   8.42077508E-06   0.00000000E+00  
  69               1.30893046E+01   4.77129960E+02   8.38077304E-01   1.60464245E-01   7.79281457E-04   5.31194120E-04   1.11688203E-04   2.29811900E-05   8.42076737E-06   0.00000000E+00  
  70               1.49960564E+01   4.97021358E+02   8.38076924E-01   1.60464249E-01   7.79281498E-04   5.31194148E-04   1.11686436E-04   2.29811905E-05   8.42076044E-06   0.00000000E+00  
  71               1.71428900E+01   5.17315658E+02   8.38076674E-01   1.60464490E-01   7.79287816E-04   5.31198454E-04   1.11685432E-04   2.29812250E-05   8.42082079E-06   0.00000000E+00  
  72               1.95622537E+01   5.38221939E+02   8.38076677E-01   1.60464489E-01   7.79287631E-04   5.31198328E-04   1.11683355E-04   2.29812250E-05   8.42081028E-06   0.00000000E+00  
  73               2.22850498E+01   5.59592784E+02   8.38074013E-01   1.60463977E-01   7.79284863E-04   5.31196441E-04   1.11680767E-04   2.29811516E-05   8.42077128E-06   0.00000000E+00  
  74               2.53396565E+01   5.81561135E+02   8.38074183E-01   1.60463702E-01   7.79343475E-04   5.31236394E-04   1.11686832E-04   2.29811122E-05   8.42139496E-06   0.00000000E+00  
  75               2.87516128E+01   6.03905577E+02   8.38074189E-01   1.60463698E-01   7.79343741E-04   5.31236575E-04   1.11684394E-04   2.29811117E-05   8.42138759E-06   0.00000000E+00  
  76               3.25514696E+01   6.26774211E+02   8.38074198E-01   1.60463692E-01   7.79343450E-04   5.31236377E-04   1.11681719E-04   2.29811108E-05   8.42137358E-06   0.00000000E+00  
  77               3.67910500E+01   6.50067697E+02   8.38074211E-01   1.60463683E-01   7.79343138E-04   5.31236164E-04   1.11678869E-04   2.29811094E-05   8.42135864E-06   0.00000000E+00  
  78               4.15194036E+01   6.73993847E+02   8.38074228E-01   1.60463668E-01   7.79342802E-04   5.31235935E-04   1.11675832E-04   2.29811074E-05   8.42134269E-06   0.00000000E+00  
  79               4.67809097E+01   6.98340350E+02   8.38074252E-01   1.60463648E-01   7.79342442E-04   5.31235689E-04   1.11672604E-04   2.29811044E-05   8.42132573E-06   0.00000000E+00  
  80               5.26168393E+01   7.23256583E+02   8.38074285E-01   1.60463619E-01   7.79342060E-04   5.31235429E-04   1.11669188E-04   2.29811002E-05   8.42130779E-06   0.00000000E+00  
  81               5.90678851E+01   7.48494750E+02   8.38074328E-01   1.60463579E-01   7.79341631E-04   5.31235137E-04   1.11665587E-04   2.29810945E-05   8.42128865E-06   0.00000000E+00  
  82               6.61989225E+01   7.74293536E+02   8.38074377E-01   1.60463524E-01   7.79341170E-04   5.31234822E-04   1.11661790E-04   2.29810867E-05   8.42126839E-06   0.00000000E+00  
  83               7.41308153E+01   8.00633084E+02   8.38074450E-01   1.60463456E-01   7.79340846E-04   5.31234602E-04   1.11657797E-04   2.29810769E-05   8.42124877E-06   0.00000000E+00  
  84               8.29747945E+01   8.27813237E+02   8.38074496E-01   1.60463359E-01   7.79340378E-04   5.31234282E-04   1.11653554E-04   2.29810628E-05   8.42122668E-06   0.00000000E+00  
  85               9.28252796E+01   8.55608134E+02   8.38074609E-01   1.60463249E-01   7.79340842E-04   5.31234599E-04   1.11649209E-04   2.29810469E-05   8.42121374E-06   0.00000000E+00  
  86               1.03756243E+02   8.84157396E+02   8.38074537E-01   1.60463075E-01   7.79340957E-04   5.31234677E-04   1.11644574E-04   2.29810215E-05   8.42119610E-06   0.00000000E+00  
  87               1.15817729E+02   9.13098316E+02   8.38074690E-01   1.60462915E-01   7.79343886E-04   5.31236673E-04   1.11640096E-04   2.29809980E-05   8.42120790E-06   0.00000000E+00  
  88               1.29047233E+02   9.42513312E+02   8.38074690E-01   1.60462697E-01   7.79347837E-04   5.31239366E-04   1.11635505E-04   2.29843370E-05   8.42122976E-06   0.00000000E+00  
  89               1.43585980E+02   9.72253018E+02   8.38074883E-01   1.60462490E-01   7.79347057E-04   5.31238834E-04   1.11629927E-04   2.29849165E-05   8.42119929E-06   0.00000000E+00  
  90               1.59577991E+02   1.00261196E+03   8.38075075E-01   1.60462255E-01   7.79346408E-04   5.31238392E-04   1.11624022E-04   2.29977754E-05   8.42116892E-06   0.00000000E+00  
  91               1.77142652E+02   1.03331941E+03   8.38075233E-01   1.60461996E-01   7.79346168E-04   5.31238228E-04   1.11617813E-04   2.30244962E-05   8.42114158E-06   0.00000000E+00  
  92               1.96380526E+02   1.06457098E+03   8.38075309E-01   1.60461705E-01   7.79346858E-04   5.31238698E-04   1.11611377E-04   2.30800074E-05   8.42112294E-06   0.00000000E+00  
  93               2.17379051E+02   1.09602285E+03   8.38075204E-01   1.60461380E-01   7.79349406E-04   5.31240433E-04   1.11604868E-04   2.31901457E-05   8.42112313E-06   0.00000000E+00  
  94               2.40219839E+02   1.12786729E+03   8.38074770E-01   1.60461001E-01   7.79355374E-04   5.31244491E-04   1.11598533E-04   2.34014169E-05   8.42115923E-06   0.00000000E+00  
  95               2.65017785E+02   1.15979826E+03   8.38073900E-01   1.60460574E-01   7.79372230E-04   5.31255935E-04   1.11593445E-04   2.37857512E-05   8.42131225E-06   0.00000000E+00  
  96               2.92091258E+02   1.19230564E+03   8.38073261E-01   1.60460213E-01   7.79370940E-04   5.31254857E-04   1.11585384E-04   2.42855982E-05   8.42126889E-06   0.00000000E+00  
  97               3.21768535E+02   1.22524278E+03   8.38073525E-01   1.60459938E-01   7.79370312E-04   5.31253604E-04   1.11576949E-04   2.42854661E-05   8.42123321E-06   0.00000000E+00  
  98               3.54298540E+02   1.25892086E+03   8.38073777E-01   1.60459664E-01   7.79371464E-04   5.31251618E-04   1.11568127E-04   2.42852946E-05   8.42122125E-06   0.00000000E+00  
  99               3.89888837E+02   1.29298335E+03   8.38074001E-01   1.60459401E-01   7.79376963E-04   5.31247542E-04   1.11558959E-04   2.42850729E-05   8.42127155E-06   0.00000000E+00  
  100              4.28711802E+02   1.32765991E+03   8.38074196E-01   1.60459143E-01   7.79389625E-04   5.31239270E-04   1.11549599E-04   2.42847813E-05   8.42143486E-06   0.00000000E+00  
  101              4.70913525E+02   1.36252182E+03   8.37979814E-01   1.60440801E-01   7.79338972E-04   5.31152038E-04   1.11534007E-04   2.42816641E-05   8.42184870E-06   0.00000000E+00  
