# ATMO chemical composition profiles
# Chemical abundances given as mole fraction for the 8 most abundant species
# Model Level      Pressure [Ba]    Temperature [K]  H2               He               H2O              CH4              N2               NH3              H                CO              
  1                1.00000000E-05   4.72686105E+01   8.38120354E-01   1.60472737E-01   7.76209970E-04   5.27061388E-04   4.58577159E-05   3.01340751E-05   3.16314314E-109  3.79546937E-07  
  2                4.62466106E-04   6.18577748E+01   8.38120354E-01   1.60472737E-01   7.76209989E-04   5.27061400E-04   4.58577170E-05   3.01340758E-05   4.65134862E-110  3.79546946E-07  
  3                9.92827645E-04   7.28674891E+01   8.38120354E-01   1.60472737E-01   7.76209999E-04   5.27061407E-04   4.58577176E-05   3.01340761E-05   3.17454812E-110  3.79546951E-07  
  4                1.60684869E-03   7.88927820E+01   8.38120354E-01   1.60472737E-01   7.76210004E-04   5.27061411E-04   4.58577179E-05   3.01340763E-05   2.49534934E-110  3.79546954E-07  
  5                2.30489494E-03   8.55678116E+01   8.38120354E-01   1.60472737E-01   7.76210008E-04   5.27061413E-04   4.58577181E-05   3.01340764E-05   2.08349891E-110  3.79546955E-07  
  6                3.10131666E-03   9.00109808E+01   8.38120354E-01   1.60472737E-01   7.76210009E-04   5.27061414E-04   4.58577181E-05   3.01340765E-05   1.79616318E-110  3.79546956E-07  
  7                4.01611012E-03   9.60681573E+01   8.38120354E-01   1.60472737E-01   7.76210010E-04   5.27061415E-04   4.58577182E-05   3.01340765E-05   1.57839625E-110  3.79546956E-07  
  8                5.07047670E-03   1.00190536E+02   8.38119772E-01   1.60472625E-01   7.76210010E-04   5.27061415E-04   4.58577182E-05   3.01340765E-05   2.30523767E-110  3.79546957E-07  
  9                6.28823478E-03   1.06364345E+02   8.38118879E-01   1.60472454E-01   7.76209845E-04   5.27061303E-04   4.58577084E-05   3.01340701E-05   7.41541211E-104  3.79546876E-07  
  10               7.69749296E-03   1.10543025E+02   8.38110529E-01   1.60470856E-01   7.76208918E-04   5.27060674E-04   4.58576537E-05   3.01340341E-05   7.04202404E-100  3.79546423E-07  
  11               9.33106785E-03   1.16958383E+02   8.38099203E-01   1.60468687E-01   7.76211081E-04   5.27062142E-04   4.58577815E-05   3.01341181E-05   2.64117809E-94   3.79547480E-07  
  12               1.12259815E-02   1.21400837E+02   8.38051490E-01   1.60459552E-01   7.76161177E-04   5.27028256E-04   4.58548332E-05   3.01321807E-05   8.38296678E-91   3.79523078E-07  
  13               1.34249216E-02   1.28329702E+02   8.38120212E-01   1.60472710E-01   7.76305141E-04   5.27126011E-04   4.58633384E-05   3.01377697E-05   8.32231402E-86   3.79593473E-07  
  14               1.59777646E-02   1.33165823E+02   8.38120213E-01   1.60472710E-01   7.76304467E-04   5.27125553E-04   4.58632986E-05   3.01377435E-05   1.22272242E-82   3.79593144E-07  
  15               1.89428025E-02   1.40572221E+02   8.38120211E-01   1.60472709E-01   7.76305210E-04   5.27126058E-04   4.58633425E-05   3.01377724E-05   3.40483890E-78   3.79593507E-07  
  16               2.23870510E-02   1.45849122E+02   8.38120207E-01   1.60472709E-01   7.76305217E-04   5.27126062E-04   4.58633429E-05   3.01377726E-05   2.58192783E-75   3.79593510E-07  
  17               2.63886484E-02   1.53897777E+02   8.38120198E-01   1.60472707E-01   7.76305219E-04   5.27126064E-04   4.58633431E-05   3.01377727E-05   2.75366378E-71   3.79593512E-07  
  18               3.10381600E-02   1.59713733E+02   8.38120117E-01   1.60472691E-01   7.76305219E-04   5.27126063E-04   4.58633430E-05   3.01377727E-05   1.22131613E-68   3.79593511E-07  
  19               3.64433547E-02   1.68209972E+02   8.38119972E-01   1.60472664E-01   7.76305253E-04   5.27126087E-04   4.58633450E-05   3.01377740E-05   4.34201256E-65   3.79593528E-07  
  20               4.27280305E-02   1.74379963E+02   8.38118899E-01   1.60472458E-01   7.76305252E-04   5.27126086E-04   4.58633450E-05   3.01377740E-05   9.74310201E-63   3.79593527E-07  
  21               5.00350484E-02   1.83266918E+02   8.38117310E-01   1.60472154E-01   7.76305783E-04   5.27126447E-04   4.58633764E-05   3.01377946E-05   1.28512549E-59   3.79593787E-07  
  22               5.85262744E-02   1.89911361E+02   8.38077794E-01   1.60464588E-01   7.76306058E-04   5.27126633E-04   4.58633926E-05   3.01378053E-05   1.74215267E-57   3.79593922E-07  
  23               6.83845978E-02   1.99519100E+02   8.38120162E-01   1.60472700E-01   7.76338412E-04   5.27148602E-04   4.58653040E-05   3.01390613E-05   1.21678580E-54   3.79609742E-07  
  24               7.98199646E-02   2.06755781E+02   8.38014196E-01   1.60452411E-01   7.76239834E-04   5.27081666E-04   4.58594801E-05   3.01352343E-05   1.10458818E-52   3.79561540E-07  
  25               9.30813416E-02   2.16462079E+02   8.37617254E-01   1.60376409E-01   7.76447558E-04   5.27222715E-04   4.58717523E-05   3.01432986E-05   2.96830240E-50   3.79663112E-07  
  26               1.08453335E-01   2.23607812E+02   8.38120016E-01   1.60472672E-01   7.76436236E-04   5.27215026E-04   4.58710833E-05   3.01428590E-05   1.30815374E-48   3.79657575E-07  
  27               1.26276922E-01   2.32933248E+02   8.38119300E-01   1.60472535E-01   7.76916228E-04   5.27540950E-04   4.58994408E-05   3.01614933E-05   1.31180169E-46   3.79892279E-07  
  28               1.46956719E-01   2.39740847E+02   8.38119299E-01   1.60472535E-01   7.76917280E-04   5.27541665E-04   4.58995030E-05   3.01615341E-05   2.95366312E-45   3.79892794E-07  
  29               1.70970074E-01   2.48870650E+02   8.38119305E-01   1.60472536E-01   7.76913177E-04   5.27538879E-04   4.58992605E-05   3.01613748E-05   1.50298697E-43   3.79890787E-07  
  30               1.98857488E-01   2.55781910E+02   8.38119299E-01   1.60472535E-01   7.76917302E-04   5.27541680E-04   4.58995042E-05   3.01615350E-05   2.39132120E-42   3.79892804E-07  
  31               2.31244898E-01   2.65228491E+02   8.38119299E-01   1.60472535E-01   7.76917339E-04   5.27541705E-04   4.58995064E-05   3.01615364E-05   8.50257043E-41   3.79892822E-07  
  32               2.68867113E-01   2.72706384E+02   8.38119299E-01   1.60472535E-01   7.76917342E-04   5.27541707E-04   4.58995066E-05   3.01615365E-05   1.18290605E-39   3.79892824E-07  
  33               3.12552401E-01   2.82953281E+02   8.38119299E-01   1.60472535E-01   7.76917345E-04   5.27541709E-04   4.58995068E-05   3.01615366E-05   3.55912395E-38   3.79892826E-07  
  34               3.63233750E-01   2.91434392E+02   8.38119299E-01   1.60472535E-01   7.76917349E-04   5.27541712E-04   4.58995070E-05   3.01615368E-05   4.89050944E-37   3.79892828E-07  
  35               4.21987352E-01   3.02776535E+02   8.38119299E-01   1.60472535E-01   7.76917353E-04   5.27541714E-04   4.58995072E-05   3.01615369E-05   1.31908205E-35   3.79892830E-07  
  36               4.90031827E-01   3.12572271E+02   8.38119299E-01   1.60472535E-01   7.76917358E-04   5.27541717E-04   4.58995075E-05   3.01615371E-05   1.84773646E-34   3.79892832E-07  
  37               5.68744888E-01   3.25518821E+02   8.38119299E-01   1.60472535E-01   7.76917362E-04   5.27541720E-04   4.58995077E-05   3.01615372E-05   4.82973071E-33   3.79892834E-07  
  38               6.59636928E-01   3.37447352E+02   8.38119298E-01   1.60472535E-01   7.76917370E-04   5.27541726E-04   4.58995082E-05   3.01615375E-05   7.75098141E-32   3.79892838E-07  
  39               7.64366997E-01   3.53199910E+02   8.38119293E-01   1.60472533E-01   7.76917375E-04   5.27541730E-04   4.58995085E-05   3.01615377E-05   2.31337470E-30   3.79892840E-07  
  40               8.84719004E-01   3.69697081E+02   8.38119293E-01   1.60472533E-01   7.76917381E-04   5.27541733E-04   4.58995088E-05   3.01615379E-05   5.93756464E-29   3.79892843E-07  
  41               1.02300647E+00   3.86524844E+02   8.38119293E-01   1.60472533E-01   7.76917444E-04   5.27541776E-04   4.58995125E-05   3.01615403E-05   1.21887839E-27   3.79892874E-07  
  42               1.18176689E+00   4.04141835E+02   8.38118898E-01   1.60472457E-01   7.76917203E-04   5.27541613E-04   4.58994983E-05   3.01615310E-05   2.19920090E-26   3.79892756E-07  
  43               1.36371038E+00   4.22115603E+02   8.38118928E-01   1.60472417E-01   7.76922868E-04   5.27545459E-04   4.58998329E-05   3.01617509E-05   3.27125460E-25   3.79895526E-07  
  44               1.57179072E+00   4.40909879E+02   8.38118926E-01   1.60472415E-01   7.76922906E-04   5.27545485E-04   4.58998352E-05   3.01617523E-05   4.34523011E-24   3.79895545E-07  
  45               1.80932080E+00   4.60051578E+02   8.38118875E-01   1.60472404E-01   7.76922918E-04   5.27545493E-04   4.58998358E-05   3.01617528E-05   4.85920883E-23   3.79895551E-07  
  46               2.08028656E+00   4.80060062E+02   8.38118489E-01   1.60472371E-01   7.76923087E-04   5.27545608E-04   4.58998458E-05   3.01617593E-05   4.92966962E-22   3.79895633E-07  
  47               2.38908002E+00   5.00429217E+02   8.38118227E-01   1.60472628E-01   7.76925631E-04   5.27547335E-04   4.58999961E-05   3.01618580E-05   4.29942828E-21   3.79896877E-07  
  48               2.74040530E+00   5.21717591E+02   8.38115565E-01   1.60472090E-01   7.76927053E-04   5.27548301E-04   4.59000800E-05   3.01619132E-05   3.44834297E-20   3.79897573E-07  
  49               3.13956954E+00   5.43370537E+02   8.38115774E-01   1.60471774E-01   7.76987288E-04   5.27589201E-04   4.59036386E-05   3.01642516E-05   2.41836558E-19   3.79927026E-07  
  50               3.59221993E+00   5.65995398E+02   8.38115850E-01   1.60471698E-01   7.76987719E-04   5.27589494E-04   4.59036640E-05   3.01642683E-05   1.57751339E-18   3.79927237E-07  
  51               4.10523831E+00   5.88986700E+02   8.38115977E-01   1.60471571E-01   7.76987466E-04   5.27589323E-04   4.59036491E-05   3.01642584E-05   9.12960558E-18   3.79927113E-07  
  52               4.68625464E+00   6.13041742E+02   8.38116188E-01   1.60471361E-01   7.76987014E-04   5.27589016E-04   4.59036223E-05   3.01642408E-05   4.97448789E-17   3.79926892E-07  
  53               5.34288383E+00   6.37455646E+02   8.38116508E-01   1.60471042E-01   7.76986323E-04   5.27588547E-04   4.59035814E-05   3.01642139E-05   2.43319002E-16   3.79926554E-07  
  54               6.08355699E+00   6.62955917E+02   8.38116991E-01   1.60470561E-01   7.76985246E-04   5.27587815E-04   4.59035178E-05   3.01641720E-05   1.12683494E-15   3.79926028E-07  
  55               6.91695337E+00   6.88766659E+02   8.38117647E-01   1.60469906E-01   7.76983795E-04   5.27586830E-04   4.59034320E-05   3.01641156E-05   4.72551507E-15   3.79925318E-07  
  56               7.85304994E+00   7.15667856E+02   8.38118529E-01   1.60469026E-01   7.76981767E-04   5.27585453E-04   4.59033121E-05   3.01640368E-05   1.88521991E-14   3.79924327E-07  
  57               8.90519358E+00   7.42911257E+02   8.38119593E-01   1.60467960E-01   7.76979359E-04   5.27583818E-04   4.59031698E-05   3.01639433E-05   6.89578488E-14   3.79923150E-07  
  58               1.00869932E+01   7.71361165E+02   8.38120859E-01   1.60466680E-01   7.76976474E-04   5.27581859E-04   4.59029993E-05   3.01638312E-05   2.42166305E-13   3.79921743E-07  
  59               1.14143593E+01   8.00191548E+02   8.38122198E-01   1.60465292E-01   7.76973616E-04   5.27579918E-04   4.59028303E-05   3.01637201E-05   7.87771977E-13   3.79920369E-07  
  60               1.29038857E+01   8.30303659E+02   8.38123527E-01   1.60463767E-01   7.76971073E-04   5.27578191E-04   4.59026800E-05   3.01636213E-05   2.47348384E-12   3.79919263E-07  
  61               1.45713593E+01   8.60748679E+02   8.38124785E-01   1.60462259E-01   7.76972298E-04   5.27579023E-04   4.59027523E-05   3.01636687E-05   7.23450880E-12   3.79920664E-07  
  62               1.64367068E+01   8.92493420E+02   8.38126245E-01   1.60460784E-01   7.76973647E-04   5.27579939E-04   4.59028318E-05   3.01637210E-05   2.04822625E-11   3.79925702E-07  
  63               1.85226198E+01   9.24583868E+02   8.38127579E-01   1.60459420E-01   7.76970703E-04   5.27577940E-04   4.59026578E-05   3.01636065E-05   5.44219231E-11   3.79947091E-07  
  64               2.08491787E+01   9.57969096E+02   8.38128802E-01   1.60458107E-01   7.76968120E-04   5.27576186E-04   4.59025051E-05   3.01635061E-05   1.40262021E-10   3.80055585E-07  
  65               2.34375265E+01   9.91562276E+02   8.38129743E-01   1.60456923E-01   7.76966757E-04   5.27575261E-04   4.59024245E-05   3.01634531E-05   3.40228424E-10   3.80552440E-07  
  66               2.63073565E+01   1.02636008E+03   8.38130301E-01   1.60455773E-01   7.76967940E-04   5.27576063E-04   4.59024942E-05   3.01634989E-05   8.01073211E-10   3.82613825E-07  
  67               2.94768283E+01   1.06114160E+03   8.38129999E-01   1.60454660E-01   7.76974424E-04   5.27580462E-04   4.59028775E-05   3.01637506E-05   1.77859903E-09   3.90444864E-07  
  68               3.29736258E+01   1.09705645E+03   8.38129418E-01   1.60453652E-01   7.76989605E-04   5.27590737E-04   4.59037762E-05   3.01643411E-05   3.84200267E-09   4.16568232E-07  
  69               3.68392959E+01   1.13300843E+03   8.38130123E-01   1.60452866E-01   7.76987918E-04   5.27589383E-04   4.59036890E-05   3.01642836E-05   7.89210480E-09   4.91821795E-07  
  70               4.11176289E+01   1.17029855E+03   8.38130723E-01   1.60452074E-01   7.76986164E-04   5.27587027E-04   4.59036587E-05   3.01642631E-05   1.58857348E-08   6.73209876E-07  
  71               4.58484197E+01   1.20762603E+03   8.38131141E-01   1.60451296E-01   7.76980701E-04   5.27577363E-04   4.59037308E-05   3.01643075E-05   3.05750203E-08   1.02556134E-06  
  72               5.10663421E+01   1.24623916E+03   8.38131447E-01   1.60450427E-01   7.76952611E-04   5.27532060E-04   4.59039253E-05   3.01644216E-05   5.77335394E-08   1.62106116E-06  
  73               5.68011726E+01   1.28467511E+03   8.38131729E-01   1.60449504E-01   7.76828195E-04   5.27349164E-04   4.59041753E-05   3.01645268E-05   1.04419005E-07   2.50491766E-06  
  74               6.30832999E+01   1.32420417E+03   8.38132360E-01   1.60448456E-01   7.76404833E-04   5.26773924E-04   4.59044032E-05   3.01644411E-05   1.85223747E-07   3.81222577E-06  
  75               6.99764853E+01   1.36355103E+03   8.38133888E-01   1.60447399E-01   7.75321278E-04   5.25437917E-04   4.59045286E-05   3.01636510E-05   3.16373897E-07   5.59270378E-06  
  76               7.75483229E+01   1.40414301E+03   8.38136681E-01   1.60446223E-01   7.73270459E-04   5.23127045E-04   4.59048543E-05   3.01608711E-05   5.32380540E-07   8.07410046E-06  
  77               8.58815705E+01   1.44475012E+03   8.38140533E-01   1.60444915E-01   7.70304059E-04   5.19950226E-04   4.59062342E-05   3.01522485E-05   8.68409801E-07   1.12757884E-05  
  78               9.50416381E+01   1.48662149E+03   8.38145565E-01   1.60443295E-01   7.66289830E-04   5.15725804E-04   4.59107595E-05   3.01276178E-05   1.39786077E-06   1.54940580E-05  
  79               1.05068942E+02   1.52836447E+03   8.38151502E-01   1.60441408E-01   7.61369774E-04   5.10569706E-04   4.59230822E-05   3.00656970E-05   2.18493607E-06   2.06240309E-05  
  80               1.15978386E+02   1.57100585E+03   8.38158176E-01   1.60439031E-01   7.55258462E-04   5.04192369E-04   4.59516230E-05   2.99333949E-05   3.36299129E-06   2.69620007E-05  
  81               1.27764179E+02   1.61302763E+03   8.38165595E-01   1.60436491E-01   7.48850981E-04   4.96923268E-04   4.60050573E-05   2.97215258E-05   5.02091187E-06   3.41786900E-05  
  82               1.40456868E+02   1.65557708E+03   8.38157546E-01   1.60430304E-01   7.40621570E-04   4.88508135E-04   4.60802230E-05   2.94604096E-05   7.37554302E-06   4.25137987E-05  
  83               1.54035644E+02   1.69729198E+03   8.38147892E-01   1.60426710E-01   7.51512826E-04   4.78241540E-04   4.61654549E-05   2.92667546E-05   1.05359263E-05   5.26930863E-05  
  84               1.68534160E+02   1.73920277E+03   8.38156459E-01   1.60423016E-01   7.41766332E-04   4.68150709E-04   4.62141822E-05   2.91301162E-05   1.48101662E-05   6.26753675E-05  
  85               1.84007165E+02   1.78044646E+03   8.38163965E-01   1.60419117E-01   7.31826738E-04   4.57742650E-04   4.62158965E-05   2.90912946E-05   2.03548273E-05   7.29525846E-05  
  86               2.00400113E+02   1.82156970E+03   8.38169760E-01   1.60414892E-01   7.21924073E-04   4.46844853E-04   4.61875080E-05   2.91023011E-05   2.75347921E-05   8.36920344E-05  
  87               2.17574867E+02   1.86154774E+03   8.38171187E-01   1.60410288E-01   7.13288441E-04   4.35982998E-04   4.61190106E-05   2.91873568E-05   3.64215741E-05   9.43697188E-05  
  88               2.36021931E+02   1.90202684E+03   8.38164325E-01   1.60404581E-01   7.06947366E-04   4.24496501E-04   4.60248780E-05   2.93141905E-05   4.77407838E-05   1.05634143E-04  
  89               2.55156067E+02   1.94112552E+03   8.38146026E-01   1.60397893E-01   7.05713340E-04   4.12845956E-04   4.58988612E-05   2.94992625E-05   6.12749630E-05   1.17034088E-04  
  90               2.74653374E+02   1.97886690E+03   8.38110121E-01   1.60389342E-01   7.11989096E-04   4.00495980E-04   4.57588759E-05   2.97069577E-05   7.72032007E-05   1.29104809E-04  
  91               2.95856662E+02   2.01724288E+03   8.38049495E-01   1.60378095E-01   7.29449542E-04   3.86476098E-04   4.55863691E-05   2.99723683E-05   9.66909603E-05   1.42804870E-04  
  92               3.16954420E+02   2.05350841E+03   8.37994879E-01   1.60368871E-01   7.49427213E-04   3.72658360E-04   4.54091243E-05   3.02481284E-05   1.18636261E-04   1.56297541E-04  
  93               3.37094906E+02   2.08609423E+03   8.37984087E-01   1.60364535E-01   7.41485213E-04   3.64383380E-04   4.52246436E-05   3.05388707E-05   1.41604188E-04   1.64245409E-04  
  94               3.59517740E+02   2.12078599E+03   8.37968669E-01   1.60359707E-01   7.33332022E-04   3.55839277E-04   4.50161742E-05   3.08660205E-05   1.69887046E-04   1.72403698E-04  
  95               3.84428144E+02   2.15710524E+03   8.37937267E-01   1.60352486E-01   7.25314999E-04   3.47374085E-04   4.47734318E-05   3.12491014E-05   2.04119402E-04   1.80414809E-04  
  96               4.06517250E+02   2.18786270E+03   8.37915112E-01   1.60347842E-01   7.18864819E-04   3.40492023E-04   4.45567686E-05   3.15911116E-05   2.37238336E-04   1.86880442E-04  
  97               4.24686771E+02   2.21196685E+03   8.37894778E-01   1.60344056E-01   7.14111171E-04   3.35389526E-04   4.43731111E-05   3.18832958E-05   2.66004424E-04   1.91631480E-04  
  98               4.45273699E+02   2.23843905E+03   8.37869294E-01   1.60339703E-01   7.09088415E-04   3.29942977E-04   4.41660523E-05   3.22109372E-05   3.00730937E-04   1.96665175E-04  
  99               4.68506409E+02   2.26694700E+03   8.37837838E-01   1.60334823E-01   7.04043053E-04   3.24402708E-04   4.39279883E-05   3.25896513E-05   3.41944724E-04   2.01728388E-04  
  100              4.94668997E+02   2.29784673E+03   8.37796883E-01   1.60328850E-01   6.98866300E-04   3.18632314E-04   4.36612962E-05   3.30117164E-05   3.91507059E-04   2.06940420E-04  
  101              5.24215625E+02   2.33096528E+03   8.37710877E-01   1.60316098E-01   6.98057863E-04   3.12069246E-04   4.33566681E-05   3.34945414E-05   4.50537149E-04   2.12851949E-04  
