# ATMO chemical composition profiles
# Chemical abundances given as mole fraction for the 8 most abundant species
# Model Level      Pressure [Ba]    Temperature [K]  H2               He               H                H2O              CO               CH4              N2               Mg              
  1                1.00000000E-05   3.28698306E+02   8.38429853E-01   1.60499023E-01   2.51272253E-30   4.52640474E-04   3.10750957E-04   2.16950845E-04   5.93335062E-05   0.00000000E+00  
  2                6.12968576E-04   3.78138843E+02   8.38421896E-01   1.60506951E-01   1.10274952E-26   4.52652369E-04   3.10759123E-04   2.16956546E-04   5.93350612E-05   0.00000000E+00  
  3                1.28015426E-03   4.00768599E+02   8.38422816E-01   1.60506027E-01   3.86550110E-25   4.52653807E-04   3.10760109E-04   2.16957235E-04   5.93352300E-05   0.00000000E+00  
  4                2.04412418E-03   4.14089207E+02   8.38422788E-01   1.60506046E-01   2.52547976E-24   4.52655556E-04   3.10761310E-04   2.16958074E-04   5.93354474E-05   0.00000000E+00  
  5                2.92651680E-03   4.27386448E+02   8.38423328E-01   1.60505487E-01   1.52369780E-23   4.52656057E-04   3.10761653E-04   2.16958314E-04   5.93355040E-05   0.00000000E+00  
  6                3.94977171E-03   4.36722545E+02   8.38423168E-01   1.60505529E-01   4.89188454E-23   4.52657290E-04   3.10762499E-04   2.16958905E-04   5.93356581E-05   0.00000000E+00  
  7                5.13894635E-03   4.47908354E+02   8.38423297E-01   1.60505054E-01   1.93233927E-22   4.52657458E-04   3.10762614E-04   2.16958985E-04   5.93356735E-05   0.00000000E+00  
  8                6.52197285E-03   4.56346304E+02   8.38423040E-01   1.60505229E-01   5.08643246E-22   4.52692793E-04   3.10786872E-04   2.16975921E-04   5.93402993E-05   0.00000000E+00  
  9                8.13270763E-03   4.66059708E+02   8.38421377E-01   1.60504529E-01   1.51667356E-21   4.52693122E-04   3.10787098E-04   2.16976079E-04   5.93403368E-05   0.00000000E+00  
  10               1.00111525E-02   4.72905477E+02   8.38421417E-01   1.60504490E-01   3.09840689E-21   4.52693005E-04   3.10787017E-04   2.16976023E-04   5.93403162E-05   0.00000000E+00  
  11               1.22026093E-02   4.82047931E+02   8.38421676E-01   1.60504230E-01   8.07438715E-21   4.52693345E-04   3.10787250E-04   2.16976186E-04   5.93403555E-05   0.00000000E+00  
  12               1.47591819E-02   4.88754674E+02   8.38421545E-01   1.60504359E-01   1.55468012E-20   4.52694215E-04   3.10787848E-04   2.16976603E-04   5.93404646E-05   0.00000000E+00  
  13               1.77411945E-02   4.97989725E+02   8.38421815E-01   1.60504088E-01   3.85553304E-20   4.52694503E-04   3.10788045E-04   2.16976741E-04   5.93404973E-05   0.00000000E+00  
  14               2.12179984E-02   5.04905401E+02   8.38421727E-01   1.60504175E-01   7.28103147E-20   4.52695283E-04   3.10788580E-04   2.16977115E-04   5.93405948E-05   0.00000000E+00  
  15               2.52696947E-02   5.14499017E+02   8.38422018E-01   1.60503883E-01   1.76708039E-19   4.52695522E-04   3.10788744E-04   2.16977229E-04   5.93406212E-05   0.00000000E+00  
  16               2.99899001E-02   5.21902400E+02   8.38421987E-01   1.60503913E-01   3.35699069E-19   4.52696216E-04   3.10789220E-04   2.16977562E-04   5.93407074E-05   0.00000000E+00  
  17               3.54869962E-02   5.32109245E+02   8.38422308E-01   1.60503591E-01   8.13937258E-19   4.52696413E-04   3.10789355E-04   2.16977656E-04   5.93407284E-05   0.00000000E+00  
  18               4.18851682E-02   5.40175351E+02   8.38422333E-01   1.60503565E-01   1.57133254E-18   4.52697031E-04   3.10789779E-04   2.16977952E-04   5.93408045E-05   0.00000000E+00  
  19               4.93267724E-02   5.51175386E+02   8.38422682E-01   1.60503216E-01   3.84035740E-18   4.52697198E-04   3.10789894E-04   2.16978033E-04   5.93408215E-05   0.00000000E+00  
  20               5.79745898E-02   5.60196908E+02   8.38422773E-01   1.60503123E-01   7.66289626E-18   4.52697737E-04   3.10790264E-04   2.16978291E-04   5.93408871E-05   0.00000000E+00  
  21               6.80151074E-02   5.72279618E+02   8.38423153E-01   1.60502743E-01   1.91465540E-17   4.52697882E-04   3.10790363E-04   2.16978360E-04   5.93409011E-05   0.00000000E+00  
  22               7.96586766E-02   5.82456880E+02   8.38423304E-01   1.60502591E-01   3.96426291E-17   4.52698359E-04   3.10790690E-04   2.16978589E-04   5.93409584E-05   0.00000000E+00  
  23               9.31432019E-02   5.95790647E+02   8.38423700E-01   1.60502194E-01   1.01225929E-16   4.52698516E-04   3.10790797E-04   2.16978664E-04   5.93409736E-05   0.00000000E+00  
  24               1.08735943E-01   6.07296072E+02   8.38423895E-01   1.60501997E-01   2.17193370E-16   4.52698959E-04   3.10791101E-04   2.16978876E-04   5.93410262E-05   0.00000000E+00  
  25               1.26742209E-01   6.22071118E+02   8.38424294E-01   1.60501598E-01   5.66063577E-16   4.52699140E-04   3.10791225E-04   2.16978963E-04   5.93410443E-05   0.00000000E+00  
  26               1.47508935E-01   6.35118240E+02   8.38424519E-01   1.60501371E-01   1.25728286E-15   4.52699576E-04   3.10791524E-04   2.16979172E-04   5.93410957E-05   0.00000000E+00  
  27               1.71437965E-01   6.51568735E+02   8.38424905E-01   1.60500983E-01   3.34062436E-15   4.52699829E-04   3.10791698E-04   2.16979293E-04   5.93411230E-05   0.00000000E+00  
  28               1.98973181E-01   6.66460426E+02   8.38425142E-01   1.60500737E-01   7.69008169E-15   4.52700287E-04   3.10792012E-04   2.16979513E-04   5.93411769E-05   0.00000000E+00  
  29               2.30611848E-01   6.84919721E+02   8.38425502E-01   1.60500369E-01   2.08564185E-14   4.52700724E-04   3.10792312E-04   2.16979722E-04   5.93412279E-05   0.00000000E+00  
  30               2.66903502E-01   7.02059636E+02   8.38425713E-01   1.60500110E-01   4.98755671E-14   4.52701272E-04   3.10792688E-04   2.16979985E-04   5.93412932E-05   0.00000000E+00  
  31               3.08446885E-01   7.22886408E+02   8.38426013E-01   1.60499766E-01   1.37782028E-13   4.52702445E-04   3.10793493E-04   2.16980547E-04   5.93414402E-05   0.00000000E+00  
  32               3.55874369E-01   7.42633818E+02   8.38426119E-01   1.60499494E-01   3.40488228E-13   4.52703492E-04   3.10794211E-04   2.16981049E-04   5.93415704E-05   0.00000000E+00  
  33               4.09856459E-01   7.66232651E+02   8.38426204E-01   1.60499146E-01   9.54361544E-13   4.52705981E-04   3.10795920E-04   2.16982242E-04   5.93418894E-05   0.00000000E+00  
  34               4.71199894E-01   7.89023427E+02   8.38426431E-01   1.60498907E-01   2.42351984E-12   4.52709300E-04   3.10798198E-04   2.16983832E-04   5.93423168E-05   0.00000000E+00  
  35               5.40851607E-01   8.15743915E+02   8.38426713E-01   1.60498613E-01   6.82188369E-12   4.52709858E-04   3.10798581E-04   2.16984100E-04   5.93423822E-05   0.00000000E+00  
  36               6.19786949E-01   8.41786208E+02   8.38426951E-01   1.60498340E-01   1.74813276E-11   4.52710493E-04   3.10799016E-04   2.16984404E-04   5.93424574E-05   0.00000000E+00  
  37               7.09009807E-01   8.71718412E+02   8.38427260E-01   1.60497933E-01   4.84272902E-11   4.52711172E-04   3.10799483E-04   2.16984730E-04   5.93425381E-05   0.00000000E+00  
  38               8.09506787E-01   9.00969675E+02   8.38427534E-01   1.60497370E-01   1.22278590E-10   4.52712198E-04   3.10800191E-04   2.16985222E-04   5.93426640E-05   0.00000000E+00  
  39               9.22295703E-01   9.33821887E+02   8.38427855E-01   1.60496256E-01   3.24567067E-10   4.52714231E-04   3.10801604E-04   2.16986196E-04   5.93429215E-05   0.00000000E+00  
  40               1.04868067E+00   9.65670218E+02   8.38428224E-01   1.60494408E-01   7.81344378E-10   4.52726775E-04   3.10810300E-04   2.16992208E-04   5.93445565E-05   0.00000000E+00  
  41               1.19025860E+00   1.00063355E+03   8.38430529E-01   1.60490975E-01   1.92824712E-09   4.52722754E-04   3.10807909E-04   2.16990278E-04   5.93440202E-05   0.00000000E+00  
  42               1.34874259E+00   1.03415155E+03   8.38435833E-01   1.60485711E-01   4.30687158E-09   4.52716122E-04   3.10804945E-04   2.16987075E-04   5.93431442E-05   4.72186066E-16  
  43               1.52598146E+00   1.07039244E+03   8.38445058E-01   1.60476527E-01   9.72480021E-09   4.52704068E-04   3.10802905E-04   2.16981128E-04   5.93415774E-05   3.38355587E-15  
  44               1.72396018E+00   1.10479352E+03   8.38457250E-01   1.60464357E-01   1.99435749E-08   4.52687189E-04   3.10815137E-04   2.16971856E-04   5.93395160E-05   1.94142117E-14  
  45               1.94505796E+00   1.14156410E+03   8.38474511E-01   1.60447075E-01   4.10264447E-08   4.52658027E-04   3.10878503E-04   2.16951087E-04   5.93365965E-05   1.13591897E-13  
  46               2.19231152E+00   1.17625735E+03   8.38492869E-01   1.60428570E-01   7.72973211E-08   4.52598836E-04   3.11117597E-04   2.16886303E-04   5.93336034E-05   5.42198393E-13  
  47               2.46924811E+00   1.21330562E+03   8.38514275E-01   1.60406789E-01   1.46252048E-07   4.52414673E-04   3.11853784E-04   2.16634465E-04   5.93303156E-05   2.64254437E-12  
  48               2.77994766E+00   1.24828541E+03   8.38533462E-01   1.60387048E-01   2.56426153E-07   4.51776903E-04   3.13877426E-04   2.15672534E-04   5.93279412E-05   1.07202270E-11  
  49               3.12976109E+00   1.28575619E+03   8.38553963E-01   1.60366603E-01   4.52869923E-07   4.49762335E-04   3.18725664E-04   2.12551645E-04   5.93261281E-05   4.44671837E-11  
  50               3.52676653E+00   1.32121796E+03   8.38573467E-01   1.60350535E-01   7.48375942E-07   4.44426097E-04   3.28468126E-04   2.04361650E-04   5.93252491E-05   1.56019211E-10  
  51               3.98430276E+00   1.35933038E+03   8.38598574E-01   1.60336194E-01   1.24727743E-06   4.33205992E-04   3.44681593E-04   1.88026485E-04   5.93236935E-05   5.58368722E-10  
  52               4.51989469E+00   1.39544514E+03   8.38625123E-01   1.60326974E-01   1.95685018E-06   4.16202323E-04   3.64934406E-04   1.66586449E-04   5.93216626E-05   1.70845013E-09  
  53               5.15262219E+00   1.43433629E+03   8.38652956E-01   1.60319024E-01   3.09642155E-06   3.95947897E-04   3.86466901E-04   1.44039217E-04   5.93191697E-05   5.31539447E-09  
  54               5.89551366E+00   1.47122755E+03   8.38672924E-01   1.60313415E-01   4.64182929E-06   3.79101438E-04   4.03749328E-04   1.26954855E-04   5.93174762E-05   1.43640680E-08  
  55               6.75685656E+00   1.51100419E+03   8.38687535E-01   1.60307292E-01   7.03296327E-06   3.63800406E-04   4.19792386E-04   1.10809064E-04   5.93162591E-05   3.96466053E-08  
  56               7.73810885E+00   1.54880454E+03   8.38696139E-01   1.60302918E-01   1.01734677E-05   3.56006057E-04   4.32416859E-04   9.82025528E-05   5.93214247E-05   5.93748243E-08  
  57               8.84265269E+00   1.58975688E+03   8.38693552E-01   1.60296168E-01   1.49299183E-05   3.44665716E-04   4.44222331E-04   8.63475193E-05   5.93195407E-05   2.43081590E-07  
  58               1.00569769E+01   1.62896398E+03   8.38686544E-01   1.60291734E-01   2.10996564E-05   3.50054204E-04   4.55954937E-04   7.45661778E-05   5.93396527E-05   4.09437264E-07  
  59               1.13630155E+01   1.67178012E+03   8.38686614E-01   1.60287365E-01   3.04033552E-05   3.42104505E-04   4.65740959E-04   6.47330237E-05   5.93366714E-05   1.52648181E-06  
  60               1.27369901E+01   1.71369761E+03   8.38672333E-01   1.60281900E-01   4.27148213E-05   3.38940306E-04   4.74368996E-04   5.60549842E-05   5.93323746E-05   4.94525169E-06  
  61               1.41149244E+01   1.76082752E+03   8.38633150E-01   1.60273315E-01   6.20155986E-05   3.45555276E-04   4.85273044E-04   4.50871923E-05   5.93360620E-05   1.59021550E-05  
  62               1.54096118E+01   1.80214481E+03   8.38559038E-01   1.60262308E-01   8.45545422E-05   3.69110971E-04   4.94385389E-04   3.59209576E-05   5.93436258E-05   3.63169716E-05  
  63               1.65664071E+01   1.83645176E+03   8.38479395E-01   1.60253677E-01   1.08108911E-04   4.05650307E-04   5.01400579E-04   2.88719437E-05   5.93615146E-05   6.35267151E-05  
  64               1.75910908E+01   1.86556367E+03   8.38460786E-01   1.60250884E-01   1.32209796E-04   4.02932050E-04   5.04098855E-04   2.61414134E-05   5.93414773E-05   6.33636042E-05  
  65               1.87267132E+01   1.89591322E+03   8.38425304E-01   1.60245570E-01   1.61861859E-04   4.00490096E-04   5.06487597E-04   2.37080077E-05   5.93200474E-05   6.31868769E-05  
  66               1.96338624E+01   1.91937716E+03   8.38403028E-01   1.60242921E-01   1.88434150E-04   3.98811276E-04   5.08135042E-04   2.20299342E-05   5.93132789E-05   6.30486218E-05  
  67               2.03052133E+01   1.93588503E+03   8.38385348E-01   1.60240935E-01   2.09139917E-04   3.97755823E-04   5.09163604E-04   2.09784042E-05   5.93003017E-05   6.29485724E-05  
  68               2.10666354E+01   1.95441973E+03   8.38363316E-01   1.60238544E-01   2.34657675E-04   3.96639564E-04   5.10251567E-04   1.98636937E-05   5.92875659E-05   6.28357926E-05  
  69               2.19263879E+01   1.97432335E+03   8.38337013E-01   1.60235801E-01   2.64746234E-04   3.95568321E-04   5.11291945E-04   1.87929011E-05   5.92727681E-05   6.27112851E-05  
  70               2.28930314E+01   1.99631763E+03   8.38304429E-01   1.60232499E-01   3.01691898E-04   3.94468425E-04   5.12358125E-04   1.76914379E-05   5.92561190E-05   6.25726634E-05  
  71               2.39748848E+01   2.01971785E+03   8.38235162E-01   1.60222872E-01   3.45376022E-04   3.93432038E-04   5.13340085E-04   1.66500716E-05   5.92318960E-05   6.24188458E-05  
  72               2.47815036E+01   2.03693282E+03   8.38203457E-01   1.60219832E-01   3.80815025E-04   3.92706775E-04   5.14029680E-04   1.59298203E-05   5.92227812E-05   6.23068940E-05  
  73               2.53710345E+01   2.04892196E+03   8.38179846E-01   1.60217589E-01   4.07067944E-04   3.92275300E-04   5.14461404E-04   1.54753765E-05   5.92092635E-05   6.22267347E-05  
  74               2.60471813E+01   2.06277919E+03   8.38150782E-01   1.60214843E-01   4.39374327E-04   3.91753904E-04   5.14951923E-04   1.49580855E-05   5.91967645E-05   6.21347357E-05  
  75               2.68197494E+01   2.07785813E+03   8.38117076E-01   1.60211699E-01   4.76666031E-04   3.91270400E-04   5.15431651E-04   1.44477298E-05   5.91818115E-05   6.20318557E-05  
  76               2.77023034E+01   2.09503978E+03   8.38075723E-01   1.60207867E-01   5.22405251E-04   3.90703352E-04   5.15957786E-04   1.38854920E-05   5.91651809E-05   6.19148124E-05  
  77               2.87071539E+01   2.11365187E+03   8.38027456E-01   1.60203443E-01   5.75633993E-04   3.90152147E-04   5.16462821E-04   1.33389789E-05   5.91452378E-05   6.17845344E-05  
  78               2.98474046E+01   2.13451922E+03   8.37968438E-01   1.60198068E-01   6.40602553E-04   3.89563174E-04   5.16997646E-04   1.27555263E-05   5.91230058E-05   6.16379887E-05  
  79               3.11369959E+01   2.15691539E+03   8.37899410E-01   1.60191836E-01   7.16410050E-04   3.89001975E-04   5.17497893E-04   1.21994555E-05   5.90967296E-05   6.14762713E-05  
  80               3.25907540E+01   2.18164843E+03   8.37815431E-01   1.60184295E-01   8.08498675E-04   3.88420469E-04   5.18008423E-04   1.16237284E-05   5.90674177E-05   6.12963561E-05  
  81               3.42244686E+01   2.20792564E+03   8.37717265E-01   1.60175538E-01   9.15949784E-04   3.87878918E-04   5.18470355E-04   1.10870627E-05   5.90332337E-05   6.10995814E-05  
  82               3.60550142E+01   2.23654063E+03   8.37598543E-01   1.60164992E-01   1.04575199E-03   3.87333483E-04   5.18923692E-04   1.05467415E-05   5.89951268E-05   6.08829421E-05  
  83               3.81005063E+01   2.26663040E+03   8.37460222E-01   1.60152764E-01   1.19678821E-03   3.86838370E-04   5.19315960E-04   1.00549799E-05   5.89511943E-05   6.06480660E-05  
  84               4.03805020E+01   2.29899400E+03   8.37292103E-01   1.60137740E-01   1.37805124E-03   3.86351477E-04   5.19682535E-04   9.57172950E-06   5.89021731E-05   6.03917764E-05  
  85               4.29155867E+01   2.33269949E+03   8.37091555E-01   1.60120623E-01   1.58790333E-03   3.91863696E-04   5.20130791E-04   9.00618867E-06   5.88504982E-05   6.01162941E-05  
  86               4.57290704E+01   2.36856797E+03   8.36862009E-01   1.60100499E-01   1.83784130E-03   3.91576107E-04   5.20389999E-04   8.59642717E-06   5.87889680E-05   5.98184389E-05  
  87               4.88470174E+01   2.40562428E+03   8.36597859E-01   1.60077388E-01   2.12532976E-03   3.91336032E-04   5.20573193E-04   8.24196912E-06   5.87193015E-05   5.95003094E-05  
  88               5.22977134E+01   2.44473293E+03   8.36285696E-01   1.60050107E-01   2.46500225E-03   3.91109232E-04   5.20710456E-04   7.90727114E-06   5.86421438E-05   5.91586036E-05  
  89               5.61125956E+01   2.48485895E+03   8.35929389E-01   1.60019011E-01   2.85259293E-03   3.90931974E-04   5.20767283E-04   7.62663723E-06   5.85553751E-05   5.87958009E-05  
  90               6.03268781E+01   2.52692107E+03   8.35512068E-01   1.59982613E-01   3.30649407E-03   3.90773015E-04   5.20770242E-04   7.36659729E-06   5.84594468E-05   5.84083548E-05  
  91               6.49817054E+01   2.56984200E+03   8.35040012E-01   1.59941478E-01   3.81982206E-03   3.90668724E-04   5.20688250E-04   7.15821918E-06   5.83520857E-05   5.79988944E-05  
  92               7.01238291E+01   2.61463708E+03   8.34491733E-01   1.59893720E-01   4.41598413E-03   3.90590190E-04   5.20544302E-04   6.96958170E-06   5.82334446E-05   5.75633486E-05  
  93               7.58066903E+01   2.66017697E+03   8.33877039E-01   1.59840208E-01   5.08426001E-03   3.90575018E-04   5.20309645E-04   6.82976284E-06   5.81010749E-05   5.71045777E-05  
  94               8.20915772E+01   2.70756927E+03   8.33168880E-01   1.59778573E-01   5.85409879E-03   3.90596923E-04   5.20003105E-04   6.70847322E-06   5.79547207E-05   5.66180189E-05  
  95               8.90489686E+01   2.75561732E+03   8.32382208E-01   1.59710134E-01   6.70918212E-03   3.90696325E-04   5.19597194E-04   6.63404887E-06   5.77916738E-05   5.61068126E-05  
  96               9.67600886E+01   2.80554859E+03   8.31482737E-01   1.59631892E-01   7.68682668E-03   3.90849377E-04   5.19106458E-04   6.57707295E-06   5.76110869E-05   5.55657831E-05  
  97               1.05318709E+02   2.85612044E+03   8.30491509E-01   1.59545698E-01   8.76408506E-03   3.91099824E-04   5.18504336E-04   6.56533410E-06   5.74098780E-05   5.49982958E-05  
  98               1.14833440E+02   2.90867736E+03   8.29365316E-01   1.59447776E-01   9.98796739E-03   3.91426953E-04   5.17800099E-04   6.57024853E-06   5.71862299E-05   5.43985550E-05  
  99               1.25430434E+02   2.96189309E+03   8.28133812E-01   1.59340727E-01   1.13261563E-02   3.91879556E-04   5.16966843E-04   6.62046594E-06   5.69363715E-05   5.37703005E-05  
  100              1.37255000E+02   3.01722701E+03   8.26743223E-01   1.59219858E-01   1.28371436E-02   3.92439938E-04   5.16007756E-04   6.68781714E-06   5.66568479E-05   5.31071876E-05  
  101              1.50467279E+02   3.07321480E+03   8.25235598E-01   1.59088853E-01   1.44751262E-02   3.93161411E-04   5.14895736E-04   6.80236780E-06   5.63428562E-05   5.24139663E-05  
