# ATMO chemical composition profiles
# Chemical abundances given as mole fraction for the 8 most abundant species
# Model Level      Pressure [Ba]    Temperature [K]  H2               He               H2O              CH4              CO               N2               H                H2S             
  1                1.00000000E-05   5.39141363E+01   8.38297079E-01   1.60506544E-01   6.19661696E-04   3.81140195E-04   1.05374813E-04   5.84557999E-05   3.16381355E-109  2.29881854E-05  
  2                6.90595923E-05   6.90510572E+01   8.38297079E-01   1.60506544E-01   6.19662166E-04   3.81140484E-04   1.05374893E-04   5.84558446E-05   1.20392346E-109  2.29881853E-05  
  3                1.37864554E-04   7.81547407E+01   8.38297078E-01   1.60506543E-01   6.19662502E-04   3.81140690E-04   1.05374950E-04   5.84558766E-05   8.52088239E-110  2.29881853E-05  
  4                2.14516659E-04   8.55624100E+01   8.38297078E-01   1.60506543E-01   6.19662739E-04   3.81140836E-04   1.05374990E-04   5.84558992E-05   6.83093839E-110  2.29881853E-05  
  5                3.00358683E-04   9.13127542E+01   8.38297077E-01   1.60506543E-01   6.19662940E-04   3.81140960E-04   1.05375025E-04   5.84559183E-05   5.77285681E-110  2.29881853E-05  
  6                3.97591777E-04   9.72946163E+01   8.38297077E-01   1.60506543E-01   6.19663113E-04   3.81141066E-04   1.05375054E-04   5.84559348E-05   5.01755548E-110  2.29881853E-05  
  7                5.08406218E-04   1.02251481E+02   8.38287846E-01   1.60504776E-01   6.19660175E-04   3.81139260E-04   1.05374554E-04   5.84556577E-05   1.37392994E-107  2.29879322E-05  
  8                6.35176555E-04   1.07927858E+02   8.38206184E-01   1.60489140E-01   6.19650962E-04   3.81133592E-04   1.05372988E-04   5.84547886E-05   8.11105033E-102  2.29856928E-05  
  9                7.80590409E-04   1.12816325E+02   8.38297041E-01   1.60506536E-01   6.19685842E-04   3.81155047E-04   1.05378919E-04   5.84580791E-05   2.55679996E-97   2.29881843E-05  
  10               9.47739317E-04   1.18569702E+02   8.38296959E-01   1.60506521E-01   6.19737855E-04   3.81187039E-04   1.05387764E-04   5.84629858E-05   1.71309258E-92   2.29881821E-05  
  11               1.14011413E-03   1.23562479E+02   8.38296959E-01   1.60506521E-01   6.19737891E-04   3.81187060E-04   1.05387770E-04   5.84629891E-05   1.12629392E-88   2.29881821E-05  
  12               1.36163222E-03   1.29645625E+02   8.38296959E-01   1.60506521E-01   6.19737825E-04   3.81187020E-04   1.05387759E-04   5.84629830E-05   2.05561784E-84   2.29881821E-05  
  13               1.61682119E-03   1.34934780E+02   8.38296957E-01   1.60506520E-01   6.19737504E-04   3.81186823E-04   1.05387704E-04   5.84629527E-05   5.01051187E-81   2.29881820E-05  
  14               1.91098922E-03   1.41339276E+02   8.38296951E-01   1.60506519E-01   6.19738019E-04   3.81187140E-04   1.05387792E-04   5.84630014E-05   2.93536787E-77   2.29881818E-05  
  15               2.25024030E-03   1.46930677E+02   8.38296915E-01   1.60506512E-01   6.19738073E-04   3.81187172E-04   1.05387801E-04   5.84630065E-05   3.03955060E-74   2.29881809E-05  
  16               2.64160860E-03   1.53799028E+02   8.38296808E-01   1.60506492E-01   6.19738110E-04   3.81187195E-04   1.05387807E-04   5.84630100E-05   7.80710090E-71   2.29881779E-05  
  17               3.09315590E-03   1.59878539E+02   8.38296240E-01   1.60506383E-01   6.19738208E-04   3.81187256E-04   1.05387824E-04   5.84630194E-05   4.57967726E-68   2.29881623E-05  
  18               3.61450240E-03   1.67162481E+02   8.38294844E-01   1.60506116E-01   6.19736649E-04   3.81186297E-04   1.05387559E-04   5.84628724E-05   5.21352227E-65   2.29881241E-05  
  19               4.21672773E-03   1.73547991E+02   8.38288400E-01   1.60504882E-01   6.19740637E-04   3.81188749E-04   1.05388237E-04   5.84632486E-05   1.51303033E-62   2.29879473E-05  
  20               4.91246593E-03   1.81199486E+02   8.38274528E-01   1.60502226E-01   6.19727354E-04   3.81180579E-04   1.05385978E-04   5.84619957E-05   8.06667886E-60   2.29875669E-05  
  21               5.71593834E-03   1.88025107E+02   8.38214253E-01   1.60490685E-01   6.19763908E-04   3.81203063E-04   1.05392194E-04   5.84654442E-05   1.40236283E-57   2.29859141E-05  
  22               6.64318876E-03   1.96326954E+02   8.37757775E-01   1.60403285E-01   6.19771718E-04   3.81207867E-04   1.05393523E-04   5.84661810E-05   4.63775844E-55   2.29733963E-05  
  23               7.71267594E-03   2.03752296E+02   8.38296831E-01   1.60506496E-01   6.19818741E-04   3.81236789E-04   1.05401519E-04   5.84706170E-05   5.51418760E-53   2.29881785E-05  
  24               8.94652974E-03   2.12159315E+02   8.38296184E-01   1.60506372E-01   6.20227105E-04   3.81487965E-04   1.05470962E-04   5.85091402E-05   8.27047652E-51   2.29881608E-05  
  25               1.03705190E-02   2.19507252E+02   8.38296184E-01   1.60506372E-01   6.20227321E-04   3.81488098E-04   1.05470999E-04   5.85091608E-05   4.75840703E-49   2.29881608E-05  
  26               1.20139782E-02   2.27767851E+02   8.38296184E-01   1.60506372E-01   6.20227124E-04   3.81487977E-04   1.05470965E-04   5.85091424E-05   3.33046989E-47   2.29881608E-05  
  27               1.39104895E-02   2.34969584E+02   8.38296183E-01   1.60506372E-01   6.20227724E-04   3.81488346E-04   1.05471067E-04   5.85091992E-05   1.04653311E-45   2.29881608E-05  
  28               1.61000787E-02   2.43084446E+02   8.38296188E-01   1.60506373E-01   6.20224572E-04   3.81486408E-04   1.05470531E-04   5.85089021E-05   4.00664458E-44   2.29881609E-05  
  29               1.86273543E-02   2.50287400E+02   8.38296182E-01   1.60506372E-01   6.20228223E-04   3.81488653E-04   1.05471152E-04   5.85092468E-05   8.26087584E-43   2.29881608E-05  
  30               2.15432939E-02   2.58504916E+02   8.38296182E-01   1.60506372E-01   6.20228481E-04   3.81488812E-04   1.05471196E-04   5.85092714E-05   2.13634303E-41   2.29881608E-05  
  31               2.49079879E-02   2.65930671E+02   8.38296181E-01   1.60506372E-01   6.20228744E-04   3.81488974E-04   1.05471241E-04   5.85092965E-05   3.36318636E-40   2.29881607E-05  
  32               2.87900249E-02   2.74410783E+02   8.38296181E-01   1.60506372E-01   6.20229067E-04   3.81489172E-04   1.05471296E-04   5.85093272E-05   6.56636979E-39   2.29881607E-05  
  33               3.32677755E-02   2.82165026E+02   8.38296180E-01   1.60506372E-01   6.20229375E-04   3.81489362E-04   1.05471348E-04   5.85093566E-05   8.42408775E-38   2.29881607E-05  
  34               3.84310309E-02   2.91078805E+02   8.38296180E-01   1.60506372E-01   6.20229672E-04   3.81489544E-04   1.05471399E-04   5.85093849E-05   1.34735107E-36   2.29881607E-05  
  35               4.43816042E-02   2.99492351E+02   8.38296179E-01   1.60506371E-01   6.20229994E-04   3.81489742E-04   1.05471453E-04   5.85094156E-05   1.57400481E-35   2.29881607E-05  
  36               5.12340854E-02   3.09365791E+02   8.38296179E-01   1.60506371E-01   6.20230344E-04   3.81489958E-04   1.05471513E-04   5.85094490E-05   2.39538245E-34   2.29881607E-05  
  37               5.91179210E-02   3.18933421E+02   8.38296178E-01   1.60506371E-01   6.20230726E-04   3.81490192E-04   1.05471578E-04   5.85094853E-05   2.83715764E-33   2.29881606E-05  
  38               6.81798933E-02   3.30055510E+02   8.38296177E-01   1.60506371E-01   6.20231146E-04   3.81490451E-04   1.05471649E-04   5.85095253E-05   4.22507308E-32   2.29881606E-05  
  39               7.85834301E-02   3.41128340E+02   8.38296176E-01   1.60506370E-01   6.20231598E-04   3.81490729E-04   1.05471726E-04   5.85095684E-05   5.19944744E-31   2.29881605E-05  
  40               9.05085747E-02   3.54354449E+02   8.38296170E-01   1.60506368E-01   6.20232110E-04   3.81491043E-04   1.05471813E-04   5.85096172E-05   8.56727882E-30   2.29881602E-05  
  41               1.04142687E-01   3.69323627E+02   8.38296172E-01   1.60506366E-01   6.20232637E-04   3.81491368E-04   1.05471903E-04   5.85096675E-05   1.61094995E-28   2.29881599E-05  
  42               1.19703192E-01   3.85461373E+02   8.38295923E-01   1.60506312E-01   6.20233330E-04   3.81491794E-04   1.05472021E-04   5.85097335E-05   2.95435646E-27   2.29881521E-05  
  43               1.37449711E-01   4.01462877E+02   8.38295959E-01   1.60506275E-01   6.20233548E-04   3.81491928E-04   1.05472058E-04   5.85097547E-05   4.17820909E-26   2.29881468E-05  
  44               1.57664740E-01   4.18709923E+02   8.38295981E-01   1.60506242E-01   6.20239573E-04   3.81495634E-04   1.05473082E-04   5.85103237E-05   5.79615683E-25   2.29881421E-05  
  45               1.80662777E-01   4.35803007E+02   8.38296037E-01   1.60506175E-01   6.20240238E-04   3.81496043E-04   1.05473195E-04   5.85103872E-05   6.36869729E-24   2.29881325E-05  
  46               2.06809880E-01   4.54220178E+02   8.38296037E-01   1.60506006E-01   6.20240901E-04   3.81496451E-04   1.05473308E-04   5.85104506E-05   6.89377278E-23   2.29881083E-05  
  47               2.36511046E-01   4.72467069E+02   8.38293125E-01   1.60505243E-01   6.20241623E-04   3.81496895E-04   1.05473431E-04   5.85105196E-05   6.05273241E-22   2.29879991E-05  
  48               2.70207933E-01   4.92120057E+02   8.38293751E-01   1.60504615E-01   6.20242690E-04   3.81497551E-04   1.05473612E-04   5.85106213E-05   5.25351036E-21   2.29879091E-05  
  49               3.08376789E-01   5.11563564E+02   8.38294573E-01   1.60503700E-01   6.20291751E-04   3.81527728E-04   1.05481955E-04   5.85152506E-05   3.76880422E-20   2.29877781E-05  
  50               3.51577089E-01   5.32493451E+02   8.38296057E-01   1.60502219E-01   6.20290351E-04   3.81526866E-04   1.05481717E-04   5.85151198E-05   2.67981491E-19   2.29875659E-05  
  51               4.00454817E-01   5.53194919E+02   8.38297983E-01   1.60500298E-01   6.20288113E-04   3.81525490E-04   1.05481336E-04   5.85149100E-05   1.60524194E-18   2.29872908E-05  
  52               4.55720187E-01   5.75486340E+02   8.38300475E-01   1.60497811E-01   6.20285453E-04   3.81523854E-04   1.05480884E-04   5.85146605E-05   9.56577236E-18   2.29869346E-05  
  53               5.18159124E-01   5.97523367E+02   8.38303026E-01   1.60495267E-01   6.20282186E-04   3.81521844E-04   1.05480328E-04   5.85143539E-05   4.88055057E-17   2.29865703E-05  
  54               5.88612261E-01   6.21235011E+02   8.38305721E-01   1.60492578E-01   6.20278933E-04   3.81519843E-04   1.05479775E-04   5.85140487E-05   2.48026696E-16   2.29861851E-05  
  55               6.68018106E-01   6.44643006E+02   8.38308063E-01   1.60490241E-01   6.20276353E-04   3.81518257E-04   1.05479337E-04   5.85138073E-05   1.09354198E-15   2.29858504E-05  
  56               7.57516435E-01   6.69823447E+02   8.38310271E-01   1.60488035E-01   6.20274387E-04   3.81517047E-04   1.05479002E-04   5.85136240E-05   4.81117925E-15   2.29855345E-05  
  57               8.58302057E-01   6.94681564E+02   8.38312034E-01   1.60486267E-01   6.20273414E-04   3.81516449E-04   1.05478837E-04   5.85135348E-05   1.86206381E-14   2.29852813E-05  
  58               9.71693954E-01   7.21383931E+02   8.38313602E-01   1.60484678E-01   6.20273335E-04   3.81516400E-04   1.05478823E-04   5.85135302E-05   7.19060670E-14   2.29850536E-05  
  59               1.09908552E+00   7.47717961E+02   8.38314773E-01   1.60483440E-01   6.20274486E-04   3.81517108E-04   1.05479019E-04   5.85136421E-05   2.47027707E-13   2.29848762E-05  
  60               1.24194799E+00   7.75921956E+02   8.38315688E-01   1.60482324E-01   6.20277054E-04   3.81518687E-04   1.05479455E-04   5.85138884E-05   8.45195804E-13   2.29847163E-05  
  61               1.40218063E+00   8.03733286E+02   8.38316309E-01   1.60481452E-01   6.20283411E-04   3.81522598E-04   1.05480537E-04   5.85144928E-05   2.60257918E-12   2.29845910E-05  
  62               1.58181621E+00   8.33489346E+02   8.38317028E-01   1.60480709E-01   6.20290503E-04   3.81526960E-04   1.05481743E-04   5.85151669E-05   7.98691026E-12   2.29844836E-05  
  63               1.78291379E+00   8.62827041E+02   8.38317577E-01   1.60480123E-01   6.20294536E-04   3.81529440E-04   1.05482431E-04   5.85155530E-05   2.22869017E-11   2.29911377E-05  
  64               2.00777710E+00   8.94100119E+02   8.38318040E-01   1.60479564E-01   6.20299095E-04   3.81532244E-04   1.05483219E-04   5.85159892E-05   6.18476720E-11   2.30109061E-05  
  65               2.25871987E+00   9.24921875E+02   8.38318303E-01   1.60479044E-01   6.20304567E-04   3.81535610E-04   1.05484211E-04   5.85165118E-05   1.57529439E-10   2.30646817E-05  
  66               2.53827699E+00   9.57582777E+02   8.38318284E-01   1.60478395E-01   6.20311713E-04   3.81540005E-04   1.05485697E-04   5.85171926E-05   3.97576542E-10   2.32166329E-05  
  67               2.84953542E+00   9.89806454E+02   8.38317678E-01   1.60477532E-01   6.20335801E-04   3.81554820E-04   1.05490946E-04   5.85194720E-05   9.30393850E-10   2.35874279E-05  
  68               3.19574081E+00   1.02383284E+03   8.38317456E-01   1.60476357E-01   6.20338595E-04   3.81556528E-04   1.05495925E-04   5.85197439E-05   2.15565415E-09   2.42881142E-05  
  69               3.58035282E+00   1.05745590E+03   8.38319037E-01   1.60474763E-01   6.20339928E-04   3.81557270E-04   1.05513182E-04   5.85198863E-05   4.67477123E-09   2.42877900E-05  
  70               4.00757540E+00   1.09280697E+03   8.38321651E-01   1.60472093E-01   6.20338729E-04   3.81556029E-04   1.05572919E-04   5.85198431E-05   1.00241262E-08   2.42872427E-05  
  71               4.48197499E+00   1.12785332E+03   8.38325488E-01   1.60468061E-01   6.20331746E-04   3.81548612E-04   1.05773900E-04   5.85195793E-05   2.03105742E-08   2.42864068E-05  
  72               5.00865102E+00   1.16461128E+03   8.38331247E-01   1.60461709E-01   6.20306027E-04   3.81515744E-04   1.06402253E-04   5.85192785E-05   4.07015038E-08   2.42850752E-05  
  73               5.59355841E+00   1.20118061E+03   8.38338460E-01   1.60452879E-01   6.20192674E-04   3.81359156E-04   1.08241386E-04   5.85194024E-05   7.77022269E-08   2.42831794E-05  
  74               6.24354628E+00   1.23949005E+03   8.38347133E-01   1.60440423E-01   6.19695077E-04   3.80664480E-04   1.13124351E-04   5.85211111E-05   1.46840062E-07   2.42804164E-05  
  75               6.96804082E+00   1.27784822E+03   8.38355739E-01   1.60425076E-01   6.17663560E-04   3.77879386E-04   1.24521504E-04   5.85253107E-05   2.66611160E-07   2.42768065E-05  
  76               7.78446055E+00   1.31845309E+03   8.38367624E-01   1.60406735E-01   6.10738564E-04   3.68707244E-04   1.46798225E-04   5.85295742E-05   4.82590667E-07   2.42720381E-05  
  77               8.72477825E+00   1.36049241E+03   8.38392005E-01   1.60389006E-01   5.92488460E-04   3.46122210E-04   1.80525090E-04   5.85295227E-05   8.57168130E-07   2.42663108E-05  
  78               9.82545606E+00   1.40629671E+03   8.38436793E-01   1.60373019E-01   5.58974974E-04   3.08715941E-04   2.21821086E-04   5.85254822E-05   1.54060431E-06   2.42586330E-05  
  79               1.11150119E+01   1.45436439E+03   8.38489309E-01   1.60359071E-01   5.18543596E-04   2.67162706E-04   2.63668769E-04   5.85216426E-05   2.73199664E-06   2.42462804E-05  
  80               1.26062459E+01   1.50556141E+03   8.38539684E-01   1.60345668E-01   4.78607537E-04   2.26571467E-04   3.04184415E-04   5.85192528E-05   4.82595068E-06   2.42178139E-05  
  81               1.42984298E+01   1.55756441E+03   8.38579302E-01   1.60333385E-01   4.44187025E-04   1.91060011E-04   3.39613852E-04   5.85182898E-05   8.25647909E-06   2.41353819E-05  
  82               1.61631791E+01   1.61017361E+03   8.38597650E-01   1.60320203E-01   4.16588795E-04   1.59996691E-04   3.70583775E-04   5.85425159E-05   1.37056772E-05   2.38741728E-05  
  83               1.81701828E+01   1.66117557E+03   8.38608667E-01   1.60310349E-01   4.07300001E-04   1.32002253E-04   3.98487457E-04   5.85406794E-05   2.16762552E-05   2.25651015E-05  
  84               2.02554094E+01   1.71010178E+03   8.38618939E-01   1.60302521E-01   3.90012494E-04   1.12272349E-04   4.18129554E-04   5.85388116E-05   3.27613470E-05   2.24743850E-05  
  85               2.23460820E+01   1.75486929E+03   8.38610073E-01   1.60294494E-01   3.81504718E-04   9.64478399E-05   4.33865446E-04   5.85387981E-05   4.67714029E-05   2.22923760E-05  
  86               2.43333301E+01   1.79476330E+03   8.38581409E-01   1.60285919E-01   3.84124065E-04   8.28855285E-05   4.47346917E-04   5.85366298E-05   6.32396435E-05   2.19606131E-05  
  87               2.60710474E+01   1.82725504E+03   8.38529156E-01   1.60275895E-01   3.97330303E-04   7.19116983E-05   4.58253875E-04   5.85420731E-05   7.99874022E-05   2.15405135E-05  
  88               2.75231559E+01   1.85334153E+03   8.38447112E-01   1.60265095E-01   4.37208159E-04   6.04936941E-05   4.69634801E-04   5.85236346E-05   9.59990509E-05   2.08442193E-05  
  89               2.91226380E+01   1.88057597E+03   8.38435258E-01   1.60262077E-01   4.32622880E-04   5.58669663E-05   4.74209932E-04   5.85008679E-05   1.15447963E-04   2.08351750E-05  
  90               3.08855091E+01   1.90941017E+03   8.38418844E-01   1.60258769E-01   4.28272293E-04   5.14797803E-05   4.78538292E-04   5.84742273E-05   1.39510907E-04   2.08243928E-05  
  91               3.23245369E+01   1.93185253E+03   8.38403072E-01   1.60256092E-01   4.25253054E-04   4.84305882E-05   4.81539198E-04   5.84590143E-05   1.60959257E-04   2.08151870E-05  
  92               3.34339555E+01   1.94870886E+03   8.38378333E-01   1.60251878E-01   4.23139606E-04   4.63024364E-05   4.83622845E-04   5.84386722E-05   1.78807269E-04   2.08071567E-05  
  93               3.46805252E+01   1.96703154E+03   8.38361599E-01   1.60249519E-01   4.21022312E-04   4.41612939E-05   4.85721499E-04   5.84184634E-05   2.00003753E-04   2.07980454E-05  
  94               3.60759877E+01   1.98692840E+03   8.38341104E-01   1.60246822E-01   4.18896643E-04   4.20086407E-05   4.87826030E-04   5.83955524E-05   2.25304396E-04   2.07871073E-05  
  95               3.76303320E+01   2.00834010E+03   8.38316175E-01   1.60243752E-01   4.16798459E-04   3.98794637E-05   4.89901021E-04   5.83689664E-05   2.55378459E-04   2.07740288E-05  
  96               3.93675685E+01   2.03139640E+03   8.38285792E-01   1.60240225E-01   4.14740604E-04   3.77847756E-05   4.91934204E-04   5.83368533E-05   2.91317143E-04   2.07582897E-05  
  97               4.06769319E+01   2.04823457E+03   8.38261129E-01   1.60237485E-01   4.13362860E-04   3.63692785E-05   4.93302827E-04   5.83184574E-05   3.20066721E-04   2.07456357E-05  
  98               4.16364434E+01   2.06030351E+03   8.38242127E-01   1.60235429E-01   4.12418876E-04   3.54101378E-05   4.94227214E-04   5.82991915E-05   3.42052154E-04   2.07358246E-05  
  99               4.27298469E+01   2.07376311E+03   8.38189209E-01   1.60227242E-01   4.11427682E-04   3.43911680E-05   4.95187120E-04   5.82774407E-05   3.67969350E-04   2.07236052E-05  
  100              4.39719002E+01   2.08870963E+03   8.38162355E-01   1.60224491E-01   4.10377710E-04   3.33213284E-05   4.96211246E-04   5.82549179E-05   3.98596461E-04   2.07098395E-05  
  101              4.53809480E+01   2.10517261E+03   8.38128563E-01   1.60220889E-01   4.09336970E-04   3.22193436E-05   4.97259529E-04   5.82288642E-05   4.34620205E-04   2.06938556E-05  
