# ATMO chemical composition profiles
# Chemical abundances given as mole fraction for the 8 most abundant species
# Model Level      Pressure [Ba]    Temperature [K]  H2               He               H2O              CH4              H                N2               NH3              CO              
  1                1.00000000E-05   4.12692650E+01   8.38118686E-01   1.60472410E-01   7.76576665E-04   5.27427056E-04   3.16313735E-109  4.45931066E-05   3.26210336E-05   4.20830390E-07  
  2                2.72908703E-05   5.56244903E+01   8.38118686E-01   1.60472410E-01   7.76576687E-04   5.27427071E-04   1.91473801E-109  4.45931079E-05   3.26210345E-05   4.20830402E-07  
  3                4.87031061E-05   6.08916399E+01   8.38118686E-01   1.60472410E-01   7.76576702E-04   5.27427081E-04   1.43330865E-109  4.45931087E-05   3.26210351E-05   4.20830410E-07  
  4                7.52171475E-05   6.39057209E+01   8.38118686E-01   1.60472410E-01   7.76576713E-04   5.27427088E-04   1.15334602E-109  4.45931094E-05   3.26210356E-05   4.20830416E-07  
  5                1.08045071E-04   6.70247022E+01   8.38118686E-01   1.60472410E-01   7.76576723E-04   5.27427095E-04   9.62311268E-110  4.45931100E-05   3.26210361E-05   4.20830422E-07  
  6                1.48687181E-04   6.88339717E+01   8.38118686E-01   1.60472410E-01   7.76576733E-04   5.27427102E-04   8.20316198E-110  4.45931106E-05   3.26210365E-05   4.20830427E-07  
  7                1.98990964E-04   7.20330790E+01   8.38118686E-01   1.60472410E-01   7.76576742E-04   5.27427108E-04   7.09090019E-110  4.45931111E-05   3.26210369E-05   4.20830432E-07  
  8                2.60950828E-04   7.44548127E+01   8.38118686E-01   1.60472410E-01   7.76576751E-04   5.27427114E-04   6.19211068E-110  4.45931117E-05   3.26210372E-05   4.20830437E-07  
  9                3.36713745E-04   7.83543050E+01   8.38118686E-01   1.60472410E-01   7.76576760E-04   5.27427120E-04   5.45114366E-110  4.45931122E-05   3.26210376E-05   4.20830442E-07  
  10               4.28848104E-04   8.11788497E+01   8.38118686E-01   1.60472410E-01   7.76576766E-04   5.27427124E-04   4.83021323E-110  4.45931125E-05   3.26210379E-05   4.20830445E-07  
  11               5.40617447E-04   8.52837136E+01   8.38118686E-01   1.60472410E-01   7.76576768E-04   5.27427126E-04   4.30202591E-110  4.45931127E-05   3.26210380E-05   4.20830446E-07  
  12               6.76213459E-04   8.82252539E+01   8.38118686E-01   1.60472410E-01   7.76576770E-04   5.27427127E-04   3.84659219E-110  4.45931128E-05   3.26210380E-05   4.20830447E-07  
  13               8.41007683E-04   9.25265423E+01   8.38118686E-01   1.60472410E-01   7.76576772E-04   5.27427129E-04   3.44919755E-110  4.45931129E-05   3.26210381E-05   4.20830448E-07  
  14               1.04150692E-03   9.55642551E+01   8.38118686E-01   1.60472410E-01   7.76576775E-04   5.27427130E-04   3.09946667E-110  4.45931130E-05   3.26210382E-05   4.20830450E-07  
  15               1.28555295E-03   1.00270233E+02   8.38117964E-01   1.60472272E-01   7.76576778E-04   5.27427132E-04   5.62902199E-110  4.45931132E-05   3.26210384E-05   4.20830451E-07  
  16               1.58260874E-03   1.03790989E+02   8.38114472E-01   1.60471603E-01   7.76577450E-04   5.27427589E-04   3.40719644E-106  4.45931518E-05   3.26210666E-05   4.20830816E-07  
  17               1.94431213E-03   1.09053056E+02   8.38109493E-01   1.60470650E-01   7.76577049E-04   5.27427316E-04   5.59568801E-101  4.45931288E-05   3.26210498E-05   4.20830598E-07  
  18               2.38499001E-03   1.12940446E+02   8.38031099E-01   1.60455640E-01   7.76589917E-04   5.27436056E-04   1.88474582E-97   4.45938677E-05   3.26215903E-05   4.20837572E-07  
  19               2.92202250E-03   1.18734335E+02   8.38118577E-01   1.60472389E-01   7.76649500E-04   5.27476523E-04   1.32302330E-92   4.45972891E-05   3.26240931E-05   4.20869860E-07  
  20               3.57655137E-03   1.23047393E+02   8.38118646E-01   1.60472402E-01   7.76603066E-04   5.27444986E-04   2.62867569E-89   4.45946228E-05   3.26221426E-05   4.20844697E-07  
  21               4.37419189E-03   1.29423162E+02   8.38118544E-01   1.60472383E-01   7.76671795E-04   5.27491665E-04   8.11499388E-85   4.45985694E-05   3.26250297E-05   4.20881941E-07  
  22               5.34604083E-03   1.34224322E+02   8.38118543E-01   1.60472383E-01   7.76671803E-04   5.27491670E-04   9.90377724E-82   4.45985699E-05   3.26250300E-05   4.20881946E-07  
  23               6.53019764E-03   1.41216122E+02   8.38118542E-01   1.60472382E-01   7.76671812E-04   5.27491677E-04   1.35154897E-77   4.45985704E-05   3.26250304E-05   4.20881951E-07  
  24               7.97315136E-03   1.46428296E+02   8.38118531E-01   1.60472380E-01   7.76671824E-04   5.27491685E-04   8.77854218E-75   4.45985711E-05   3.26250309E-05   4.20881958E-07  
  25               9.73133684E-03   1.53988650E+02   8.38118508E-01   1.60472376E-01   7.76671839E-04   5.27491695E-04   5.01180558E-71   4.45985720E-05   3.26250316E-05   4.20881966E-07  
  26               1.18730294E-02   1.59734193E+02   8.38118324E-01   1.60472341E-01   7.76671896E-04   5.27491734E-04   2.01644400E-68   4.45985753E-05   3.26250340E-05   4.20881997E-07  
  27               1.44823393E-02   1.67903680E+02   8.38118002E-01   1.60472279E-01   7.76671954E-04   5.27491773E-04   5.18920726E-65   4.45985787E-05   3.26250364E-05   4.20882028E-07  
  28               1.76612937E-02   1.74142000E+02   8.38109744E-01   1.60470698E-01   7.76672637E-04   5.27492237E-04   1.23497286E-62   4.45986179E-05   3.26250651E-05   4.20882398E-07  
  29               2.15331721E-02   1.82819531E+02   8.38118533E-01   1.60472381E-01   7.76678799E-04   5.27496422E-04   1.38208752E-59   4.45989718E-05   3.26253240E-05   4.20885738E-07  
  30               2.62456055E-02   1.89561593E+02   8.38040013E-01   1.60457347E-01   7.76680841E-04   5.27497809E-04   2.01817922E-57   4.45990891E-05   3.26254097E-05   4.20886844E-07  
  31               3.19767917E-02   1.98841330E+02   8.38118449E-01   1.60472365E-01   7.76735045E-04   5.27534623E-04   1.13855911E-54   4.46022017E-05   3.26276866E-05   4.20916218E-07  
  32               3.89426343E-02   2.06128978E+02   8.37550770E-01   1.60363673E-01   7.76753332E-04   5.27547043E-04   1.07602946E-52   4.46032518E-05   3.26284548E-05   4.20926128E-07  
  33               4.74039774E-02   2.15831179E+02   8.38117839E-01   1.60472248E-01   7.77143626E-04   5.27812118E-04   2.92446802E-50   4.46256635E-05   3.26448496E-05   4.21137630E-07  
  34               5.76724619E-02   2.23543734E+02   8.38117635E-01   1.60472209E-01   7.77280324E-04   5.27904959E-04   1.73472954E-48   4.46335132E-05   3.26505917E-05   4.21211708E-07  
  35               7.01290325E-02   2.33416260E+02   8.38118308E-01   1.60472338E-01   7.76829966E-04   5.27599091E-04   2.22092087E-46   4.46076525E-05   3.26316740E-05   4.20967657E-07  
  36               8.52332194E-02   2.41216829E+02   8.38117629E-01   1.60472208E-01   7.77284433E-04   5.27907750E-04   7.56400605E-45   4.46337492E-05   3.26507644E-05   4.21213935E-07  
  37               1.03549616E-01   2.51199179E+02   8.38117629E-01   1.60472208E-01   7.77284466E-04   5.27907772E-04   5.12061649E-43   4.46337512E-05   3.26507658E-05   4.21213953E-07  
  38               1.25761302E-01   2.59382439E+02   8.38117629E-01   1.60472208E-01   7.77284498E-04   5.27907794E-04   1.24536962E-41   4.46337531E-05   3.26507671E-05   4.21213970E-07  
  39               1.52689288E-01   2.69863866E+02   8.38117629E-01   1.60472208E-01   7.77284533E-04   5.27907818E-04   5.70673235E-40   4.46337552E-05   3.26507686E-05   4.21213990E-07  
  40               1.85326714E-01   2.78682350E+02   8.38117629E-01   1.60472208E-01   7.77284572E-04   5.27907845E-04   1.11804889E-38   4.46337575E-05   3.26507703E-05   4.21214011E-07  
  41               2.24881348E-01   2.89868861E+02   8.38117629E-01   1.60472208E-01   7.77284614E-04   5.27907874E-04   3.82396547E-37   4.46337600E-05   3.26507721E-05   4.21214034E-07  
  42               2.72818703E-01   2.99527364E+02   8.38117629E-01   1.60472208E-01   7.77284661E-04   5.27907905E-04   6.41242417E-36   4.46337627E-05   3.26507740E-05   4.21214060E-07  
  43               3.30894918E-01   3.11652564E+02   8.38117629E-01   1.60472208E-01   7.77284712E-04   5.27907940E-04   1.75535842E-34   4.46337658E-05   3.26507762E-05   4.21214088E-07  
  44               4.01178241E-01   3.22568511E+02   8.38117628E-01   1.60472207E-01   7.77284769E-04   5.27907979E-04   2.75141016E-33   4.46337691E-05   3.26507786E-05   4.21214119E-07  
  45               4.86109953E-01   3.36366352E+02   8.38117628E-01   1.60472207E-01   7.77284830E-04   5.27908020E-04   7.03207340E-32   4.46337727E-05   3.26507812E-05   4.21214153E-07  
  46               5.88578536E-01   3.49257748E+02   8.38117626E-01   1.60472207E-01   7.77284901E-04   5.27908068E-04   1.13913894E-30   4.46337769E-05   3.26507842E-05   4.21214191E-07  
  47               7.12037800E-01   3.65185621E+02   8.38117627E-01   1.60472207E-01   7.77284974E-04   5.27908118E-04   2.75123480E-29   4.46337812E-05   3.26507873E-05   4.21214231E-07  
  48               8.60517448E-01   3.80726847E+02   8.38117437E-01   1.60472170E-01   7.77285071E-04   5.27908184E-04   4.71873454E-28   4.46337869E-05   3.26507914E-05   4.21214285E-07  
  49               1.03873560E+00   4.00086850E+02   8.38117455E-01   1.60472152E-01   7.77284880E-04   5.27908054E-04   1.21307698E-26   4.46337761E-05   3.26507834E-05   4.21214181E-07  
  50               1.25201716E+00   4.19806128E+02   8.38117452E-01   1.60472151E-01   7.77287633E-04   5.27909924E-04   2.42304474E-25   4.46339343E-05   3.26508991E-05   4.21215674E-07  
  51               1.50614946E+00   4.44024064E+02   8.38117443E-01   1.60472147E-01   7.77287747E-04   5.27910002E-04   6.74736853E-24   4.46339410E-05   3.26509039E-05   4.21215736E-07  
  52               1.80754779E+00   4.68694099E+02   8.38117043E-01   1.60472074E-01   7.77287909E-04   5.27910112E-04   1.39732258E-22   4.46339506E-05   3.26509108E-05   4.21215825E-07  
  53               2.16444542E+00   4.95016475E+02   8.38113858E-01   1.60471809E-01   7.77289440E-04   5.27911152E-04   2.53897412E-21   4.46340387E-05   3.26509751E-05   4.21216655E-07  
  54               2.58633150E+00   5.21806012E+02   8.38114172E-01   1.60471503E-01   7.77285109E-04   5.27908210E-04   3.58011097E-20   4.46337902E-05   3.26507932E-05   4.21214309E-07  
  55               3.08401948E+00   5.50386240E+02   8.38114135E-01   1.60471413E-01   7.77356425E-04   5.27956646E-04   4.53294113E-19   4.46378856E-05   3.26537890E-05   4.21252956E-07  
  56               3.66929942E+00   5.79390093E+02   8.38114272E-01   1.60471276E-01   7.77356382E-04   5.27956617E-04   4.59245599E-18   4.46378834E-05   3.26537872E-05   4.21252934E-07  
  57               4.35660238E+00   6.10295514E+02   8.38114543E-01   1.60471006E-01   7.77356101E-04   5.27956427E-04   4.24883791E-17   4.46378676E-05   3.26537755E-05   4.21252783E-07  
  58               5.16197914E+00   6.41606684E+02   8.38115001E-01   1.60470548E-01   7.77355432E-04   5.27955973E-04   3.23840286E-16   4.46378296E-05   3.26537475E-05   4.21252422E-07  
  59               6.10312614E+00   6.74921098E+02   8.38115768E-01   1.60469783E-01   7.77354133E-04   5.27955091E-04   2.28470066E-15   4.46377554E-05   3.26536930E-05   4.21251719E-07  
  60               7.19842432E+00   7.08497730E+02   8.38116842E-01   1.60468710E-01   7.77352184E-04   5.27953767E-04   1.35322658E-14   4.46376439E-05   3.26536112E-05   4.21250665E-07  
  61               8.47060476E+00   7.44123712E+02   8.38118311E-01   1.60467235E-01   7.77349334E-04   5.27951832E-04   7.49433777E-14   4.46374807E-05   3.26534916E-05   4.21249123E-07  
  62               9.94863427E+00   7.80014510E+02   8.38119967E-01   1.60465542E-01   7.77345920E-04   5.27949513E-04   3.57331713E-13   4.46372852E-05   3.26533482E-05   4.21247280E-07  
  63               1.16662756E+01   8.18228549E+02   8.38121725E-01   1.60463570E-01   7.77342162E-04   5.27946961E-04   1.62119811E-12   4.46370700E-05   3.26531905E-05   4.21245306E-07  
  64               1.36577193E+01   8.56661133E+02   8.38123392E-01   1.60461652E-01   7.77339691E-04   5.27945284E-04   6.44701992E-12   4.46369288E-05   3.26530868E-05   4.21244565E-07  
  65               1.59569583E+01   8.97413189E+02   8.38125262E-01   1.60459754E-01   7.77344652E-04   5.27948653E-04   2.44859006E-11   4.46372143E-05   3.26532953E-05   4.21252512E-07  
  66               1.86095613E+01   9.38206713E+02   8.38126851E-01   1.60458095E-01   7.77341596E-04   5.27946578E-04   8.25516380E-11   4.46370396E-05   3.26531671E-05   4.21294317E-07  
  67               2.16606917E+01   9.81425758E+02   8.38128198E-01   1.60456502E-01   7.77339445E-04   5.27945118E-04   2.67931144E-10   4.46369169E-05   3.26530769E-05   4.21601686E-07  
  68               2.51550575E+01   1.02437607E+03   8.38128812E-01   1.60455117E-01   7.77340475E-04   5.27945817E-04   7.78894589E-10   4.46369769E-05   3.26531203E-05   4.23605014E-07  
  69               2.91330642E+01   1.06958369E+03   8.38128609E-01   1.60453742E-01   7.77351322E-04   5.27953178E-04   2.18326309E-09   4.46376010E-05   3.26535763E-05   4.34499905E-07  
  70               3.36466518E+01   1.11410920E+03   8.38128375E-01   1.60452654E-01   7.77363924E-04   5.27961669E-04   5.52775361E-09   4.46383294E-05   3.26541086E-05   4.84109612E-07  
  71               3.87847781E+01   1.16120543E+03   8.38129185E-01   1.60451660E-01   7.77362763E-04   5.27960239E-04   1.36678713E-08   4.46383003E-05   3.26540865E-05   6.55665717E-07  
  72               4.46380849E+01   1.20776789E+03   8.38129689E-01   1.60450725E-01   7.77358742E-04   5.27952298E-04   3.10677634E-08   4.46383887E-05   3.26541486E-05   1.07138768E-06  
  73               5.12948306E+01   1.25036348E+03   8.38129866E-01   1.60449940E-01   7.77324909E-04   5.27896977E-04   6.18538096E-08   4.46385966E-05   3.26542868E-05   1.72205708E-06  
  74               5.88285150E+01   1.29459679E+03   8.38130116E-01   1.60449011E-01   7.77154452E-04   5.27645629E-04   1.20474459E-07   4.46388464E-05   3.26543997E-05   2.74169366E-06  
  75               6.73251094E+01   1.33689425E+03   8.38130890E-01   1.60448171E-01   7.76557757E-04   5.26854011E-04   2.17485247E-07   4.46390712E-05   3.26542419E-05   4.06787409E-06  
  76               7.69304693E+01   1.38228326E+03   8.38132840E-01   1.60447164E-01   7.75113759E-04   5.25134678E-04   3.94467358E-07   4.46392759E-05   3.26530363E-05   6.06440806E-06  
  77               8.77931545E+01   1.42693704E+03   8.38135749E-01   1.60446150E-01   7.72842612E-04   5.22643240E-04   6.80177411E-07   4.46400717E-05   3.26483163E-05   8.58870063E-06  
  78               1.00058026E+02   1.47545721E+03   8.38140045E-01   1.60444721E-01   7.69378061E-04   5.18947500E-04   1.18727851E-06   4.46434860E-05   3.26312285E-05   1.22857786E-05  
  79               1.13813499E+02   1.52392411E+03   8.38145190E-01   1.60443036E-01   7.64997692E-04   5.14321164E-04   1.99379278E-06   4.46554045E-05   3.25771562E-05   1.68856077E-05  
  80               1.29089683E+02   1.57669886E+03   8.38152204E-01   1.60440613E-01   7.58760589E-04   5.07715144E-04   3.39229922E-06   4.46923932E-05   3.24218387E-05   2.34469937E-05  
  81               1.45960168E+02   1.63000171E+03   8.38159816E-01   1.60437587E-01   7.51160627E-04   4.99583526E-04   5.59572497E-06   4.47710974E-05   3.21403609E-05   3.15115511E-05  
  82               1.64471531E+02   1.68276722E+03   8.38151553E-01   1.60431104E-01   7.42938931E-04   4.90235717E-04   8.88175874E-06   4.48639314E-05   3.18775223E-05   4.07575776E-05  
  83               1.84609297E+02   1.73549811E+03   8.38142192E-01   1.60426848E-01   7.52018857E-04   4.78520046E-04   1.36865907E-05   4.49287428E-05   3.17202163E-05   5.23491399E-05  
  84               2.06435014E+02   1.78732589E+03   8.38149756E-01   1.60422553E-01   7.41207478E-04   4.67156568E-04   2.03803718E-05   4.49116001E-05   3.17109211E-05   6.35549064E-05  
  85               2.30066373E+02   1.83913331E+03   8.38154131E-01   1.60417661E-01   7.30494171E-04   4.55026492E-04   2.96378722E-05   4.48444032E-05   3.17891843E-05   7.54826457E-05  
  86               2.55512353E+02   1.88997676E+03   8.38149271E-01   1.60411691E-01   7.22055163E-04   4.42628677E-04   4.18796259E-05   4.47137928E-05   3.19831801E-05   8.76299134E-05  
  87               2.82589346E+02   1.94017142E+03   8.38129858E-01   1.60404187E-01   7.19274511E-04   4.29476164E-04   5.78235323E-05   4.45462364E-05   3.22390882E-05   1.00476531E-04  
  88               3.10765674E+02   1.98809253E+03   8.38078034E-01   1.60392840E-01   7.27472480E-04   4.15629361E-04   7.73714883E-05   4.43340421E-05   3.25751301E-05   1.13966189E-04  
  89               3.42080578E+02   2.03776872E+03   8.37976224E-01   1.60378089E-01   7.72794747E-04   3.96283767E-04   1.03048541E-04   4.40860598E-05   3.29722341E-05   1.32891643E-04  
  90               3.74353391E+02   2.08488156E+03   8.37962202E-01   1.60372323E-01   7.62101999E-04   3.85121598E-04   1.33351261E-04   4.38013759E-05   3.34361821E-05   1.43595965E-04  
  91               4.06449887E+02   2.12888487E+03   8.37942869E-01   1.60366577E-01   7.52546582E-04   3.75064187E-04   1.67806397E-04   4.35120852E-05   3.39053884E-05   1.53159936E-04  
  92               4.43103611E+02   2.17549278E+03   8.37902965E-01   1.60357911E-01   7.43154084E-04   3.65070308E-04   2.11632195E-04   4.31649558E-05   3.44709373E-05   1.62549167E-04  
  93               4.76478972E+02   2.21541146E+03   8.37871780E-01   1.60352052E-01   7.35614583E-04   3.56940744E-04   2.56007378E-04   4.28466089E-05   3.49891867E-05   1.70100678E-04  
  94               5.04457515E+02   2.24698539E+03   8.37842054E-01   1.60347132E-01   7.30084199E-04   3.50892353E-04   2.95993562E-04   4.25742168E-05   3.54341477E-05   1.75645600E-04  
  95               5.37194440E+02   2.28230838E+03   8.37803125E-01   1.60341278E-01   7.24240013E-04   3.44407525E-04   3.46392938E-04   4.22568366E-05   3.59504060E-05   1.81515535E-04  
  96               5.75395039E+02   2.32117316E+03   8.37750784E-01   1.60334043E-01   7.18358733E-04   3.37747681E-04   4.09231563E-04   4.18829825E-05   3.65595119E-05   1.87431575E-04  
  97               6.19991245E+02   2.36396404E+03   8.37648743E-01   1.60319757E-01   7.16872904E-04   3.30130866E-04   4.88214499E-04   4.14484003E-05   3.72649432E-05   1.94140772E-04  
  98               6.58140460E+02   2.39847235E+03   8.37587855E-01   1.60312823E-01   7.12683197E-04   3.24980851E-04   5.59972759E-04   4.10780480E-05   3.78679060E-05   1.98497612E-04  
  99               6.89461456E+02   2.42556199E+03   8.37534842E-01   1.60306930E-01   7.09672476E-04   3.21175075E-04   6.21687734E-04   4.07754101E-05   3.83603072E-05   2.01635722E-04  
  100              7.26878873E+02   2.45665620E+03   8.37467922E-01   1.60299752E-01   7.06483009E-04   3.17026136E-04   6.98739250E-04   4.04175345E-05   3.89413204E-05   2.04967878E-04  
  101              7.71359547E+02   2.49168693E+03   8.37384396E-01   1.60291153E-01   7.03329192E-04   3.12728782E-04   7.93743236E-04   3.99934481E-05   3.96315629E-05   2.08278176E-04  
