# ATMO chemical composition profiles
# Chemical abundances given as mole fraction for the 8 most abundant species
# Model Level      Pressure [Ba]    Temperature [K]  H2               He               H2O              H                CH4              CO               N2               H2S             
  1                1.00000000E-05   2.16844386E+02   8.38161500E-01   1.60480607E-01   7.50724758E-04   3.54698719E-48   5.03065392E-04   9.36586529E-06   5.37927385E-05   2.29832837E-05  
  2                8.51416634E-05   2.45114235E+02   8.38161501E-01   1.60480606E-01   7.50724757E-04   1.34370667E-42   5.03065391E-04   9.36586529E-06   5.37927384E-05   2.29832835E-05  
  3                1.73574751E-04   2.64057394E+02   8.38161507E-01   1.60480600E-01   7.50724753E-04   2.00292432E-39   5.03065388E-04   9.36586523E-06   5.37927381E-05   2.29832827E-05  
  4                2.80235812E-04   2.67677054E+02   8.38161505E-01   1.60480603E-01   7.50724770E-04   6.02790272E-39   5.03065400E-04   9.36586545E-06   5.37927395E-05   2.29832831E-05  
  5                4.09779094E-04   2.79923878E+02   8.38161513E-01   1.60480594E-01   7.50724767E-04   3.60814529E-37   5.03065398E-04   9.36586541E-06   5.37927393E-05   2.29832819E-05  
  6                5.67428021E-04   2.81256249E+02   8.38161508E-01   1.60480599E-01   7.50724797E-04   4.77738442E-37   5.03065418E-04   9.36586578E-06   5.37927416E-05   2.29832826E-05  
  7                7.59687040E-04   2.91564460E+02   8.38161518E-01   1.60480590E-01   7.50724799E-04   1.11320948E-35   5.03065419E-04   9.36586581E-06   5.37927418E-05   2.29832812E-05  
  8                9.94196145E-04   2.92638419E+02   8.38161512E-01   1.60480595E-01   7.50724842E-04   1.35346489E-35   5.03065448E-04   9.36586635E-06   5.37927451E-05   2.29832820E-05  
  9                1.28042380E-03   3.02488665E+02   8.38161524E-01   1.60480583E-01   7.50724850E-04   2.20533357E-34   5.03065453E-04   9.36586644E-06   5.37927458E-05   2.29832802E-05  
  10               1.62971422E-03   3.03632657E+02   8.38161517E-01   1.60480590E-01   7.50724910E-04   2.70978104E-34   5.03065494E-04   9.36586719E-06   5.37927503E-05   2.29832812E-05  
  11               2.05609869E-03   3.13341882E+02   8.38161533E-01   1.60480574E-01   7.50724926E-04   3.50557312E-33   5.03065504E-04   9.36586739E-06   5.37927517E-05   2.29832789E-05  
  12               2.57651674E-03   3.14511454E+02   8.38161523E-01   1.60480583E-01   7.50725009E-04   4.27516220E-33   5.03065560E-04   9.36586843E-06   5.37927580E-05   2.29832802E-05  
  13               3.21181409E-03   3.24155444E+02   8.38161543E-01   1.60480562E-01   7.50725056E-04   4.57931550E-32   5.03065591E-04   9.36586901E-06   5.37927617E-05   2.29832773E-05  
  14               3.98717637E-03   3.25462760E+02   8.38161532E-01   1.60480573E-01   7.50725171E-04   5.68906815E-32   5.03065668E-04   9.36587044E-06   5.37927703E-05   2.29832789E-05  
  15               4.93341278E-03   3.35306035E+02   8.38161558E-01   1.60480547E-01   7.50725217E-04   5.45434077E-31   5.03065699E-04   9.36587103E-06   5.37927741E-05   2.29832751E-05  
  16               6.08772022E-03   3.36836931E+02   8.38161540E-01   1.60480560E-01   7.50725369E-04   7.00790711E-31   5.03065801E-04   9.36587292E-06   5.37927855E-05   2.29832770E-05  
  17               7.49555558E-03   3.47050372E+02   8.38161575E-01   1.60480525E-01   7.50725489E-04   6.25821269E-30   5.03065881E-04   9.36587441E-06   5.37927947E-05   2.29832720E-05  
  18               9.21193642E-03   3.48963574E+02   8.38161558E-01   1.60480542E-01   7.50725690E-04   8.54680940E-30   5.03066016E-04   9.36587692E-06   5.37928097E-05   2.29832743E-05  
  19               1.13039078E-02   3.59671420E+02   8.38161593E-01   1.60480492E-01   7.50725767E-04   7.24939503E-29   5.03066068E-04   9.36587788E-06   5.37928159E-05   2.29832672E-05  
  20               1.38522240E-02   3.62088857E+02   8.38161574E-01   1.60480510E-01   7.50726213E-04   1.06631906E-28   5.03066366E-04   9.36588344E-06   5.37928486E-05   2.29832699E-05  
  21               1.69555485E-02   3.73353400E+02   8.38161639E-01   1.60480445E-01   7.50726311E-04   8.60244239E-28   5.03066432E-04   9.36588467E-06   5.37928565E-05   2.29832604E-05  
  22               2.07325250E-02   3.76242105E+02   8.38161615E-01   1.60480469E-01   7.50726631E-04   1.33539694E-27   5.03066647E-04   9.36588866E-06   5.37928804E-05   2.29832639E-05  
  23               2.53274295E-02   3.87953330E+02   8.38161661E-01   1.60480371E-01   7.50726708E-04   9.95099859E-27   5.03066698E-04   9.36588962E-06   5.37928869E-05   2.29832499E-05  
  24               3.09141975E-02   3.91219578E+02   8.38161633E-01   1.60480397E-01   7.50727745E-04   1.58581610E-26   5.03067393E-04   9.36590256E-06   5.37929622E-05   2.29832536E-05  
  25               3.77039955E-02   4.03429581E+02   8.38161753E-01   1.60480277E-01   7.50727844E-04   1.09766438E-25   5.03067460E-04   9.36590379E-06   5.37929705E-05   2.29832364E-05  
  26               4.59490308E-02   4.07202577E+02   8.38161715E-01   1.60480314E-01   7.50728317E-04   1.81897903E-25   5.03067776E-04   9.36590969E-06   5.37930055E-05   2.29832417E-05  
  27               5.59520178E-02   4.20294156E+02   8.38161721E-01   1.60480111E-01   7.50728271E-04   1.23277408E-24   5.03067746E-04   9.36590912E-06   5.37930035E-05   2.29832127E-05  
  28               6.80759899E-02   4.24970609E+02   8.38161693E-01   1.60480130E-01   7.50731200E-04   2.22565978E-24   5.03069708E-04   9.36594566E-06   5.37932147E-05   2.29832154E-05  
  29               8.27614056E-02   4.39080645E+02   8.38161941E-01   1.60479882E-01   7.50731176E-04   1.47672968E-23   5.03069692E-04   9.36594535E-06   5.37932144E-05   2.29831799E-05  
  30               1.00529471E-01   4.44766771E+02   8.38161813E-01   1.60479892E-01   7.50731757E-04   2.88364929E-23   5.03070081E-04   9.36595260E-06   5.37932575E-05   2.29831813E-05  
  31               1.22006562E-01   4.60030249E+02   8.38161433E-01   1.60479462E-01   7.50731686E-04   1.86638158E-22   5.03070034E-04   9.36595172E-06   5.37932539E-05   2.29831197E-05  
  32               1.47929669E-01   4.67086732E+02   8.38161181E-01   1.60479332E-01   7.50742259E-04   4.02564323E-22   5.03077119E-04   9.36608362E-06   5.37940131E-05   2.29831011E-05  
  33               1.79169785E-01   4.83996023E+02   8.38161535E-01   1.60478969E-01   7.50747893E-04   2.62513982E-21   5.03080894E-04   9.36615390E-06   5.37944185E-05   2.29830490E-05  
  34               2.16720376E-01   4.93175967E+02   8.38161651E-01   1.60478851E-01   7.50748434E-04   6.57793131E-21   5.03081257E-04   9.36616066E-06   5.37944591E-05   2.29830322E-05  
  35               2.61839744E-01   5.10130572E+02   8.38160255E-01   1.60477656E-01   7.50745306E-04   3.53800257E-20   5.03079160E-04   9.36612163E-06   5.37942368E-05   2.29828610E-05  
  36               3.15970954E-01   5.20662531E+02   8.38160612E-01   1.60477209E-01   7.50795675E-04   9.16669121E-20   5.03112913E-04   9.36675003E-06   5.37978480E-05   2.29827971E-05  
  37               3.80854971E-01   5.39125016E+02   8.38161713E-01   1.60476112E-01   7.50794043E-04   4.73642749E-19   5.03111819E-04   9.36672966E-06   5.37977332E-05   2.29826399E-05  
  38               4.58508488E-01   5.51418581E+02   8.38162115E-01   1.60475709E-01   7.50794376E-04   1.28615602E-18   5.03112042E-04   9.36673381E-06   5.37977593E-05   2.29825822E-05  
  39               5.51349452E-01   5.71801287E+02   8.38163598E-01   1.60474231E-01   7.50791998E-04   6.46823086E-18   5.03110449E-04   9.36670414E-06   5.37975912E-05   2.29823705E-05  
  40               6.62146828E-01   5.86239270E+02   8.38164245E-01   1.60473584E-01   7.50791460E-04   1.84215099E-17   5.03110088E-04   9.36669743E-06   5.37975552E-05   2.29822779E-05  
  41               7.94101923E-01   6.08834238E+02   8.38166076E-01   1.60471759E-01   7.50788387E-04   8.96922511E-17   5.03108029E-04   9.36665910E-06   5.37973378E-05   2.29820165E-05  
  42               9.50823684E-01   6.25869474E+02   8.38166994E-01   1.60470843E-01   7.50787364E-04   2.67460105E-16   5.03107343E-04   9.36664633E-06   5.37972674E-05   2.29818854E-05  
  43               1.13679142E+00   6.51225379E+02   8.38169060E-01   1.60468783E-01   7.50783899E-04   1.26944149E-15   5.03105022E-04   9.36660310E-06   5.37970223E-05   2.29815903E-05  
  44               1.35706326E+00   6.71492535E+02   8.38170203E-01   1.60467641E-01   7.50782524E-04   3.96529894E-15   5.03104100E-04   9.36658595E-06   5.37969272E-05   2.29814267E-05  
  45               1.61725519E+00   7.00024519E+02   8.38172278E-01   1.60465569E-01   7.50779187E-04   1.81495916E-14   5.03101864E-04   9.36654431E-06   5.37966918E-05   2.29811300E-05  
  46               1.92347259E+00   7.23672241E+02   8.38173458E-01   1.60464376E-01   7.50777918E-04   5.74018252E-14   5.03101013E-04   9.36652848E-06   5.37966049E-05   2.29809591E-05  
  47               2.28313064E+00   7.55380782E+02   8.38175264E-01   1.60462536E-01   7.50775487E-04   2.45684629E-13   5.03099384E-04   9.36649815E-06   5.37964352E-05   2.29806956E-05  
  48               2.70428599E+00   7.82507927E+02   8.38176164E-01   1.60461420E-01   7.50775032E-04   7.64000531E-13   5.03099080E-04   9.36649250E-06   5.37964073E-05   2.29805355E-05  
  49               3.19681354E+00   8.17526839E+02   8.38177434E-01   1.60459892E-01   7.50778127E-04   3.01193219E-12   5.03101153E-04   9.36653121E-06   5.37966341E-05   2.29803163E-05  
  50               3.77124017E+00   8.48076018E+02   8.38178301E-01   1.60459005E-01   7.50782783E-04   8.95749565E-12   5.03104273E-04   9.36659011E-06   5.37969730E-05   2.29801883E-05  
  51               4.44053786E+00   8.86238540E+02   8.38179399E-01   1.60457873E-01   7.50782096E-04   3.19195848E-11   5.03103812E-04   9.36658666E-06   5.37969293E-05   2.29884341E-05  
  52               5.21799590E+00   9.19915410E+02   8.38179972E-01   1.60457178E-01   7.50782554E-04   8.85744261E-11   5.03104120E-04   9.36662960E-06   5.37969679E-05   2.30096001E-05  
  53               6.11740762E+00   9.60956900E+02   8.38180507E-01   1.60456274E-01   7.50783610E-04   2.82393957E-10   5.03104827E-04   9.36685648E-06   5.37970494E-05   2.30921043E-05  
  54               7.15465643E+00   9.97465340E+02   8.38179858E-01   1.60455519E-01   7.50787116E-04   7.22306082E-10   5.03107176E-04   9.36824074E-06   5.37973068E-05   2.32989801E-05  
  55               8.34913095E+00   1.04116377E+03   8.38178798E-01   1.60454562E-01   7.50812322E-04   2.05992545E-09   5.03124059E-04   9.37532966E-06   5.37991196E-05   2.42848312E-05  
  56               9.72396660E+00   1.08014071E+03   8.38179433E-01   1.60453886E-01   7.50812176E-04   4.82690310E-09   5.03123881E-04   9.41075943E-06   5.37991231E-05   2.42846492E-05  
  57               1.13041113E+01   1.12578838E+03   8.38180451E-01   1.60452707E-01   7.50810363E-04   1.22414739E-08   5.03121995E-04   9.56142885E-06   5.37990656E-05   2.42843031E-05  
  58               1.31155899E+01   1.16644954E+03   8.38181229E-01   1.60451328E-01   7.50803329E-04   2.60784653E-08   5.03111208E-04   1.01593098E-05   5.37991762E-05   2.42838458E-05  
  59               1.51889155E+01   1.21344146E+03   8.38182085E-01   1.60448668E-01   7.50755389E-04   5.91000982E-08   5.03040706E-04   1.20311365E-05   5.37996703E-05   2.42829648E-05  
  60               1.75657681E+01   1.25510513E+03   8.38181786E-01   1.60445380E-01   7.50433185E-04   1.14650396E-07   5.02593867E-04   1.63051190E-05   5.38012258E-05   2.42818128E-05  
  61               2.02944317E+01   1.30277584E+03   8.38182159E-01   1.60439937E-01   7.48953833E-04   2.33729277E-07   5.00646248E-04   2.46381397E-05   5.38039980E-05   2.42798252E-05  
  62               2.34268018E+01   1.34441278E+03   8.38187727E-01   1.60435441E-01   7.43967663E-04   4.12695044E-07   4.94691954E-04   3.42745376E-05   5.38055694E-05   2.42776778E-05  
  63               2.70231917E+01   1.39183867E+03   8.38202264E-01   1.60429719E-01   7.32630271E-04   7.61007871E-07   4.82198183E-04   4.88660981E-05   5.38056740E-05   2.42743254E-05  
  64               3.11533429E+01   1.43281626E+03   8.38218574E-01   1.60425529E-01   7.19976352E-04   1.23406179E-06   4.69273175E-04   6.17546529E-05   5.38042764E-05   2.42706391E-05  
  65               3.59177620E+01   1.48016020E+03   8.38241553E-01   1.60419430E-01   7.01988822E-04   2.10050796E-06   4.50954849E-04   8.01480048E-05   5.38021108E-05   2.42641343E-05  
  66               4.14054315E+01   1.52129055E+03   8.38258480E-01   1.60414702E-01   6.87949899E-04   3.20577360E-06   4.36643099E-04   9.43891708E-05   5.37989344E-05   2.42555009E-05  
  67               4.76836733E+01   1.56974535E+03   8.38282668E-01   1.60407936E-01   6.68375465E-04   5.17310891E-06   4.16136879E-04   1.14830092E-04   5.37922099E-05   2.42096862E-05  
  68               5.47818789E+01   1.61265832E+03   8.38298911E-01   1.60402567E-01   6.53153045E-04   7.63892212E-06   4.00702254E-04   1.30184846E-04   5.37710305E-05   2.42004603E-05  
  69               6.26923899E+01   1.66402630E+03   8.38307174E-01   1.60391777E-01   6.32179841E-04   1.19983840E-05   3.77690905E-04   1.53067092E-04   5.37325111E-05   2.40972506E-05  
  70               7.13927111E+01   1.71104076E+03   8.38310760E-01   1.60384392E-01   6.30444215E-04   1.75998665E-05   3.56266929E-04   1.74360463E-04   5.36665043E-05   2.31582778E-05  
  71               8.08906663E+01   1.76807101E+03   8.38334580E-01   1.60374603E-01   6.04554056E-04   2.75914647E-05   3.29131009E-04   2.01297615E-04   5.36223286E-05   2.31185138E-05  
  72               9.10804287E+01   1.82345195E+03   8.38344083E-01   1.60364223E-01   5.83700712E-04   4.14817680E-05   3.04000860E-04   2.26193027E-04   5.35569906E-05   2.30302432E-05  
  73               1.01813001E+02   1.87781338E+03   8.38330669E-01   1.60351839E-01   5.72196509E-04   6.04392887E-05   2.78975024E-04   2.50944786E-04   5.34740401E-05   2.28094342E-05  
  74               1.12784755E+02   1.92774269E+03   8.38277046E-01   1.60336013E-01   5.78310636E-04   8.36099029E-05   2.54839089E-04   2.74793824E-04   5.33579791E-05   2.23895419E-05  
  75               1.23486201E+02   1.97383405E+03   8.38203157E-01   1.60320435E-01   6.05864282E-04   1.11168618E-04   2.29169548E-04   3.00200230E-04   5.32497428E-05   2.17755620E-05  
  76               1.33530336E+02   2.01326820E+03   8.38192108E-01   1.60314341E-01   5.94006687E-04   1.40144667E-04   2.17044672E-04   3.12058217E-04   5.31218194E-05   2.17477209E-05  
  77               1.44870994E+02   2.05602423E+03   8.38162594E-01   1.60305498E-01   5.81962432E-04   1.78374674E-04   2.04686751E-04   3.24088483E-04   5.29796614E-05   2.17132727E-05  
  78               1.54744861E+02   2.09019914E+03   8.38140401E-01   1.60299960E-01   5.73560669E-04   2.14464732E-04   1.96007229E-04   3.32484914E-04   5.28429117E-05   2.16854252E-05  
  79               1.62674748E+02   2.11715649E+03   8.38118833E-01   1.60295313E-01   5.67150610E-04   2.47060016E-04   1.89360661E-04   3.38891475E-04   5.27378168E-05   2.16609414E-05  
  80               1.71924076E+02   2.14635855E+03   8.38090568E-01   1.60290216E-01   5.61032608E-04   2.86480617E-04   1.82966524E-04   3.45006436E-04   5.26046403E-05   2.16345072E-05  
  81               1.82654630E+02   2.17947325E+03   8.38052501E-01   1.60284027E-01   5.54376013E-04   3.37315605E-04   1.75968186E-04   3.51665113E-04   5.24552108E-05   2.16014469E-05  
  82               1.95022250E+02   2.21501017E+03   8.37971230E-01   1.60270885E-01   5.48120699E-04   3.99279841E-04   1.69304025E-04   3.57913043E-04   5.22726819E-05   2.15640806E-05  
  83               2.04443415E+02   2.24142168E+03   8.37929309E-01   1.60265403E-01   5.43652713E-04   4.51118908E-04   1.64540181E-04   3.62362648E-04   5.21391838E-05   2.15343016E-05  
  84               2.11329286E+02   2.25963307E+03   8.37897443E-01   1.60261465E-01   5.40921107E-04   4.89622880E-04   1.61593468E-04   3.65080245E-04   5.20371447E-05   2.15137104E-05  
  85               2.19535368E+02   2.28126153E+03   8.37856345E-01   1.60256503E-01   5.37680990E-04   5.38894216E-04   1.58087405E-04   3.68303436E-04   5.19196967E-05   2.14874642E-05  
  86               2.29271636E+02   2.30556719E+03   8.37803730E-01   1.60250338E-01   5.34439498E-04   5.98509753E-04   1.54531008E-04   3.71522804E-04   5.17759013E-05   2.14575557E-05  
  87               2.40771821E+02   2.33361095E+03   8.37732785E-01   1.60242820E-01   5.35441248E-04   6.73734957E-04   1.49655027E-04   3.76019822E-04   5.16135655E-05   2.14363830E-05  
  88               2.54297243E+02   2.36483416E+03   8.37652685E-01   1.60234359E-01   5.32054262E-04   7.65589552E-04   1.45670016E-04   3.79523274E-04   5.14152464E-05   2.13944528E-05  
  89               2.70141001E+02   2.39993551E+03   8.37551816E-01   1.60224053E-01   5.28581285E-04   8.80139585E-04   1.41498520E-04   3.83115566E-04   5.11851689E-05   2.13442919E-05  
  90               2.88629391E+02   2.43861074E+03   8.37426705E-01   1.60211711E-01   5.25273769E-04   1.02079069E-03   1.37384919E-04   3.86539930E-04   5.09164011E-05   2.12860576E-05  
  91               3.10131705E+02   2.48100580E+03   8.37271640E-01   1.60196859E-01   5.22185635E-04   1.19367730E-03   1.33364403E-04   3.89740277E-04   5.06053445E-05   2.12184056E-05  
  92               3.35064589E+02   2.52729819E+03   8.37079394E-01   1.60178883E-01   5.19356833E-04   1.40660107E-03   1.29451965E-04   3.92676214E-04   5.02485687E-05   2.11397074E-05  
  93               3.63921846E+02   2.57681629E+03   8.36846044E-01   1.60157581E-01   5.17103836E-04   1.66335944E-03   1.25946871E-04   3.95031386E-04   4.98366465E-05   2.10513240E-05  
  94               3.97281103E+02   2.63070178E+03   8.36556362E-01   1.60131499E-01   5.15155345E-04   1.98092050E-03   1.22520007E-04   3.97085115E-04   4.93713201E-05   2.09481839E-05  
  95               4.35841202E+02   2.68732248E+03   8.36211233E-01   1.60100973E-01   5.14092760E-04   2.35745732E-03   1.19736332E-04   3.98261990E-04   4.88362904E-05   2.08356352E-05  
  96               4.80452421E+02   2.74859630E+03   8.35785227E-01   1.60063575E-01   5.13474904E-04   2.82128539E-03   1.17058667E-04   3.99020461E-04   4.82354527E-05   2.07056680E-05  
  97               5.32215690E+02   2.81270840E+03   8.35281279E-01   1.60019834E-01   5.13917184E-04   3.36829674E-03   1.15068658E-04   3.98759931E-04   4.75486971E-05   2.05655035E-05  
  98               5.92565533E+02   2.88193040E+03   8.34662741E-01   1.59966362E-01   5.15028816E-04   4.03893372E-03   1.13234126E-04   3.97898766E-04   4.67754901E-05   2.04058313E-05  
  99               6.63125786E+02   2.95431929E+03   8.33935104E-01   1.59903901E-01   5.17407204E-04   4.82632963E-03   1.12098888E-04   3.95861376E-04   4.58939960E-05   2.02354637E-05  
  100              7.45816699E+02   3.03208253E+03   8.33051645E-01   1.59828204E-01   5.20719695E-04   5.78179830E-03   1.11153655E-04   3.93014581E-04   4.49025930E-05   2.00446738E-05  
  101              8.42622429E+02   3.11267488E+03   8.32030816E-01   1.59741136E-01   5.25541799E-04   6.88439928E-03   1.10941250E-04   3.88795219E-04   4.37812535E-05   1.98455018E-05  
