# ATMO chemical composition profiles
# Chemical abundances given as mole fraction for the 8 most abundant species
# Model Level      Pressure [Ba]    Temperature [K]  H2               He               H2O              CH4              CO               N2               H2S              H               
  1                1.00000000E-05   4.36627690E+01   8.38218890E-01   1.60491561E-01   7.04938862E-04   4.61372973E-04   3.16166667E-05   5.70391607E-05   2.29854177E-05   3.16351532E-109 
  2                5.78938922E-05   5.50664539E+01   8.38218890E-01   1.60491561E-01   7.04938892E-04   4.61372993E-04   3.16166681E-05   5.70391634E-05   2.29854177E-05   1.31478145E-109 
  3                1.14112489E-04   6.08228421E+01   8.38218890E-01   1.60491561E-01   7.04938910E-04   4.61373005E-04   3.16166689E-05   5.70391651E-05   2.29854177E-05   9.36490449E-110 
  4                1.80104783E-04   6.61345280E+01   8.38218890E-01   1.60491561E-01   7.04938923E-04   4.61373013E-04   3.16166695E-05   5.70391663E-05   2.29854177E-05   7.45430775E-110 
  5                2.57563410E-04   6.94910331E+01   8.38218890E-01   1.60491561E-01   7.04938933E-04   4.61373020E-04   3.16166699E-05   5.70391673E-05   2.29854177E-05   6.23344109E-110 
  6                3.48307048E-04   7.38645912E+01   8.38218890E-01   1.60491561E-01   7.04938942E-04   4.61373025E-04   3.16166703E-05   5.70391681E-05   2.29854177E-05   5.36029648E-110 
  7                4.53306028E-04   7.67613635E+01   8.38218890E-01   1.60491561E-01   7.04938950E-04   4.61373031E-04   3.16166707E-05   5.70391689E-05   2.29854177E-05   4.69866189E-110 
  8                5.73837850E-04   8.09695171E+01   8.38218890E-01   1.60491561E-01   7.04938958E-04   4.61373036E-04   3.16166710E-05   5.70391696E-05   2.29854177E-05   4.17614286E-110 
  9                7.11709102E-04   8.37753493E+01   8.38218890E-01   1.60491561E-01   7.04938965E-04   4.61373041E-04   3.16166714E-05   5.70391703E-05   2.29854177E-05   3.74989133E-110 
  10               8.69382955E-04   8.81039215E+01   8.38218890E-01   1.60491561E-01   7.04938973E-04   4.61373046E-04   3.16166717E-05   5.70391710E-05   2.29854177E-05   3.39284783E-110 
  11               1.05008682E-03   9.10138903E+01   8.38218890E-01   1.60491561E-01   7.04938978E-04   4.61373049E-04   3.16166719E-05   5.70391715E-05   2.29854177E-05   3.08714721E-110 
  12               1.25742994E-03   9.56312867E+01   8.38218890E-01   1.60491561E-01   7.04938981E-04   4.61373051E-04   3.16166721E-05   5.70391719E-05   2.29854177E-05   2.82116212E-110 
  13               1.49551663E-03   9.88300130E+01   8.38218168E-01   1.60491423E-01   7.04938984E-04   4.61373053E-04   3.16166722E-05   5.70391721E-05   2.29853979E-05   2.58686608E-110 
  14               1.76914423E-03   1.03877808E+02   8.38217027E-01   1.60491204E-01   7.04939592E-04   4.61373451E-04   3.16166995E-05   5.70392214E-05   2.29853666E-05   3.97518533E-106 
  15               2.08386728E-03   1.07400735E+02   8.38207624E-01   1.60489404E-01   7.04939261E-04   4.61373234E-04   3.16166846E-05   5.70391946E-05   2.29851087E-05   1.36940848E-102 
  16               2.44617540E-03   1.12941232E+02   8.38130945E-01   1.60474722E-01   7.04942603E-04   4.61375421E-04   3.16168345E-05   5.70394650E-05   2.29830061E-05   1.86423493E-97  
  17               2.86341232E-03   1.16949826E+02   8.38218873E-01   1.60491558E-01   7.04950458E-04   4.61380563E-04   3.16171868E-05   5.70401006E-05   2.29854172E-05   4.69165240E-94  
  18               3.34402628E-03   1.23157713E+02   8.38218760E-01   1.60491536E-01   7.05025221E-04   4.61429494E-04   3.16205400E-05   5.70461500E-05   2.29854141E-05   3.28705111E-89  
  19               3.89767506E-03   1.27697752E+02   8.38218760E-01   1.60491536E-01   7.05025184E-04   4.61429470E-04   3.16205383E-05   5.70461471E-05   2.29854141E-05   5.65153549E-86  
  20               4.53545288E-03   1.34568781E+02   8.38218760E-01   1.60491536E-01   7.05025108E-04   4.61429420E-04   3.16205349E-05   5.70461410E-05   2.29854141E-05   1.76831424E-81  
  21               5.27021649E-03   1.39694755E+02   8.38218758E-01   1.60491536E-01   7.05024740E-04   4.61429179E-04   3.16205184E-05   5.70461112E-05   2.29854140E-05   2.01252897E-78  
  22               6.11677702E-03   1.47292890E+02   8.38218749E-01   1.60491534E-01   7.05025252E-04   4.61429514E-04   3.16205413E-05   5.70461527E-05   2.29854138E-05   2.85282564E-74  
  23               7.09234903E-03   1.52889704E+02   8.38218678E-01   1.60491520E-01   7.05025259E-04   4.61429519E-04   3.16205417E-05   5.70461533E-05   2.29854118E-05   1.73654927E-71  
  24               8.21728747E-03   1.60893254E+02   8.38218538E-01   1.60491494E-01   7.05025323E-04   4.61429561E-04   3.16205445E-05   5.70461585E-05   2.29854080E-05   7.86751680E-68  
  25               9.51548185E-03   1.66753640E+02   8.38217441E-01   1.60491284E-01   7.05025468E-04   4.61429655E-04   3.16205510E-05   5.70461704E-05   2.29853779E-05   2.19071284E-65  
  26               1.10142738E-02   1.75245261E+02   8.38215438E-01   1.60490900E-01   7.05026331E-04   4.61430221E-04   3.16205898E-05   5.70462403E-05   2.29853230E-05   4.02059863E-62  
  27               1.27440185E-02   1.81766966E+02   8.38201220E-01   1.60488178E-01   7.05028425E-04   4.61431591E-04   3.16206837E-05   5.70464098E-05   2.29849331E-05   7.85456287E-60  
  28               1.47389108E-02   1.91146567E+02   8.38171151E-01   1.60482421E-01   7.05039956E-04   4.61439138E-04   3.16212009E-05   5.70473430E-05   2.29841086E-05   8.44752574E-57  
  29               1.70358807E-02   1.99075680E+02   8.37633074E-01   1.60379396E-01   7.05071560E-04   4.61459822E-04   3.16226183E-05   5.70499003E-05   2.29693536E-05   1.81985905E-54  
  30               1.96790218E-02   2.09442128E+02   8.38218003E-01   1.60491391E-01   7.05529031E-04   4.61759231E-04   3.16431360E-05   5.70869161E-05   2.29853933E-05   1.12698054E-51  
  31               2.27192253E-02   2.17604172E+02   8.38218116E-01   1.60491413E-01   7.05454092E-04   4.61710185E-04   3.16397750E-05   5.70808527E-05   2.29853964E-05   1.13390844E-49  
  32               2.62166280E-02   2.27465561E+02   8.38218468E-01   1.60491480E-01   7.05219492E-04   4.61556642E-04   3.16292531E-05   5.70618705E-05   2.29854061E-05   1.93521044E-47  
  33               3.02422822E-02   2.34864544E+02   8.38217926E-01   1.60491376E-01   7.05580530E-04   4.61792936E-04   3.16454457E-05   5.70910836E-05   2.29853912E-05   6.75220646E-46  
  34               3.48812754E-02   2.43968125E+02   8.38217926E-01   1.60491376E-01   7.05580185E-04   4.61792710E-04   3.16454303E-05   5.70910559E-05   2.29853912E-05   4.02011631E-44  
  35               4.02304341E-02   2.51010786E+02   8.38217931E-01   1.60491377E-01   7.05577083E-04   4.61790681E-04   3.16452912E-05   5.70908052E-05   2.29853914E-05   7.59800723E-43  
  36               4.63968095E-02   2.60155076E+02   8.38217925E-01   1.60491376E-01   7.05580806E-04   4.61793117E-04   3.16454581E-05   5.70911067E-05   2.29853912E-05   2.76757356E-41  
  37               5.35002371E-02   2.67623006E+02   8.38217925E-01   1.60491376E-01   7.05580797E-04   4.61793111E-04   3.16454577E-05   5.70911062E-05   2.29853912E-05   4.27756668E-40  
  38               6.16812186E-02   2.77470574E+02   8.38217925E-01   1.60491376E-01   7.05580845E-04   4.61793143E-04   3.16454599E-05   5.70911104E-05   2.29853912E-05   1.28553089E-38  
  39               7.10950227E-02   2.85809387E+02   8.38217925E-01   1.60491376E-01   7.05580863E-04   4.61793154E-04   3.16454607E-05   5.70911122E-05   2.29853912E-05   1.88316557E-37  
  40               8.19200540E-02   2.96648167E+02   8.38217925E-01   1.60491376E-01   7.05580883E-04   4.61793167E-04   3.16454616E-05   5.70911141E-05   2.29853912E-05   5.00463974E-36  
  41               9.43545922E-02   3.06375671E+02   8.38217925E-01   1.60491376E-01   7.05580904E-04   4.61793181E-04   3.16454625E-05   5.70911161E-05   2.29853912E-05   7.71678451E-35  
  42               1.08613985E-01   3.19491157E+02   8.38217925E-01   1.60491376E-01   7.05580927E-04   4.61793196E-04   3.16454636E-05   5.70911184E-05   2.29853912E-05   2.41612381E-33  
  43               1.24911204E-01   3.33513782E+02   8.38217924E-01   1.60491376E-01   7.05580952E-04   4.61793212E-04   3.16454647E-05   5.70911208E-05   2.29853911E-05   7.11827413E-32  
  44               1.43528118E-01   3.47571775E+02   8.38217924E-01   1.60491376E-01   7.05580979E-04   4.61793230E-04   3.16454659E-05   5.70911235E-05   2.29853911E-05   1.60213260E-30  
  45               1.64789845E-01   3.62561072E+02   8.38217918E-01   1.60491374E-01   7.05581025E-04   4.61793260E-04   3.16454680E-05   5.70911278E-05   2.29853909E-05   3.39814444E-29  
  46               1.89064361E-01   3.77655741E+02   8.38217919E-01   1.60491372E-01   7.05581048E-04   4.61793275E-04   3.16454690E-05   5.70911302E-05   2.29853906E-05   5.74372733E-28  
  47               2.16755284E-01   3.93712928E+02   8.38217662E-01   1.60491319E-01   7.05581173E-04   4.61793357E-04   3.16454747E-05   5.70911409E-05   2.29853830E-05   9.16608833E-27  
  48               2.48308455E-01   4.09905135E+02   8.38217694E-01   1.60491288E-01   7.05580797E-04   4.61793111E-04   3.16454578E-05   5.70911112E-05   2.29853785E-05   1.19793317E-25  
  49               2.84209847E-01   4.27076300E+02   8.38217703E-01   1.60491270E-01   7.05585353E-04   4.61796093E-04   3.16456622E-05   5.70914806E-05   2.29853760E-05   1.47824085E-24  
  50               3.25021213E-01   4.44399344E+02   8.38217717E-01   1.60491233E-01   7.05585344E-04   4.61796087E-04   3.16456618E-05   5.70914807E-05   2.29853707E-05   1.52724508E-23  
  51               3.71371399E-01   4.62746798E+02   8.38217388E-01   1.60491101E-01   7.05585361E-04   4.61796099E-04   3.16456626E-05   5.70914831E-05   2.29853518E-05   1.49722712E-22  
  52               4.23946092E-01   4.81257143E+02   8.38214412E-01   1.60490718E-01   7.05586446E-04   4.61796809E-04   3.16457113E-05   5.70915719E-05   2.29852969E-05   1.25191580E-21  
  53               4.83516747E-01   5.00824571E+02   8.38214959E-01   1.60490178E-01   7.05582614E-04   4.61794300E-04   3.16455394E-05   5.70912629E-05   2.29852196E-05   9.96400231E-21  
  54               5.50936800E-01   5.20557514E+02   8.38215334E-01   1.60489695E-01   7.05643214E-04   4.61833962E-04   3.16482573E-05   5.70961675E-05   2.29851504E-05   6.87187635E-20  
  55               6.27226532E-01   5.41400131E+02   8.38216130E-01   1.60488902E-01   7.05641770E-04   4.61833017E-04   3.16481926E-05   5.70960520E-05   2.29850368E-05   4.53425299E-19  
  56               7.13512454E-01   5.62449196E+02   8.38217298E-01   1.60487737E-01   7.05640048E-04   4.61831891E-04   3.16481154E-05   5.70959141E-05   2.29848699E-05   2.63763567E-18  
  57               8.11004636E-01   5.84657737E+02   8.38218958E-01   1.60486083E-01   7.05636843E-04   4.61829793E-04   3.16479717E-05   5.70956563E-05   2.29846332E-05   1.47351773E-17  
  58               9.21031341E-01   6.07073174E+02   8.38220950E-01   1.60484098E-01   7.05632749E-04   4.61827113E-04   3.16477881E-05   5.70953269E-05   2.29843488E-05   7.34275744E-17  
  59               1.04508716E+00   6.30663132E+02   8.38223260E-01   1.60481797E-01   7.05628060E-04   4.61824045E-04   3.16475779E-05   5.70949494E-05   2.29840192E-05   3.51829434E-16  
  60               1.18493260E+00   6.54501303E+02   8.38225576E-01   1.60479489E-01   7.05623145E-04   4.61820827E-04   3.16473574E-05   5.70945537E-05   2.29836888E-05   1.52413805E-15  
  61               1.34253020E+00   6.79561606E+02   8.38227883E-01   1.60477190E-01   7.05618388E-04   4.61817714E-04   3.16471441E-05   5.70941711E-05   2.29833594E-05   6.36983684E-15  
  62               1.51989372E+00   7.04895770E+02   8.38229940E-01   1.60475134E-01   7.05614003E-04   4.61814845E-04   3.16469475E-05   5.70938190E-05   2.29830650E-05   2.43256556E-14  
  63               1.71910271E+00   7.31419600E+02   8.38231808E-01   1.60473254E-01   7.05610221E-04   4.61812369E-04   3.16467780E-05   5.70935159E-05   2.29827957E-05   8.95409764E-14  
  64               1.94251666E+00   7.58175452E+02   8.38233345E-01   1.60471667E-01   7.05607139E-04   4.61810352E-04   3.16466398E-05   5.70932700E-05   2.29825683E-05   3.03228023E-13  
  65               2.19299930E+00   7.86126108E+02   8.38234568E-01   1.60470248E-01   7.05605011E-04   4.61808959E-04   3.16465444E-05   5.70931018E-05   2.29823649E-05   9.92012598E-13  
  66               2.47403875E+00   8.14388591E+02   8.38235501E-01   1.60469065E-01   7.05607094E-04   4.61810322E-04   3.16466381E-05   5.70932749E-05   2.29821951E-05   3.02049700E-12  
  67               2.78917158E+00   8.43905258E+02   8.38236481E-01   1.60468071E-01   7.05609806E-04   4.61812098E-04   3.16467606E-05   5.70934994E-05   2.29820517E-05   8.91962304E-12  
  68               3.14191946E+00   8.73720601E+02   8.38237276E-01   1.60467252E-01   7.05608372E-04   4.61811160E-04   3.16467011E-05   5.70933891E-05   2.29882589E-05   2.46681840E-11  
  69               3.53578461E+00   9.04722589E+02   8.38237928E-01   1.60466525E-01   7.05607324E-04   4.61810474E-04   3.16466778E-05   5.70933104E-05   2.30054079E-05   6.61349851E-11  
  70               3.97478086E+00   9.35932586E+02   8.38238357E-01   1.60465886E-01   7.05607101E-04   4.61810328E-04   3.16467810E-05   5.70932988E-05   2.30517658E-05   1.66714616E-10  
  71               4.46398287E+00   9.68340778E+02   8.38238461E-01   1.60465232E-01   7.05608837E-04   4.61811464E-04   3.16473562E-05   5.70934460E-05   2.31764361E-05   4.08630560E-10  
  72               5.00898127E+00   1.00097125E+03   8.38237801E-01   1.60464469E-01   7.05616380E-04   4.61816399E-04   3.16497574E-05   5.70940635E-05   2.34815396E-05   9.48261749E-10  
  73               5.61543708E+00   1.03483027E+03   8.38236995E-01   1.60463640E-01   7.05629885E-04   4.61825226E-04   3.16583308E-05   5.70951647E-05   2.42861973E-05   2.14639324E-09  
  74               6.28924260E+00   1.06884395E+03   8.38237857E-01   1.60462750E-01   7.05627392E-04   4.61823510E-04   3.16875520E-05   5.70949799E-05   2.42859869E-05   4.61876429E-09  
  75               7.03663602E+00   1.10404658E+03   8.38239069E-01   1.60461437E-01   7.05623898E-04   4.61820680E-04   3.17880979E-05   5.70947664E-05   2.42856609E-05   9.70883803E-09  
  76               7.86506323E+00   1.13937361E+03   8.38240675E-01   1.60459508E-01   7.05617420E-04   4.61813214E-04   3.21123504E-05   5.70946190E-05   2.42851673E-05   1.94973079E-08  
  77               8.78452000E+00   1.17592178E+03   8.38242748E-01   1.60456504E-01   7.05596324E-04   4.61782296E-04   3.30679347E-05   5.70948936E-05   2.42843903E-05   3.83569188E-08  
  78               9.80575791E+00   1.21272620E+03   8.38244848E-01   1.60452053E-01   7.05494959E-04   4.61632767E-04   3.56187324E-05   5.70964206E-05   2.42832275E-05   7.26050744E-08  
  79               1.09405254E+01   1.25085360E+03   8.38246582E-01   1.60445415E-01   7.05018271E-04   4.60965049E-04   4.15754688E-05   5.71003588E-05   2.42814713E-05   1.35079172E-07  
  80               1.22040784E+01   1.28936482E+03   8.38248231E-01   1.60436539E-01   7.03070817E-04   4.58377940E-04   5.31842867E-05   5.71065137E-05   2.42790247E-05   2.43129244E-07  
  81               1.36207423E+01   1.32956924E+03   8.38254557E-01   1.60425685E-01   6.96704890E-04   4.50382306E-04   7.18241017E-05   5.71105256E-05   2.42757192E-05   4.32751016E-07  
  82               1.52279238E+01   1.37091213E+03   8.38273891E-01   1.60414815E-01   6.81200335E-04   4.32395126E-04   9.64575406E-05   5.71092167E-05   2.42716046E-05   7.54227173E-07  
  83               1.70731873E+01   1.41492972E+03   8.38308675E-01   1.60403995E-01   6.54642303E-04   4.04157061E-04   1.26615144E-04   5.71051312E-05   2.42660178E-05   1.31378712E-06  
  84               1.92029650E+01   1.46079172E+03   8.38351005E-01   1.60392967E-01   6.22017170E-04   3.70983647E-04   1.59954941E-04   5.71008764E-05   2.42575680E-05   2.25531260E-06  
  85               2.16490267E+01   1.50926373E+03   8.38396021E-01   1.60381178E-01   5.86664459E-04   3.35179513E-04   1.95711629E-04   5.70976162E-05   2.42415671E-05   3.84816629E-06  
  86               2.44186967E+01   1.55877209E+03   8.38438158E-01   1.60369465E-01   5.52373893E-04   3.00100983E-04   2.30699356E-04   5.70956615E-05   2.42042852E-05   6.40308507E-06  
  87               2.74714485E+01   1.60882292E+03   8.38473140E-01   1.60357740E-01   5.20758085E-04   2.66867763E-04   2.63827388E-04   5.71194753E-05   2.41025406E-05   1.03647290E-05  
  88               3.07408878E+01   1.65742636E+03   8.38489773E-01   1.60345241E-01   4.95431357E-04   2.37236514E-04   2.93338852E-04   5.71167701E-05   2.38335625E-05   1.60595038E-05  
  89               3.41213780E+01   1.70383618E+03   8.38502468E-01   1.60335328E-01   4.84308998E-04   2.09057200E-04   3.21400634E-04   5.71141239E-05   2.28310538E-05   2.38087888E-05  
  90               3.74030375E+01   1.74523575E+03   8.38515421E-01   1.60327738E-01   4.66563022E-04   1.89225516E-04   3.41117990E-04   5.71032328E-05   2.27621373E-05   3.31887712E-05  
  91               4.08932329E+01   1.78644975E+03   8.38516768E-01   1.60319722E-01   4.53862822E-04   1.70800211E-04   3.59418009E-04   5.70796711E-05   2.26281114E-05   4.54603472E-05  
  92               4.40870702E+01   1.82150607E+03   8.38501207E-01   1.60311457E-01   4.49740621E-04   1.55605790E-04   3.74497226E-04   5.70683989E-05   2.24117177E-05   5.86857851E-05  
  93               4.68905929E+01   1.85082290E+03   8.38473250E-01   1.60303146E-01   4.53279211E-04   1.42558305E-04   3.87445899E-04   5.70307900E-05   2.21245454E-05   7.20941133E-05  
  94               4.99653536E+01   1.88120015E+03   8.38424473E-01   1.60292601E-01   4.66085830E-04   1.28565471E-04   4.01337840E-04   5.69941932E-05   2.17185756E-05   8.85621443E-05  
  95               5.33360970E+01   1.91291348E+03   8.38364914E-01   1.60282253E-01   4.90305824E-04   1.13606516E-04   4.16206824E-04   5.69555190E-05   2.12195189E-05   1.08970742E-04  
  96               5.62084004E+01   1.93854691E+03   8.38350029E-01   1.60277763E-01   4.84204291E-04   1.07420657E-04   4.22296874E-04   5.69148991E-05   2.12023875E-05   1.28152181E-04  
  97               5.85191595E+01   1.95845707E+03   8.38340414E-01   1.60275026E-01   4.79806344E-04   1.02954318E-04   4.26687754E-04   5.68798607E-05   2.11887487E-05   1.44899688E-04  
  98               6.11090782E+01   1.97997254E+03   8.38327769E-01   1.60272017E-01   4.75394320E-04   9.84663957E-05   4.31090326E-04   5.68396141E-05   2.11736468E-05   1.64959113E-04  
  99               6.40019563E+01   2.00310228E+03   8.38311432E-01   1.60268700E-01   4.71011530E-04   9.39990280E-05   4.35461310E-04   5.67933002E-05   2.11568245E-05   1.88984223E-04  
  100              6.72193274E+01   2.02785859E+03   8.38290626E-01   1.60265022E-01   4.66687841E-04   8.95804458E-05   4.39771182E-04   5.67407071E-05   2.11379000E-05   2.17774869E-04  
  101              7.08091945E+01   2.05420680E+03   8.38223868E-01   1.60253184E-01   4.62490180E-04   8.52936946E-05   4.43909650E-04   5.66774937E-05   2.11157881E-05   2.52164201E-04  
