# ATMO chemical composition profiles
# Chemical abundances given as mole fraction for the 8 most abundant species
# Model Level      Pressure [Ba]    Temperature [K]  H2               He               H                CO               H2O              N2               Mg               Fe              
  1                1.00000000E-05   4.23153122E+02   8.38520313E-01   1.60514194E-01   1.40809821E-22   5.29611326E-04   3.41640459E-04   6.05467190E-05   0.00000000E+00   0.00000000E+00  
  2                1.78816594E-05   4.70297435E+02   8.38520352E-01   1.60514168E-01   5.38329267E-20   5.29608464E-04   3.41638658E-04   6.05463953E-05   0.00000000E+00   0.00000000E+00  
  3                2.70273375E-05   4.99239584E+02   8.38520453E-01   1.60514115E-01   1.12793813E-18   5.29601009E-04   3.41633945E-04   6.05455503E-05   0.00000000E+00   0.00000000E+00  
  4                3.79153572E-05   5.13792770E+02   8.38520526E-01   1.60514063E-01   4.25195525E-18   5.29594483E-04   3.41629866E-04   6.05448141E-05   0.00000000E+00   0.00000000E+00  
  5                5.09874861E-05   5.32649135E+02   8.38520779E-01   1.60513848E-01   2.25824971E-17   5.29585450E-04   3.41624192E-04   6.05437928E-05   0.00000000E+00   0.00000000E+00  
  6                6.67380565E-05   5.43086674E+02   8.38520930E-01   1.60513707E-01   5.11599591E-17   5.29579836E-04   3.41620738E-04   6.05431635E-05   0.00000000E+00   0.00000000E+00  
  7                8.57583284E-05   5.59415851E+02   8.38521591E-01   1.60513079E-01   1.86565562E-16   5.29570511E-04   3.41614900E-04   6.05421106E-05   0.00000000E+00   0.00000000E+00  
  8                1.08747681E-04   5.68584624E+02   8.38521912E-01   1.60512752E-01   3.54762905E-16   5.29566563E-04   3.41612537E-04   6.05416728E-05   0.00000000E+00   0.00000000E+00  
  9                1.36557412E-04   5.83850611E+02   8.38523429E-01   1.60511261E-01   1.06710522E-15   5.29554866E-04   3.41605181E-04   6.05403495E-05   0.00000000E+00   0.00000000E+00  
  10               1.70206936E-04   5.92390822E+02   8.38524024E-01   1.60510631E-01   1.83580455E-15   5.29551956E-04   3.41603496E-04   6.05400310E-05   0.00000000E+00   0.00000000E+00  
  11               2.10935730E-04   6.07120619E+02   8.38527033E-01   1.60507630E-01   4.87009338E-15   5.29540317E-04   3.41596184E-04   6.05387148E-05   0.00000000E+00   0.00000000E+00  
  12               2.60228216E-04   6.15428769E+02   8.38527976E-01   1.60506529E-01   7.89501632E-15   5.29537733E-04   3.41594714E-04   6.05384338E-05   0.00000000E+00   0.00000000E+00  
  13               3.19887087E-04   6.30088017E+02   8.38533367E-01   1.60501103E-01   1.93603399E-14   5.29524788E-04   3.41586562E-04   6.05369683E-05   0.00000000E+00   0.00000000E+00  
  14               3.92112582E-04   6.38450458E+02   8.38535110E-01   1.60499363E-01   3.03139913E-14   5.29521964E-04   3.41584940E-04   6.05366599E-05   0.00000000E+00   0.00000000E+00  
  15               4.79577375E-04   6.53268740E+02   8.38543771E-01   1.60490527E-01   7.02139766E-14   5.29506539E-04   3.41575189E-04   6.05349110E-05   0.00000000E+00   0.00000000E+00  
  16               5.85498333E-04   6.61772690E+02   8.38546263E-01   1.60488037E-01   1.06988248E-13   5.29503346E-04   3.41573329E-04   6.05345604E-05   0.00000000E+00   0.00000000E+00  
  17               7.13772645E-04   6.76744573E+02   8.38558807E-01   1.60475533E-01   2.34935832E-13   5.29485239E-04   3.41561847E-04   6.05325047E-05   0.00000000E+00   0.00000000E+00  
  18               8.69094935E-04   6.85300552E+02   8.38561667E-01   1.60472673E-01   3.47155760E-13   5.29482114E-04   3.41560030E-04   6.05321618E-05   0.00000000E+00   0.00000000E+00  
  19               1.05714538E-03   7.00393087E+02   8.38577165E-01   1.60457216E-01   7.24441952E-13   5.29461571E-04   3.41546975E-04   6.05298274E-05   0.00000000E+00   0.00000000E+00  
  20               1.28474110E-03   7.09004023E+02   8.38579892E-01   1.60454481E-01   1.04080356E-12   5.29460771E-04   3.41546654E-04   6.05297500E-05   0.00000000E+00   0.00000000E+00  
  21               1.56011074E-03   7.24292895E+02   8.38597116E-01   1.60437293E-01   2.08060772E-12   5.29438217E-04   3.41532298E-04   6.05271854E-05   0.00000000E+00   0.00000000E+00  
  22               1.89311763E-03   7.33023196E+02   8.38599388E-01   1.60434997E-01   2.92201139E-12   5.29439637E-04   3.41533405E-04   6.05273613E-05   0.00000000E+00   0.00000000E+00  
  23               2.29564184E-03   7.48554983E+02   8.38617008E-01   1.60417391E-01   5.62516683E-12   5.29417013E-04   3.41519000E-04   6.05247883E-05   0.00000000E+00   0.00000000E+00  
  24               2.78191946E-03   7.57362200E+02   8.38618432E-01   1.60415910E-01   7.71909826E-12   5.29421973E-04   3.41522385E-04   6.05253686E-05   0.00000000E+00   0.00000000E+00  
  25               3.36941940E-03   7.73146490E+02   8.38635320E-01   1.60398980E-01   1.43524285E-11   5.29400270E-04   3.41508568E-04   6.05229004E-05   0.00000000E+00   0.00000000E+00  
  26               4.07931939E-03   7.82125403E+02   8.38635939E-01   1.60398230E-01   1.93535382E-11   5.29410491E-04   3.41515340E-04   6.05240816E-05   0.00000000E+00   0.00000000E+00  
  27               4.93712439E-03   7.98350116E+02   8.38651710E-01   1.60382286E-01   3.50970219E-11   5.29390379E-04   3.41502543E-04   6.05217948E-05   0.00000000E+00   0.00000000E+00  
  28               5.97348516E-03   8.07726713E+02   8.38651902E-01   1.60381821E-01   4.69686402E-11   5.29391002E-04   3.41503117E-04   6.05218782E-05   0.00000000E+00   0.00000000E+00  
  29               7.22492796E-03   8.24749330E+02   8.38666643E-01   1.60366587E-01   8.42729032E-11   5.29371690E-04   3.41490828E-04   6.05196821E-05   0.00000000E+00   0.00000000E+00  
  30               8.73493124E-03   8.34868770E+02   8.38666650E-01   1.60365717E-01   1.13321096E-10   5.29371800E-04   3.41491064E-04   6.05197063E-05   0.00000000E+00   0.00000000E+00  
  31               1.05552415E-02   8.52872810E+02   8.38679464E-01   1.60351231E-01   2.02075622E-10   5.29353301E-04   3.41479291E-04   6.05176025E-05   0.00000000E+00   0.00000000E+00  
  32               1.27469169E-02   8.63967287E+02   8.38680746E-01   1.60349947E-01   2.74583240E-10   5.29352459E-04   3.41478906E-04   6.05175172E-05   0.00000000E+00   5.02814806E-16  
  33               1.53818166E-02   8.83423670E+02   8.38694577E-01   1.60336154E-01   4.92944778E-10   5.29334267E-04   3.41467325E-04   6.05154481E-05   0.00000000E+00   2.66304497E-15  
  34               1.85437765E-02   8.95940388E+02   8.38696804E-01   1.60333934E-01   6.84293729E-10   5.29331845E-04   3.41465914E-04   6.05151816E-05   0.00000000E+00   2.66300285E-15  
  35               2.23303684E-02   9.17154208E+02   8.38709807E-01   1.60320975E-01   1.24118608E-09   5.29314285E-04   3.41454734E-04   6.05131841E-05   0.00000000E+00   1.50744250E-14  
  36               2.68545263E-02   9.31517180E+02   8.38712991E-01   1.60317811E-01   1.77230744E-09   5.29310186E-04   3.41452234E-04   6.05127252E-05   0.00000000E+00   1.50740837E-14  
  37               3.22547576E-02   9.54937117E+02   8.38724827E-01   1.60306031E-01   3.26519762E-09   5.29293744E-04   3.41441769E-04   6.05108550E-05   0.00000000E+00   9.16277480E-14  
  38               3.86930504E-02   9.71385155E+02   8.38728435E-01   1.60302454E-01   4.78648181E-09   5.29288710E-04   3.41438660E-04   6.05102888E-05   6.99712762E-16   9.16253100E-14  
  39               4.63564021E-02   9.97289555E+02   8.38738464E-01   1.60292482E-01   8.93385090E-09   5.29274335E-04   3.41429521E-04   6.05086543E-05   3.37863514E-15   6.04762359E-13  
  40               5.54549515E-02   1.01656478E+03   8.38742250E-01   1.60288722E-01   1.35785689E-08   5.29268749E-04   3.41426050E-04   6.05080243E-05   9.63548760E-15   6.04744289E-13  
  41               6.62249332E-02   1.04594802E+03   8.38750334E-01   1.60280676E-01   2.60219729E-08   5.29256803E-04   3.41418471E-04   6.05066668E-05   4.88565777E-14   4.48068644E-12  
  42               7.89219348E-02   1.06894368E+03   8.38753831E-01   1.60277186E-01   4.13369931E-08   5.29251424E-04   3.41415127E-04   6.05060598E-05   1.53933758E-13   4.48054533E-12  
  43               9.38214752E-02   1.10253351E+03   8.38759600E-01   1.60271405E-01   8.13447816E-08   5.29242583E-04   3.41409549E-04   6.05050564E-05   8.14799418E-13   3.72540490E-11  
  44               1.11205791E-01   1.13011270E+03   8.38762274E-01   1.60268682E-01   1.35236235E-07   5.29238237E-04   3.41406887E-04   6.05045661E-05   2.82842500E-12   3.72528683E-11  
  45               1.31422362E-01   1.16854172E+03   8.38765706E-01   1.60265107E-01   2.71554693E-07   5.29232565E-04   3.41403439E-04   6.05039224E-05   1.53402704E-11   3.36746077E-10  
  46               1.54877125E-01   1.20109568E+03   8.38767201E-01   1.60263391E-01   4.66291494E-07   5.29229706E-04   3.41402150E-04   6.05035964E-05   5.66249347E-11   3.36735055E-10  
  47               1.81996911E-01   1.24488118E+03   8.38768594E-01   1.60261462E-01   9.44903167E-07   5.29226624E-04   3.41401918E-04   6.05032363E-05   3.06913898E-10   1.17746778E-09  
  48               2.13190488E-01   1.28332306E+03   8.38768717E-01   1.60260468E-01   1.66776329E-06   5.29225222E-04   3.41407831E-04   6.05030497E-05   1.19061438E-09   3.20582160E-09  
  49               2.48868136E-01   1.33323355E+03   8.38767609E-01   1.60259389E-01   3.38569549E-06   5.29225876E-04   3.41431870E-04   6.05030605E-05   6.35623774E-09   1.11825443E-08  
  50               2.89382577E-01   1.37781697E+03   8.38763577E-01   1.60258465E-01   6.03950666E-06   5.29231773E-04   3.41523881E-04   6.05036062E-05   2.48674398E-08   3.08770689E-08  
  51               3.35173724E-01   1.43407576E+03   8.38741905E-01   1.60254969E-01   1.20991392E-05   5.29257812E-04   3.41819779E-04   6.05063745E-05   1.25226416E-07   1.04511460E-07  
  52               3.86085539E-01   1.49043065E+03   8.38728553E-01   1.60256782E-01   2.29824743E-05   5.29452064E-04   3.42832671E-04   6.05284127E-05   3.60582765E-07   3.20737771E-07  
  53               4.41675328E-01   1.54554758E+03   8.38700231E-01   1.60253623E-01   4.10420208E-05   5.29481785E-04   3.44941643E-04   6.05321011E-05   2.69752275E-06   8.79839543E-07  
  54               5.00365101E-01   1.59812315E+03   8.38647357E-01   1.60249209E-01   6.86153148E-05   5.29643029E-04   3.49748583E-04   6.05523915E-05   1.36038385E-05   4.55216134E-06  
  55               5.58798281E-01   1.64581129E+03   8.38558148E-01   1.60243829E-01   1.06127544E-04   5.29885655E-04   3.57699783E-04   6.05844317E-05   4.17519094E-05   4.55162560E-06  
  56               6.13808792E-01   1.68724712E+03   8.38482784E-01   1.60240849E-01   1.51780085E-04   5.30280039E-04   3.65699585E-04   6.06360108E-05   6.62128128E-05   1.34480369E-05  
  57               6.61146431E-01   1.72053844E+03   8.38398715E-01   1.60229337E-01   1.99638451E-04   5.30215230E-04   3.71324251E-04   6.06365397E-05   6.61689972E-05   1.34461534E-05  
  58               7.15093151E-01   1.75626118E+03   8.38336652E-01   1.60223673E-01   2.64642914E-04   5.30118087E-04   3.74068198E-04   6.06342951E-05   6.61230947E-05   5.55052365E-05  
  59               7.61366863E-01   1.78517112E+03   8.38275339E-01   1.60218140E-01   3.29508293E-04   5.30485386E-04   3.75559590E-04   6.06878021E-05   6.60842163E-05   5.54996341E-05  
  60               7.98256237E-01   1.80727853E+03   8.38221278E-01   1.60213359E-01   3.87698535E-04   5.30408327E-04   3.76231962E-04   6.06864507E-05   6.60535130E-05   5.54950432E-05  
  61               8.40947238E-01   1.83175944E+03   8.38152803E-01   1.60207350E-01   4.61874344E-04   5.30357663E-04   3.76522590E-04   6.06844732E-05   6.60183386E-05   5.54895827E-05  
  62               8.90034658E-01   1.85870922E+03   8.38065370E-01   1.60199705E-01   5.56844828E-04   5.30323576E-04   3.76578884E-04   6.06817489E-05   6.59782140E-05   5.54830628E-05  
  63               9.46045321E-01   1.88789547E+03   8.37954521E-01   1.60190024E-01   6.77335730E-04   5.30294280E-04   3.76534186E-04   6.06781597E-05   6.59328918E-05   5.54753233E-05  
  64               1.00931704E+00   1.91917711E+03   8.37814498E-01   1.60177802E-01   8.29570917E-04   5.30260480E-04   3.76462192E-04   6.06735374E-05   6.58821342E-05   5.54661679E-05  
  65               1.08023384E+00   1.95221448E+03   8.37639782E-01   1.60162554E-01   1.01962921E-03   5.30216744E-04   3.76337783E-04   6.06675474E-05   6.58258279E-05   5.54554237E-05  
  66               1.16019395E+00   1.98729531E+03   8.37419873E-01   1.60143364E-01   1.25885473E-03   5.30159029E-04   3.76192425E-04   6.06596063E-05   6.57629053E-05   5.54426782E-05  
  67               1.25083165E+00   2.02446587E+03   8.37143254E-01   1.60119228E-01   1.55977133E-03   5.30084114E-04   3.76027146E-04   6.06493226E-05   6.56923433E-05   5.54274982E-05  
  68               1.35328855E+00   2.06364818E+03   8.36796645E-01   1.60088987E-01   1.93682428E-03   5.29988092E-04   3.75838331E-04   6.06361736E-05   6.56133880E-05   5.54094274E-05  
  69               1.46884158E+00   2.10459826E+03   8.36366530E-01   1.60051464E-01   2.40471719E-03   5.29867033E-04   3.75622324E-04   6.06197116E-05   6.55253788E-05   5.53880166E-05  
  70               1.59892661E+00   2.14721186E+03   8.35836134E-01   1.60005196E-01   2.98169694E-03   5.29716123E-04   3.75373975E-04   6.05994315E-05   6.54274493E-05   5.53627033E-05  
  71               1.74516264E+00   2.19124427E+03   8.35189267E-01   1.59948771E-01   3.68537654E-03   5.29530680E-04   3.75088470E-04   6.05748021E-05   6.53188434E-05   5.53329563E-05  
  72               1.90938520E+00   2.23660213E+03   8.34406272E-01   1.59880477E-01   4.53713597E-03   5.29305051E-04   3.74759391E-04   6.05451417E-05   6.51985792E-05   5.52981227E-05  
  73               2.09365965E+00   2.28302409E+03   8.33468529E-01   1.59798484E-01   5.55506982E-03   5.29033171E-04   3.74388763E-04   6.05096968E-05   6.50657435E-05   5.52575284E-05  
  74               2.30030587E+00   2.33035313E+03   8.32353300E-01   1.59701697E-01   6.75874116E-03   5.28711704E-04   3.80585760E-04   6.04682136E-05   6.49196624E-05   5.52107429E-05  
  75               2.53165297E+00   2.37830320E+03   8.31063436E-01   1.59589210E-01   8.16178859E-03   5.28337154E-04   3.80164240E-04   6.04198155E-05   6.47599208E-05   5.51574251E-05  
  76               2.79057215E+00   2.42685204E+03   8.29572048E-01   1.59459155E-01   9.78407059E-03   5.27903359E-04   3.79654241E-04   6.03638420E-05   6.45854568E-05   5.50968629E-05  
  77               3.08051398E+00   2.47578115E+03   8.27870951E-01   1.59310820E-01   1.16344794E-02   5.27408046E-04   3.79060307E-04   6.02999149E-05   6.43957471E-05   5.50287608E-05  
  78               3.40503308E+00   2.52507837E+03   8.25946170E-01   1.59142986E-01   1.37282093E-02   5.26847096E-04   3.78378983E-04   6.02273949E-05   6.41900182E-05   5.49526305E-05  
  79               3.76811336E+00   2.57457832E+03   8.23794407E-01   1.58955367E-01   1.60688425E-02   5.26219470E-04   3.77609860E-04   6.01459404E-05   6.39679889E-05   5.48683269E-05  
  80               4.17418718E+00   2.62421255E+03   8.21411773E-01   1.58747625E-01   1.86606027E-02   5.25523944E-04   3.76751722E-04   6.00551266E-05   6.37292972E-05   5.47756736E-05  
  81               4.62807625E+00   2.67387809E+03   8.18800612E-01   1.58519964E-01   2.15009334E-02   5.24761073E-04   3.75805234E-04   5.99546397E-05   6.34738643E-05   5.46746905E-05  
  82               5.13495847E+00   2.72360006E+03   8.15957426E-01   1.58272080E-01   2.45936336E-02   5.23929715E-04   3.74768660E-04   5.98438441E-05   6.32013651E-05   5.45652064E-05  
  83               5.70040088E+00   2.77312228E+03   8.12905155E-01   1.58005975E-01   2.79137437E-02   5.23036316E-04   3.73650134E-04   5.97228030E-05   6.29126564E-05   5.44478967E-05  
  84               6.33034160E+00   2.82259540E+03   8.09636260E-01   1.57720989E-01   3.14694581E-02   5.22078532E-04   3.72446442E-04   5.95903164E-05   6.26072803E-05   5.43224579E-05  
  85               7.03108168E+00   2.87182767E+03   8.06176259E-01   1.57419349E-01   3.52330091E-02   5.21063512E-04   3.71167088E-04   5.94459708E-05   6.22862406E-05   5.41896447E-05  
  86               7.80937931E+00   2.92097299E+03   8.02518586E-01   1.57100481E-01   3.92115320E-02   5.19989141E-04   3.69809533E-04   5.92877814E-05   6.19492050E-05   5.40491905E-05  
  87               8.67253317E+00   2.96978255E+03   7.98702220E-01   1.56767785E-01   4.33626199E-02   5.18866387E-04   3.68389121E-04   5.91147990E-05   6.15977275E-05   5.39022705E-05  
  88               9.62834225E+00   3.01848571E+03   7.94712781E-01   1.56420006E-01   4.77019029E-02   5.17690818E-04   3.66900621E-04   5.89233312E-05   6.12312046E-05   5.37483734E-05  
  89               1.06848678E+01   3.06682418E+03   7.90595802E-01   1.56061113E-01   5.21798450E-02   5.16475229E-04   3.65362500E-04   5.87110068E-05   6.08515158E-05   5.35888857E-05  
  90               1.18503845E+01   3.11497741E+03   7.86341111E-01   1.55690220E-01   5.68074999E-02   5.15216339E-04   3.63771140E-04   5.84720108E-05   6.04583958E-05   5.34234503E-05  
  91               1.31340308E+01   3.16272885E+03   7.81994168E-01   1.55311288E-01   6.15354054E-02   5.13926845E-04   3.62145245E-04   5.82014203E-05   6.00536950E-05   5.32534464E-05  
  92               1.45459136E+01   3.21036135E+03   7.77528441E-01   1.54922004E-01   6.63924124E-02   5.12598637E-04   3.60474015E-04   5.78890139E-05   5.96364383E-05   5.30779921E-05  
  93               1.60972823E+01   3.25765536E+03   7.72993293E-01   1.54526671E-01   7.13248101E-02   5.11245417E-04   3.58777455E-04   5.75260606E-05   5.92084872E-05   5.28985668E-05  
  94               1.78007003E+01   3.30490428E+03   7.68357188E-01   1.54122537E-01   7.63668858E-02   5.09857486E-04   3.57041454E-04   5.70963610E-05   5.87686017E-05   5.27141172E-05  
  95               1.96701950E+01   3.35189999E+03   7.63670686E-01   1.53714009E-01   8.14636272E-02   5.08448732E-04   3.55285847E-04   5.65854886E-05   5.83185415E-05   5.25261334E-05  
  96               2.17214187E+01   3.39898222E+03   7.58890326E-01   1.53297295E-01   8.66622856E-02   5.07005836E-04   3.53489579E-04   5.59679316E-05   5.78565771E-05   5.23331770E-05  
  97               2.39718653E+01   3.44592361E+03   7.54072043E-01   1.52877270E-01   9.19019965E-02   5.05544042E-04   3.51673768E-04   5.52216868E-05   5.73845421E-05   5.21368784E-05  
  98               2.64411044E+01   3.49308177E+03   7.49164964E-01   1.52449495E-01   9.72380618E-02   5.04047667E-04   3.49811695E-04   5.43087223E-05   5.69004106E-05   5.19355543E-05  
  99               2.91509963E+01   3.54022804E+03   7.44227198E-01   1.52019032E-01   1.02607250E-01   5.02532349E-04   3.47924346E-04   5.31975548E-05   5.64059837E-05   5.17308744E-05  
  100              3.21258867E+01   3.58774396E+03   7.39199004E-01   1.51580667E-01   1.08074495E-01   5.00979587E-04   3.45978107E-04   5.18343748E-05   5.58989390E-05   5.15208700E-05  
  101              3.53928586E+01   3.63537885E+03   7.34144232E-01   1.51139964E-01   1.13570314E-01   4.99406414E-04   3.43995624E-04   5.01797943E-05   5.53812079E-05   5.13073628E-05  
