# ATMO chemical composition profiles
# Chemical abundances given as mole fraction for the 8 most abundant species
# Model Level      Pressure [Ba]    Temperature [K]  H2               He               H                H2O              CO               CH4              N2               H2S             
  1                1.00000000E-05   2.77593609E+02   8.38365809E-01   1.60510176E-01   1.05294654E-36   5.21803688E-04   2.28040486E-04   2.84295451E-04   5.88434899E-05   2.29879486E-05  
  2                5.70505128E-04   3.25393649E+02   8.38359241E-01   1.60516720E-01   1.47879963E-31   5.21814626E-04   2.28045266E-04   2.84301411E-04   5.88447262E-05   2.29888858E-05  
  3                1.19246728E-03   3.40402611E+02   8.38359280E-01   1.60516653E-01   3.58248405E-30   5.21815284E-04   2.28045554E-04   2.84301769E-04   5.88448178E-05   2.29888762E-05  
  4                1.90567548E-03   3.57820337E+02   8.38360505E-01   1.60515428E-01   1.21043612E-28   5.21815543E-04   2.28045667E-04   2.84301910E-04   5.88448587E-05   2.29887007E-05  
  5                2.73020877E-03   3.64962300E+02   8.38360290E-01   1.60515641E-01   4.25295132E-28   5.21816176E-04   2.28045944E-04   2.84302255E-04   5.88449393E-05   2.29887313E-05  
  6                3.68748421E-03   3.78420493E+02   8.38361516E-01   1.60514334E-01   4.73448573E-27   5.21814941E-04   2.28045404E-04   2.84301581E-04   5.88448080E-05   2.29885441E-05  
  7                4.80069303E-03   3.83773180E+02   8.38361222E-01   1.60514627E-01   1.09303998E-26   5.21815505E-04   2.28045650E-04   2.84301888E-04   5.88448788E-05   2.29885860E-05  
  8                6.09722544E-03   3.95688937E+02   8.38362551E-01   1.60513300E-01   7.62942240E-26   5.21814178E-04   2.28045070E-04   2.84301165E-04   5.88447360E-05   2.29883960E-05  
  9                7.60814962E-03   4.00245928E+02   8.38362176E-01   1.60513674E-01   1.45535458E-25   5.21814839E-04   2.28045359E-04   2.84301525E-04   5.88448171E-05   2.29884495E-05  
  10               9.36998608E-03   4.11570819E+02   8.38363361E-01   1.60512270E-01   7.99665722E-25   5.21813227E-04   2.28044654E-04   2.84300647E-04   5.88446416E-05   2.29882485E-05  
  11               1.14244002E-02   4.15860162E+02   8.38362965E-01   1.60512652E-01   1.40005311E-24   5.21818812E-04   2.28047095E-04   2.84303690E-04   5.88452777E-05   2.29883032E-05  
  12               1.38202296E-02   4.27193506E+02   8.38364424E-01   1.60511197E-01   6.81898463E-24   5.21817278E-04   2.28046425E-04   2.84302854E-04   5.88451108E-05   2.29880948E-05  
  13               1.66141086E-02   4.31659141E+02   8.38364039E-01   1.60511550E-01   1.17625239E-23   5.21817916E-04   2.28046704E-04   2.84303201E-04   5.88451888E-05   2.29881454E-05  
  14               1.98718014E-02   4.43378313E+02   8.38365044E-01   1.60509883E-01   5.38978102E-23   5.21816301E-04   2.28045998E-04   2.84302322E-04   5.88450128E-05   2.29879066E-05  
  15               2.36681578E-02   4.48377863E+02   8.38364472E-01   1.60510002E-01   9.57522564E-23   5.21816472E-04   2.28046072E-04   2.84302414E-04   5.88450381E-05   2.29879237E-05  
  16               2.80895921E-02   4.60899863E+02   8.38365946E-01   1.60508533E-01   4.33444236E-22   5.21814324E-04   2.28045134E-04   2.84301244E-04   5.88448021E-05   2.29877134E-05  
  17               3.32333158E-02   4.67017580E+02   8.38365872E-01   1.60508517E-01   8.42460711E-22   5.21857225E-04   2.28063883E-04   2.84324618E-04   5.88496463E-05   2.29877110E-05  
  18               3.92148614E-02   4.79996166E+02   8.38365404E-01   1.60506317E-01   3.56533933E-21   5.21855156E-04   2.28062978E-04   2.84323490E-04   5.88494194E-05   2.29873960E-05  
  19               4.61701845E-02   4.85815183E+02   8.38365474E-01   1.60506248E-01   6.34248363E-21   5.21854259E-04   2.28062586E-04   2.84323002E-04   5.88493248E-05   2.29873861E-05  
  20               5.42523533E-02   4.99412871E+02   8.38367227E-01   1.60504500E-01   2.56370915E-20   5.21852339E-04   2.28061747E-04   2.84321956E-04   5.88491151E-05   2.29871357E-05  
  21               6.36350841E-02   5.06047045E+02   8.38367207E-01   1.60504520E-01   4.72985964E-20   5.21852388E-04   2.28061768E-04   2.84321982E-04   5.88491275E-05   2.29871385E-05  
  22               7.45195711E-02   5.20479830E+02   8.38368919E-01   1.60502812E-01   1.85470903E-19   5.21850515E-04   2.28060950E-04   2.84320961E-04   5.88489236E-05   2.29868940E-05  
  23               8.71361978E-02   5.28013434E+02   8.38369010E-01   1.60502722E-01   3.53534036E-19   5.21850452E-04   2.28060922E-04   2.84320927E-04   5.88489239E-05   2.29868810E-05  
  24               1.01748881E-01   5.43498046E+02   8.38370654E-01   1.60501082E-01   1.35913550E-18   5.21848670E-04   2.28060143E-04   2.84319956E-04   5.88487307E-05   2.29866461E-05  
  25               1.18655205E-01   5.52241392E+02   8.38370872E-01   1.60500864E-01   2.71587224E-18   5.21848482E-04   2.28060061E-04   2.84319853E-04   5.88487177E-05   2.29866149E-05  
  26               1.38197340E-01   5.69000338E+02   8.38372414E-01   1.60499325E-01   1.02937270E-17   5.21846836E-04   2.28059342E-04   2.84318956E-04   5.88485405E-05   2.29863946E-05  
  27               1.60752226E-01   5.79180976E+02   8.38372739E-01   1.60499001E-01   2.15887346E-17   5.21846568E-04   2.28059224E-04   2.84318810E-04   5.88485191E-05   2.29863482E-05  
  28               1.86745661E-01   5.97462099E+02   8.38374146E-01   1.60497597E-01   8.09346765E-17   5.21845116E-04   2.28058590E-04   2.84318019E-04   5.88483647E-05   2.29861471E-05  
  29               2.16639293E-01   6.09445169E+02   8.38374559E-01   1.60497185E-01   1.79405425E-16   5.21844813E-04   2.28058457E-04   2.84317854E-04   5.88483402E-05   2.29860880E-05  
  30               2.50961196E-01   6.29640061E+02   8.38375815E-01   1.60495931E-01   6.70756222E-16   5.21843596E-04   2.28057925E-04   2.84317190E-04   5.88482132E-05   2.29859085E-05  
  31               2.90316651E-01   6.43735899E+02   8.38376271E-01   1.60495474E-01   1.56564040E-15   5.21843300E-04   2.28057796E-04   2.84317029E-04   5.88481905E-05   2.29858429E-05  
  32               3.35403181E-01   6.66116013E+02   8.38377345E-01   1.60494402E-01   5.80224727E-15   5.21842392E-04   2.28057399E-04   2.84316534E-04   5.88480994E-05   2.29856894E-05  
  33               3.86955627E-01   6.82852460E+02   8.38377796E-01   1.60493928E-01   1.43202707E-14   5.21842165E-04   2.28057300E-04   2.84316410E-04   5.88480855E-05   2.29856215E-05  
  34               4.45781697E-01   7.07985357E+02   8.38378691E-01   1.60493035E-01   5.29399104E-14   5.21841581E-04   2.28057045E-04   2.84316092E-04   5.88480320E-05   2.29854936E-05  
  35               5.12735003E-01   7.27870248E+02   8.38379061E-01   1.60492573E-01   1.37392221E-13   5.21841675E-04   2.28057086E-04   2.84316143E-04   5.88480555E-05   2.29854275E-05  
  36               5.88734391E-01   7.56011313E+02   8.38379640E-01   1.60491839E-01   4.98330400E-13   5.21841893E-04   2.28057181E-04   2.84316261E-04   5.88480935E-05   2.29853222E-05  
  37               6.74743817E-01   7.79135881E+02   8.38379803E-01   1.60491412E-01   1.32074714E-12   5.21844947E-04   2.28058516E-04   2.84317925E-04   5.88484519E-05   2.29852607E-05  
  38               7.72011503E-01   8.10385191E+02   8.38380341E-01   1.60490860E-01   4.60228788E-12   5.21848174E-04   2.28059925E-04   2.84319683E-04   5.88488303E-05   2.29851810E-05  
  39               8.81799002E-01   8.36909406E+02   8.38380656E-01   1.60490521E-01   1.21890779E-11   5.21848367E-04   2.28060010E-04   2.84319788E-04   5.88488671E-05   2.29894654E-05  
  40               1.00551076E+00   8.71296950E+02   8.38381085E-01   1.60490021E-01   4.00663592E-11   5.21848464E-04   2.28060054E-04   2.84319840E-04   5.88488935E-05   2.30060608E-05  
  41               1.14450869E+00   9.00805217E+02   8.38381294E-01   1.60489579E-01   1.02277874E-10   5.21848976E-04   2.28060285E-04   2.84320119E-04   5.88489674E-05   2.30475869E-05  
  42               1.30019177E+00   9.37559984E+02   8.38381522E-01   1.60488697E-01   3.06330763E-10   5.21850181E-04   2.28060846E-04   2.84320775E-04   5.88491197E-05   2.32053605E-05  
  43               1.47426033E+00   9.69044867E+02   8.38381300E-01   1.60487499E-01   7.25569259E-10   5.21854530E-04   2.28062932E-04   2.84323144E-04   5.88496271E-05   2.35638885E-05  
  44               1.66883355E+00   1.00723417E+03   8.38382324E-01   1.60485038E-01   1.93990642E-09   5.21863932E-04   2.28067839E-04   2.84328264E-04   5.88507053E-05   2.42894273E-05  
  45               1.88625773E+00   1.03967643E+03   8.38385517E-01   1.60481872E-01   4.17835993E-09   5.21858895E-04   2.28069261E-04   2.84325486E-04   5.88501593E-05   2.42888658E-05  
  46               2.12937799E+00   1.07836343E+03   8.38392114E-01   1.60475296E-01   9.90411587E-09   5.21848902E-04   2.28078598E-04   2.84319818E-04   5.88490799E-05   2.42877014E-05  
  47               2.40120887E+00   1.11095482E+03   8.38399776E-01   1.60467613E-01   1.93311348E-08   5.21834904E-04   2.28125145E-04   2.84310516E-04   5.88477366E-05   2.42863128E-05  
  48               2.70515463E+00   1.14965046E+03   8.38413135E-01   1.60454135E-01   4.10386781E-08   5.21805442E-04   2.28285000E-04   2.84285573E-04   5.88455727E-05   2.42838436E-05  
  49               3.04530371E+00   1.18214684E+03   8.38425728E-01   1.60441146E-01   7.34788933E-08   5.21732160E-04   2.28810866E-04   2.84196703E-04   5.88435023E-05   2.42813454E-05  
  50               3.42633031E+00   1.22096232E+03   8.38444254E-01   1.60421653E-01   1.42647633E-07   5.21484261E-04   2.30284945E-04   2.83857703E-04   5.88409484E-05   2.42774358E-05  
  51               3.85385468E+00   1.25353791E+03   8.38458377E-01   1.60405823E-01   2.38350177E-07   5.20584109E-04   2.34081531E-04   2.82551980E-04   5.88396945E-05   2.42739159E-05  
  52               4.33561952E+00   1.29261324E+03   8.38477478E-01   1.60384819E-01   4.29941255E-07   5.17805515E-04   2.42585826E-04   2.78498896E-04   5.88391081E-05   2.42687802E-05  
  53               4.88272836E+00   1.32527173E+03   8.38493427E-01   1.60370728E-01   6.76921734E-07   5.10616964E-04   2.57766014E-04   2.68350192E-04   5.88403295E-05   2.42644295E-05  
  54               5.51206870E+00   1.36462451E+03   8.38520382E-01   1.60354517E-01   1.14518339E-06   4.95691952E-04   2.81435755E-04   2.48318400E-04   5.88404576E-05   2.42580347E-05  
  55               6.24557286E+00   1.39742719E+03   8.38546306E-01   1.60346407E-01   1.71089779E-06   4.75986121E-04   3.04906519E-04   2.25958977E-04   5.88392756E-05   2.42520640E-05  
  56               7.10583110E+00   1.43730423E+03   8.38580364E-01   1.60336659E-01   2.74112900E-06   4.50901721E-04   3.31662201E-04   1.98860093E-04   5.88368135E-05   2.42319239E-05  
  57               8.11069368E+00   1.47051619E+03   8.38599750E-01   1.60331414E-01   3.92232447E-06   4.34167621E-04   3.48473935E-04   1.82364596E-04   5.88346914E-05   2.42249034E-05  
  58               9.27466573E+00   1.51129857E+03   8.38624891E-01   1.60324250E-01   6.02365847E-06   4.14123280E-04   3.69680016E-04   1.60940000E-04   5.88339671E-05   2.41256332E-05  
  59               1.06083722E+01   1.54543884E+03   8.38632486E-01   1.60319444E-01   8.36407632E-06   4.02714621E-04   3.81244075E-04   1.49441960E-04   5.88317066E-05   2.41141812E-05  
  60               1.21132155E+01   1.58788130E+03   8.38646295E-01   1.60313118E-01   1.25017358E-05   3.91004529E-04   3.99520551E-04   1.31058143E-04   5.88379134E-05   2.35765523E-05  
  61               1.37850755E+01   1.62412743E+03   8.38642255E-01   1.60307298E-01   1.71502518E-05   3.81644920E-04   4.09295882E-04   1.21253990E-04   5.88333191E-05   2.35547687E-05  
  62               1.56011812E+01   1.66946610E+03   8.38642807E-01   1.60300666E-01   2.53694120E-05   3.79243660E-04   4.27202381E-04   1.03265681E-04   5.88460585E-05   2.24461111E-05  
  63               1.75339660E+01   1.70949550E+03   8.38639564E-01   1.60295581E-01   3.50148206E-05   3.71607609E-04   4.37492262E-04   9.29158279E-05   5.88337276E-05   2.23732941E-05  
  64               1.95332613E+01   1.75940981E+03   8.38621487E-01   1.60286708E-01   5.20654976E-05   3.66615763E-04   4.53337199E-04   7.69809656E-05   5.88235261E-05   2.21146469E-05  
  65               2.14798612E+01   1.80382261E+03   8.38561447E-01   1.60274187E-01   7.26292692E-05   3.77779644E-04   4.66750613E-04   6.34833840E-05   5.88141479E-05   2.16409972E-05  
  66               2.32750658E+01   1.84239445E+03   8.38462376E-01   1.60261488E-01   9.56714594E-05   4.26289979E-04   4.80631744E-04   4.95536178E-05   5.88293068E-05   2.07553939E-05  
  67               2.48659096E+01   1.87426892E+03   8.38447005E-01   1.60258148E-01   1.18998652E-04   4.21665061E-04   4.85239130E-04   4.48951538E-05   5.88010960E-05   2.07483475E-05  
  68               2.66198460E+01   1.90797545E+03   8.38425349E-01   1.60254410E-01   1.48670522E-04   4.17369802E-04   4.89502488E-04   4.05730179E-05   5.87761360E-05   2.07385386E-05  
  69               2.80249917E+01   1.93332214E+03   8.38393853E-01   1.60249308E-01   1.74727625E-04   4.14577222E-04   4.92255633E-04   3.77658890E-05   5.87565304E-05   2.07295945E-05  
  70               2.90394579E+01   1.95134824E+03   8.38377134E-01   1.60247066E-01   1.95526452E-04   4.12727444E-04   4.94084870E-04   3.59019751E-05   5.87395813E-05   2.07219360E-05  
  71               3.01820692E+01   1.97063766E+03   8.38357031E-01   1.60244554E-01   2.19899144E-04   4.10949923E-04   4.95839183E-04   3.41084444E-05   5.87212191E-05   2.07130574E-05  
  72               3.14717621E+01   1.99210581E+03   8.38331775E-01   1.60241560E-01   2.49984531E-04   4.09091960E-04   4.97670954E-04   3.22314172E-05   5.87005935E-05   2.07012418E-05  
  73               3.29210637E+01   2.01500050E+03   8.38301315E-01   1.60238155E-01   2.85574323E-04   4.07330355E-04   4.99404510E-04   3.04466786E-05   5.86756655E-05   2.06871443E-05  
  74               3.45421682E+01   2.04001483E+03   8.38263498E-01   1.60234105E-01   3.29164551E-04   4.05567694E-04   5.01150268E-04   2.86421688E-05   5.86465904E-05   2.06690084E-05  
  75               3.56983985E+01   2.05695262E+03   8.38204845E-01   1.60225390E-01   3.61500530E-04   4.04474397E-04   5.02180676E-04   2.75505096E-05   5.86263350E-05   2.06546708E-05  
  76               3.64947428E+01   2.06866487E+03   8.38183701E-01   1.60223269E-01   3.85451682E-04   4.03761791E-04   5.02894417E-04   2.68070769E-05   5.86112325E-05   2.06443029E-05  
  77               3.74106771E+01   2.08150554E+03   8.38159281E-01   1.60220835E-01   4.13010028E-04   4.03031274E-04   5.03600413E-04   2.60669655E-05   5.85941416E-05   2.06324547E-05  
  78               3.84603155E+01   2.09626242E+03   8.38129240E-01   1.60217873E-01   4.46762680E-04   4.02239467E-04   5.04398910E-04   2.52284820E-05   5.85753740E-05   2.06176877E-05  
  79               3.96628646E+01   2.11241407E+03   8.38094161E-01   1.60214478E-01   4.86044174E-04   4.01419838E-04   5.05185600E-04   2.43958160E-05   5.85526820E-05   2.06004358E-05  
  80               4.10360240E+01   2.13069543E+03   8.38051249E-01   1.60210371E-01   5.33945647E-04   4.00527113E-04   5.06039512E-04   2.34881460E-05   5.85273515E-05   2.05789699E-05  
  81               4.25988793E+01   2.15057291E+03   8.38000767E-01   1.60205615E-01   5.90045489E-04   3.99652229E-04   5.06870199E-04   2.25957266E-05   5.84973527E-05   2.05540022E-05  
  82               4.43715939E+01   2.17268732E+03   8.37939412E-01   1.60199895E-01   6.58024208E-04   3.98734848E-04   5.07736011E-04   2.16581293E-05   5.84636935E-05   2.05234463E-05  
  83               4.63759032E+01   2.19653476E+03   8.37867040E-01   1.60193234E-01   7.37926456E-04   3.97851587E-04   5.08560734E-04   2.07510399E-05   5.84244923E-05   2.04878363E-05  
  84               4.86346729E+01   2.22263652E+03   8.37779701E-01   1.60185268E-01   8.34110646E-04   3.96959147E-04   5.09385552E-04   1.98308952E-05   5.83804424E-05   2.04449926E-05  
  85               5.11727567E+01   2.25053617E+03   8.37676656E-01   1.60175959E-01   9.47293579E-04   3.96117333E-04   5.10150931E-04   1.89562548E-05   5.83298497E-05   2.03952588E-05  
  86               5.40163660E+01   2.28060849E+03   8.37553337E-01   1.60164896E-01   1.08248223E-03   3.95298336E-04   5.10882572E-04   1.80987019E-05   5.82730298E-05   2.03365269E-05  
  87               5.71943994E+01   2.31248930E+03   8.37406093E-01   1.60151574E-01   1.24143356E-03   3.94541569E-04   5.11538953E-04   1.72969024E-05   5.82084037E-05   2.02688373E-05  
  88               6.07368172E+01   2.34637577E+03   8.37226049E-01   1.60136090E-01   1.42955471E-03   3.99645968E-04   5.12387860E-04   1.63033553E-05   5.81413717E-05   2.02215320E-05  
  89               6.46781005E+01   2.38204310E+03   8.37023765E-01   1.60118243E-01   1.65016604E-03   3.99134326E-04   5.12897137E-04   1.56072822E-05   5.80606328E-05   2.01323085E-05  
  90               6.90549894E+01   2.41948979E+03   8.36786680E-01   1.60097397E-01   1.90852694E-03   3.98682913E-04   5.13321266E-04   1.49695509E-05   5.79703210E-05   2.00310188E-05  
  91               7.39100454E+01   2.45870377E+03   8.36509401E-01   1.60073084E-01   2.21049570E-03   3.98292904E-04   5.13657206E-04   1.43894269E-05   5.78695984E-05   1.99167580E-05  
  92               7.92856528E+01   2.49941420E+03   8.36188462E-01   1.60045007E-01   2.55982145E-03   3.97978928E-04   5.13890015E-04   1.38786238E-05   5.77572178E-05   1.97899120E-05  
  93               8.52353140E+01   2.54188421E+03   8.35814905E-01   1.60012379E-01   2.96626183E-03   3.97727587E-04   5.14032168E-04   1.34190066E-05   5.76326542E-05   1.96485685E-05  
  94               9.18166343E+01   2.58556302E+03   8.35388213E-01   1.59975168E-01   3.43033421E-03   3.97570124E-04   5.14055237E-04   1.30359459E-05   5.74938362E-05   1.94951059E-05  
  95               9.91005632E+01   2.63111053E+03   8.34893071E-01   1.59932027E-01   3.96873179E-03   3.97477787E-04   5.13986296E-04   1.26935744E-05   5.73405289E-05   1.93257031E-05  
  96               1.07165028E+02   2.67757635E+03   8.34335346E-01   1.59883487E-01   4.57499884E-03   3.97502342E-04   5.13780893E-04   1.24342260E-05   5.71696508E-05   1.91458263E-05  
  97               1.16105069E+02   2.72568725E+03   8.33697108E-01   1.59827974E-01   5.26866850E-03   3.97618345E-04   5.13463365E-04   1.22224928E-05   5.69805324E-05   1.89514915E-05  
  98               1.26025401E+02   2.77490329E+03   8.32979927E-01   1.59765637E-01   6.04798351E-03   3.97860108E-04   5.13006909E-04   1.20799152E-05   5.67703581E-05   1.87465871E-05  
  99               1.37050519E+02   2.82545664E+03   8.32172664E-01   1.59695506E-01   6.92504870E-03   3.98230891E-04   5.12411593E-04   1.19957446E-05   5.65370868E-05   1.85304296E-05  
  100              1.49321316E+02   2.87753506E+03   8.31263352E-01   1.59616539E-01   7.91286396E-03   3.98739516E-04   5.11672548E-04   1.19627785E-05   5.62782182E-05   1.83025789E-05  
  101              1.63001160E+02   2.93048390E+03   8.30260709E-01   1.59529512E-01   9.00188255E-03   3.99429895E-04   5.10758219E-04   1.20058326E-05   5.59898444E-05   1.80689403E-05  
