# ATMO chemical composition profiles
# Chemical abundances given as mole fraction for the 8 most abundant species
# Model Level      Pressure [Ba]    Temperature [K]  H2               He               H2O              CH4              NH3              N2               H2S              H               
  1                1.00000000E-05   3.37320200E+01   8.38105277E-01   1.60469853E-01   7.79164266E-04   5.29948377E-04   5.52624839E-05   3.31847370E-05   2.29841809E-05   3.16308632E-109 
  2                2.38832112E-05   4.07782073E+01   8.38105277E-01   1.60469853E-01   7.79164264E-04   5.29948376E-04   5.52624838E-05   3.31847369E-05   2.29841809E-05   2.04674946E-109 
  3                4.10762615E-05   4.38753501E+01   8.38105277E-01   1.60469853E-01   7.79164263E-04   5.29948375E-04   5.52624837E-05   3.31847369E-05   2.29841809E-05   1.56068619E-109 
  4                6.23666407E-05   4.51620751E+01   8.38105277E-01   1.60469853E-01   7.79164262E-04   5.29948374E-04   5.52624836E-05   3.31847368E-05   2.29841809E-05   1.26658654E-109 
  5                8.87285147E-05   4.78536638E+01   8.38105277E-01   1.60469853E-01   7.79164260E-04   5.29948374E-04   5.52624836E-05   3.31847368E-05   2.29841809E-05   1.06188977E-109 
  6                1.21367332E-04   4.87887337E+01   8.38105277E-01   1.60469853E-01   7.79164259E-04   5.29948373E-04   5.52624835E-05   3.31847368E-05   2.29841809E-05   9.07946254E-110 
  7                1.61772951E-04   5.14004759E+01   8.38105277E-01   1.60469853E-01   7.79164258E-04   5.29948372E-04   5.52624835E-05   3.31847367E-05   2.29841809E-05   7.86426409E-110 
  8                2.11786490E-04   5.24563027E+01   8.38105277E-01   1.60469853E-01   7.79164257E-04   5.29948371E-04   5.52624834E-05   3.31847367E-05   2.29841809E-05   6.87324645E-110 
  9                2.73685411E-04   5.53026894E+01   8.38105277E-01   1.60469853E-01   7.79164256E-04   5.29948370E-04   5.52624833E-05   3.31847366E-05   2.29841809E-05   6.04623773E-110 
  10               3.50276962E-04   5.65334399E+01   8.38105277E-01   1.60469853E-01   7.79164254E-04   5.29948369E-04   5.52624832E-05   3.31847366E-05   2.29841809E-05   5.34447754E-110 
  11               4.45032207E-04   5.94461936E+01   8.38105277E-01   1.60469853E-01   7.79164253E-04   5.29948368E-04   5.52624832E-05   3.31847365E-05   2.29841809E-05   4.74149528E-110 
  12               5.62233970E-04   6.05421539E+01   8.38105277E-01   1.60469853E-01   7.79164251E-04   5.29948367E-04   5.52624831E-05   3.31847365E-05   2.29841809E-05   4.21844608E-110 
  13               7.07147418E-04   6.35992701E+01   8.38105277E-01   1.60469853E-01   7.79164250E-04   5.29948366E-04   5.52624830E-05   3.31847364E-05   2.29841809E-05   3.76145667E-110 
  14               8.86274159E-04   6.47370042E+01   8.38105277E-01   1.60469853E-01   7.79164248E-04   5.29948365E-04   5.52624829E-05   3.31847364E-05   2.29841809E-05   3.35990501E-110 
  15               1.10761990E-03   6.81091067E+01   8.38105277E-01   1.60469853E-01   7.79164246E-04   5.29948364E-04   5.52624828E-05   3.31847363E-05   2.29841809E-05   3.00549264E-110 
  16               1.38098583E-03   6.94333660E+01   8.38105277E-01   1.60469853E-01   7.79164244E-04   5.29948363E-04   5.52624827E-05   3.31847362E-05   2.29841809E-05   2.69163664E-110 
  17               1.71818613E-03   7.31547251E+01   8.38105277E-01   1.60469853E-01   7.79164242E-04   5.29948361E-04   5.52624826E-05   3.31847361E-05   2.29841809E-05   2.41310344E-110 
  18               2.13206580E-03   7.46546609E+01   8.38105277E-01   1.60469853E-01   7.79164240E-04   5.29948360E-04   5.52624825E-05   3.31847361E-05   2.29841809E-05   2.16626080E-110 
  19               2.63753969E-03   7.87931873E+01   8.38105277E-01   1.60469853E-01   7.79164238E-04   5.29948359E-04   5.52624823E-05   3.31847360E-05   2.29841809E-05   1.94765281E-110 
  20               3.25252587E-03   8.05416535E+01   8.38105277E-01   1.60469853E-01   7.79164237E-04   5.29948358E-04   5.52624823E-05   3.31847359E-05   2.29841809E-05   1.75388318E-110 
  21               3.99920509E-03   8.51244287E+01   8.38105277E-01   1.60469853E-01   7.79164235E-04   5.29948357E-04   5.52624822E-05   3.31847359E-05   2.29841809E-05   1.58170033E-110 
  22               4.90509457E-03   8.71193685E+01   8.38105277E-01   1.60469853E-01   7.79164234E-04   5.29948356E-04   5.52624821E-05   3.31847358E-05   2.29841809E-05   1.42819448E-110 
  23               6.00442459E-03   9.23348637E+01   8.38105277E-01   1.60469853E-01   7.79164234E-04   5.29948355E-04   5.52624821E-05   3.31847358E-05   2.29841809E-05   1.29084871E-110 
  24               7.33884999E-03   9.46723888E+01   8.38105277E-01   1.60469853E-01   7.79164233E-04   5.29948355E-04   5.52624820E-05   3.31847358E-05   2.29841809E-05   1.16760794E-110 
  25               8.95903668E-03   1.00499477E+02   8.38105277E-01   1.60469853E-01   7.79164232E-04   5.29948354E-04   5.52624820E-05   3.31847358E-05   2.29841809E-05   3.85636025E-110 
  26               1.09259824E-02   1.03266028E+02   8.38103114E-01   1.60469439E-01   7.79164233E-04   5.29948355E-04   5.52624820E-05   3.31847358E-05   2.29841216E-05   3.62017728E-107 
  27               1.33136045E-02   1.09921197E+02   8.38105276E-01   1.60469853E-01   7.79165256E-04   5.29949051E-04   5.52625546E-05   3.31847794E-05   2.29841809E-05   1.41127431E-100 
  28               1.62128054E-02   1.13215381E+02   8.38071405E-01   1.60463368E-01   7.79166260E-04   5.29949734E-04   5.52626259E-05   3.31848222E-05   2.29832520E-05   1.26599326E-97  
  29               1.97334671E-02   1.20740915E+02   8.38105251E-01   1.60469848E-01   7.79181608E-04   5.29960172E-04   5.52637144E-05   3.31854758E-05   2.29841802E-05   1.95549727E-91  
  30               2.40074714E-02   1.24742902E+02   8.38039331E-01   1.60457226E-01   7.79197795E-04   5.29971182E-04   5.52648625E-05   3.31861653E-05   2.29823724E-05   1.80673923E-88  
  31               2.91947097E-02   1.33327020E+02   8.38105251E-01   1.60469848E-01   7.79181659E-04   5.29960207E-04   5.52637181E-05   3.31854780E-05   2.29841802E-05   1.14619028E-82  
  32               3.54891003E-02   1.38102213E+02   8.38105133E-01   1.60469825E-01   7.79259756E-04   5.30013325E-04   5.52692572E-05   3.31888042E-05   2.29841770E-05   9.00358050E-80  
  33               4.31266536E-02   1.47768863E+02   8.38105132E-01   1.60469825E-01   7.79259754E-04   5.30013323E-04   5.52692571E-05   3.31888041E-05   2.29841769E-05   1.90069596E-74  
  34               5.23920202E-02   1.53534914E+02   8.38105109E-01   1.60469821E-01   7.79259752E-04   5.30013322E-04   5.52692570E-05   3.31888040E-05   2.29841763E-05   1.30894236E-71  
  35               6.36316737E-02   1.64264830E+02   8.38105068E-01   1.60469813E-01   7.79259765E-04   5.30013331E-04   5.52692579E-05   3.31888046E-05   2.29841752E-05   7.90063979E-67  
  36               7.72654256E-02   1.70746761E+02   8.38104509E-01   1.60469706E-01   7.79259807E-04   5.30013360E-04   5.52692610E-05   3.31888064E-05   2.29841599E-05   2.99315037E-64  
  37               9.38040651E-02   1.82099138E+02   8.38103734E-01   1.60469558E-01   7.79260196E-04   5.30013625E-04   5.52692887E-05   3.31888230E-05   2.29841386E-05   3.76241470E-60  
  38               1.13857427E-01   1.89335231E+02   8.38072588E-01   1.60463594E-01   7.79261206E-04   5.30014312E-04   5.52693604E-05   3.31888661E-05   2.29832845E-05   8.21771597E-58  
  39               1.38140687E-01   2.01744068E+02   8.38105091E-01   1.60469817E-01   7.79288305E-04   5.30032743E-04   5.52712824E-05   3.31900202E-05   2.29841758E-05   3.63094783E-54  
  40               1.67507811E-01   2.09846222E+02   8.37992715E-01   1.60448301E-01   7.79283638E-04   5.30029568E-04   5.52709515E-05   3.31898215E-05   2.29810940E-05   4.90938652E-52  
  41               2.03023731E-01   2.22247627E+02   8.37596312E-01   1.60372403E-01   7.79273875E-04   5.30022929E-04   5.52702592E-05   3.31894058E-05   2.29702231E-05   4.66851038E-49  
  42               2.45988718E-01   2.30125391E+02   8.38104216E-01   1.60469650E-01   7.79869451E-04   5.30428009E-04   5.53125007E-05   3.32147715E-05   2.29841518E-05   2.38695866E-47  
  43               2.98028543E-01   2.42005600E+02   8.38104927E-01   1.60469786E-01   7.79396668E-04   5.30106446E-04   5.52789685E-05   3.31946356E-05   2.29841713E-05   5.76111683E-45  
  44               3.61100997E-01   2.49807605E+02   8.38104209E-01   1.60469648E-01   7.79874105E-04   5.30431175E-04   5.53128311E-05   3.32149698E-05   2.29841516E-05   1.53440438E-43  
  45               4.37603011E-01   2.61989783E+02   8.38104209E-01   1.60469648E-01   7.79874132E-04   5.30431193E-04   5.53128331E-05   3.32149710E-05   2.29841516E-05   1.82346931E-41  
  46               5.30425832E-01   2.70689973E+02   8.38104209E-01   1.60469648E-01   7.79874121E-04   5.30431186E-04   5.53128325E-05   3.32149706E-05   2.29841516E-05   4.11744920E-40  
  47               6.42947049E-01   2.84263795E+02   8.38104209E-01   1.60469648E-01   7.79874110E-04   5.30431178E-04   5.53128318E-05   3.32149701E-05   2.29841516E-05   3.80313898E-38  
  48               7.79094518E-01   2.94732144E+02   8.38104209E-01   1.60469648E-01   7.79874097E-04   5.30431169E-04   5.53128311E-05   3.32149697E-05   2.29841516E-05   9.13515126E-37  
  49               9.43595619E-01   3.10361356E+02   8.38104209E-01   1.60469648E-01   7.79874083E-04   5.30431160E-04   5.53128303E-05   3.32149691E-05   2.29841516E-05   7.32420700E-35  
  50               1.14207204E+00   3.23707450E+02   8.38104209E-01   1.60469648E-01   7.79874067E-04   5.30431149E-04   5.53128294E-05   3.32149686E-05   2.29841516E-05   2.17096164E-33  
  51               1.38092882E+00   3.43241783E+02   8.38104208E-01   1.60469648E-01   7.79874050E-04   5.30431138E-04   5.53128284E-05   3.32149679E-05   2.29841516E-05   1.99164589E-31  
  52               1.66710789E+00   3.62900635E+02   8.38104039E-01   1.60469616E-01   7.79874031E-04   5.30431125E-04   5.53128273E-05   3.32149672E-05   2.29841470E-05   1.14315565E-29  
  53               2.00948568E+00   3.84308639E+02   8.38104056E-01   1.60469600E-01   7.79873711E-04   5.30430907E-04   5.53128049E-05   3.32149537E-05   2.29841447E-05   5.87561719E-28  
  54               2.41872920E+00   4.05909826E+02   8.38104051E-01   1.60469599E-01   7.79877247E-04   5.30433312E-04   5.53130560E-05   3.32151044E-05   2.29841445E-05   2.04086947E-26  
  55               2.90619444E+00   4.29369691E+02   8.38104051E-01   1.60469599E-01   7.79877242E-04   5.30433309E-04   5.53130560E-05   3.32151044E-05   2.29841445E-05   6.42348662E-25  
  56               3.48383151E+00   4.52911265E+02   8.38104030E-01   1.60469594E-01   7.79877212E-04   5.30433289E-04   5.53130543E-05   3.32151032E-05   2.29841439E-05   1.42020603E-23  
  57               4.16563647E+00   4.78335956E+02   8.38103630E-01   1.60469535E-01   7.79877244E-04   5.30433311E-04   5.53130571E-05   3.32151048E-05   2.29841353E-05   2.85827574E-22  
  58               4.96910865E+00   5.03795583E+02   8.38100421E-01   1.60469268E-01   7.79878400E-04   5.30434097E-04   5.53131396E-05   3.32151542E-05   2.29840971E-05   4.23923776E-21  
  59               5.91313470E+00   5.31268842E+02   8.38100709E-01   1.60468980E-01   7.79878455E-04   5.30434134E-04   5.53131441E-05   3.32151568E-05   2.29840558E-05   5.82765236E-20  
  60               7.01813035E+00   5.58676542E+02   8.38100627E-01   1.60468943E-01   7.79944562E-04   5.30479097E-04   5.53178334E-05   3.32179726E-05   2.29840506E-05   6.12392571E-19  
  61               8.30801926E+00   5.88185777E+02   8.38100665E-01   1.60468906E-01   7.79944439E-04   5.30479014E-04   5.53178255E-05   3.32179676E-05   2.29840452E-05   6.03705369E-18  
  62               9.81343273E+00   6.17619607E+02   8.38100731E-01   1.60468840E-01   7.79944250E-04   5.30478886E-04   5.53178128E-05   3.32179599E-05   2.29840358E-05   4.73306903E-17  
  63               1.15638759E+01   6.49278441E+02   8.38100855E-01   1.60468716E-01   7.79943932E-04   5.30478670E-04   5.53177911E-05   3.32179466E-05   2.29840180E-05   3.52309276E-16  
  64               1.35896424E+01   6.80676938E+02   8.38101049E-01   1.60468522E-01   7.79943443E-04   5.30478338E-04   5.53177574E-05   3.32179262E-05   2.29839903E-05   2.13393112E-15  
  65               1.59233235E+01   7.14253469E+02   8.38101370E-01   1.60468202E-01   7.79942680E-04   5.30477819E-04   5.53177043E-05   3.32178941E-05   2.29839444E-05   1.23021559E-14  
  66               1.86175939E+01   7.47584987E+02   8.38101808E-01   1.60467760E-01   7.79941588E-04   5.30477077E-04   5.53176280E-05   3.32178480E-05   2.29838811E-05   5.96295245E-14  
  67               2.17288260E+01   7.83373082E+02   8.38102442E-01   1.60467108E-01   7.79940068E-04   5.30476043E-04   5.53175214E-05   3.32177837E-05   2.29837877E-05   2.79810958E-13  
  68               2.53194660E+01   8.18991330E+02   8.38103174E-01   1.60466311E-01   7.79938380E-04   5.30474895E-04   5.53174029E-05   3.32177123E-05   2.29836733E-05   1.13427722E-12  
  69               2.94482816E+01   8.57066813E+02   8.38104012E-01   1.60465262E-01   7.79937001E-04   5.30473958E-04   5.53173065E-05   3.32176541E-05   2.29835226E-05   4.45555912E-12  
  70               3.41861336E+01   8.94881291E+02   8.38104897E-01   1.60464142E-01   7.79939276E-04   5.30475506E-04   5.53174693E-05   3.32177515E-05   2.29833611E-05   1.53802273E-11  
  71               3.96247348E+01   9.35186421E+02   8.38106112E-01   1.60462894E-01   7.79940721E-04   5.30476489E-04   5.53175734E-05   3.32178137E-05   2.29855882E-05   5.16075006E-11  
  72               4.58366381E+01   9.75205203E+02   8.38107225E-01   1.60461687E-01   7.79938166E-04   5.30474752E-04   5.53173937E-05   3.32177054E-05   2.30055797E-05   1.54826895E-10  
  73               5.28878462E+01   1.01729969E+03   8.38108219E-01   1.60460405E-01   7.79936746E-04   5.30473786E-04   5.53172947E-05   3.32176456E-05   2.30675461E-05   4.47965168E-10  
  74               6.08346528E+01   1.05882085E+03   8.38108642E-01   1.60459196E-01   7.79938895E-04   5.30475247E-04   5.53174489E-05   3.32177378E-05   2.32351920E-05   1.17145161E-09  
  75               6.97776113E+01   1.10206154E+03   8.38108360E-01   1.60457931E-01   7.79961069E-04   5.30490317E-04   5.53190236E-05   3.32186830E-05   2.36796278E-05   2.95087002E-09  
  76               7.98741899E+01   1.14510853E+03   8.38108158E-01   1.60456885E-01   7.79958606E-04   5.30488528E-04   5.53188529E-05   3.32185805E-05   2.42851029E-05   6.88288409E-09  
  77               9.12891500E+01   1.19000549E+03   8.38108987E-01   1.60455965E-01   7.79956488E-04   5.30486208E-04   5.53187223E-05   3.32185045E-05   2.42848230E-05   1.55880312E-08  
  78               1.04146946E+02   1.23492282E+03   8.38109648E-01   1.60455151E-01   7.79953118E-04   5.30478222E-04   5.53186362E-05   3.32184707E-05   2.42844703E-05   3.31752332E-08  
  79               1.18547179E+02   1.28112308E+03   8.38110221E-01   1.60454357E-01   7.79937430E-04   5.30438790E-04   5.53185204E-05   3.32185056E-05   2.42839767E-05   6.81998688E-08  
  80               1.34610742E+02   1.32726118E+03   8.38110749E-01   1.60453632E-01   7.79861821E-04   5.30281523E-04   5.53180220E-05   3.32187419E-05   2.42832968E-05   1.32878796E-07  
  81               1.52591884E+02   1.37458037E+03   8.38111451E-01   1.60452928E-01   7.79612594E-04   5.29866863E-04   5.53157471E-05   3.32198112E-05   2.42823152E-05   2.51078316E-07  
  82               1.72732691E+02   1.42225711E+03   8.38112364E-01   1.60452262E-01   7.79098018E-04   5.29158193E-04   5.53064908E-05   3.32242428E-05   2.42809175E-05   4.55643704E-07  
  83               1.95289787E+02   1.47121654E+03   8.38113497E-01   1.60451551E-01   7.78274151E-04   5.28131273E-04   5.52727456E-05   3.32400797E-05   2.42788368E-05   8.06131588E-07  
  84               2.20437194E+02   1.52040864E+03   8.38114784E-01   1.60450800E-01   7.77133827E-04   5.26770005E-04   5.51692916E-05   3.32873693E-05   2.42756897E-05   1.37500135E-06  
  85               2.48289741E+02   1.57043204E+03   8.38116220E-01   1.60449932E-01   7.75590537E-04   5.24987173E-04   5.49203255E-05   3.33995635E-05   2.42704435E-05   2.28396441E-06  
  86               2.79046094E+02   1.62037956E+03   8.38117570E-01   1.60448950E-01   7.73705969E-04   5.22790092E-04   5.45207862E-05   3.35795624E-05   2.42608678E-05   3.66641446E-06  
  87               3.12966949E+02   1.67106052E+03   8.38101692E-01   1.60444536E-01   7.71514870E-04   5.20071943E-04   5.41235113E-05   3.37757458E-05   2.42405161E-05   5.75080647E-06  
  88               3.50218227E+02   1.72155774E+03   8.38083030E-01   1.60443131E-01   7.89439047E-04   5.16555262E-04   5.39030426E-05   3.38767342E-05   2.34028737E-05   8.75402561E-06  
  89               3.90946620E+02   1.77245922E+03   8.38083001E-01   1.60441454E-01   7.86025847E-04   5.12818435E-04   5.38325258E-05   3.39015106E-05   2.34153802E-05   1.30355041E-05  
  90               4.35253484E+02   1.82290666E+03   8.38082050E-01   1.60439631E-01   7.82399735E-04   5.08707728E-04   5.39433255E-05   3.38327448E-05   2.34227214E-05   1.88883398E-05  
  91               4.83230518E+02   1.87340605E+03   8.38077730E-01   1.60437290E-01   7.79000239E-04   5.04166837E-04   5.41675711E-05   3.37036944E-05   2.34188873E-05   2.68080488E-05  
  92               5.34349388E+02   1.92268001E+03   8.38068165E-01   1.60434439E-01   7.77116787E-04   4.99387778E-04   5.45299822E-05   3.35023328E-05   2.33926714E-05   3.70044799E-05  
  93               5.88187056E+02   1.97087077E+03   8.38047671E-01   1.60430441E-01   7.79012562E-04   4.94258504E-04   5.49712124E-05   3.32578867E-05   2.33213110E-05   4.98849949E-05  
  94               6.47659825E+02   2.01991586E+03   8.38005102E-01   1.60424069E-01   7.89056836E-04   4.88423103E-04   5.55346732E-05   3.29472205E-05   2.31644092E-05   6.65300728E-05  
  95               7.11773809E+02   2.06898309E+03   8.37934194E-01   1.60415269E-01   8.12989945E-04   4.81549799E-04   5.61796419E-05   3.25909031E-05   2.28856484E-05   8.74436432E-05  
  96               7.80067261E+02   2.11732085E+03   8.37850383E-01   1.60406938E-01   8.50177003E-04   4.73684459E-04   5.69076637E-05   3.21899418E-05   2.25289122E-05   1.12917755E-04  
  97               8.59448009E+02   2.16936933E+03   8.37819870E-01   1.60401522E-01   8.44795734E-04   4.67708964E-04   5.77824900E-05   3.17083415E-05   2.25262313E-05   1.46652000E-04  
  98               9.40673674E+02   2.21862594E+03   8.37789966E-01   1.60397033E-01   8.39922447E-04   4.62172679E-04   5.86928534E-05   3.12067267E-05   2.25191686E-05   1.85485252E-04  
  99               1.01729411E+03   2.26187079E+03   8.37757637E-01   1.60392641E-01   8.35876283E-04   4.57454940E-04   5.95578182E-05   3.07293952E-05   2.25093798E-05   2.25834837E-04  
  100              1.10729021E+03   2.30953175E+03   8.37712652E-01   1.60386875E-01   8.31651083E-04   4.52378914E-04   6.05562913E-05   3.01759451E-05   2.24946305E-05   2.77943156E-04  
  101              1.21249642E+03   2.36093973E+03   8.37611537E-01   1.60372908E-01   8.32167393E-04   4.46812759E-04   6.17219360E-05   2.95272319E-05   2.24809432E-05   3.43950175E-04  
