# ATMO chemical composition profiles
# Chemical abundances given as mole fraction for the 8 most abundant species
# Model Level      Pressure [Ba]    Temperature [K]  H2               He               H                H2O              CH4              CO               N2               H2S             
  1                1.00000000E-05   3.14248305E+02   8.38265427E-01   1.60469993E-01   6.39993048E-32   6.79092907E-04   4.35887381E-04   5.80475025E-05   5.69496547E-05   2.29814894E-05  
  2                8.67502162E-05   3.40317230E+02   8.38261511E-01   1.60473893E-01   1.30258243E-29   6.79101581E-04   4.35892949E-04   5.80482440E-05   5.69503822E-05   2.29820479E-05  
  3                1.77448187E-04   3.59951179E+02   8.38262680E-01   1.60472728E-01   6.12440457E-28   6.79099267E-04   4.35891464E-04   5.80480462E-05   5.69501884E-05   2.29818811E-05  
  4                2.86894065E-04   3.64280384E+02   8.38260824E-01   1.60474577E-01   1.14643945E-27   6.79102984E-04   4.35893850E-04   5.80483639E-05   5.69505004E-05   2.29821459E-05  
  5                4.19714664E-04   3.78217034E+02   8.38261865E-01   1.60473243E-01   1.35167800E-26   6.79100265E-04   4.35892104E-04   5.80481315E-05   5.69502727E-05   2.29819548E-05  
  6                5.81088644E-04   3.81129824E+02   8.38260504E-01   1.60474591E-01   1.95361213E-26   6.79107263E-04   4.35896596E-04   5.80487297E-05   5.69508600E-05   2.29821479E-05  
  7                7.77457153E-04   3.93551861E+02   8.38261731E-01   1.60473368E-01   1.48925738E-25   6.79104835E-04   4.35895037E-04   5.80485221E-05   5.69506568E-05   2.29819728E-05  
  8                1.01643520E-03   3.96154164E+02   8.38260597E-01   1.60474498E-01   2.01994754E-25   6.79107175E-04   4.35896539E-04   5.80487221E-05   5.69508536E-05   2.29821346E-05  
  9                1.30750045E-03   4.07792086E+02   8.38261688E-01   1.60473411E-01   1.18393683E-24   6.79104998E-04   4.35895142E-04   5.80485360E-05   5.69506718E-05   2.29819790E-05  
  10               1.66201223E-03   4.10156513E+02   8.38260642E-01   1.60474450E-01   1.52298952E-24   6.79107099E-04   4.35896491E-04   5.80487156E-05   5.69508489E-05   2.29821277E-05  
  11               2.09401500E-03   4.21312575E+02   8.38260976E-01   1.60473378E-01   7.41396600E-24   6.79104721E-04   4.35894964E-04   5.80485123E-05   5.69506504E-05   2.29819742E-05  
  12               2.62050801E-03   4.23492761E+02   8.38259984E-01   1.60474326E-01   9.14044758E-24   6.79117757E-04   4.35903332E-04   5.80496266E-05   5.69517448E-05   2.29821100E-05  
  13               3.26246737E-03   4.34382416E+02   8.38260823E-01   1.60473490E-01   3.88957798E-23   6.79116204E-04   4.35902335E-04   5.80494939E-05   5.69516160E-05   2.29819903E-05  
  14               4.04520573E-03   4.36553776E+02   8.38259704E-01   1.60474464E-01   4.72159333E-23   6.79118259E-04   4.35903654E-04   5.80496696E-05   5.69517900E-05   2.29821297E-05  
  15               4.99971024E-03   4.47479724E+02   8.38260408E-01   1.60473760E-01   1.85144426E-22   6.79117896E-04   4.35903421E-04   5.80496385E-05   5.69517614E-05   2.29820290E-05  
  16               6.16327773E-03   4.49915789E+02   8.38259191E-01   1.60474654E-01   2.29316933E-22   6.79119540E-04   4.35904476E-04   5.80497790E-05   5.69519013E-05   2.29821569E-05  
  17               7.58123985E-03   4.61335620E+02   8.38257662E-01   1.60473639E-01   8.80467357E-22   6.79121000E-04   4.35905414E-04   5.80499039E-05   5.69520263E-05   2.29820115E-05  
  18               9.30804669E-03   4.64362336E+02   8.38256961E-01   1.60474261E-01   1.15285148E-21   6.79163813E-04   4.35932893E-04   5.80535634E-05   5.69556193E-05   2.29821007E-05  
  19               1.14121882E-02   4.75208886E+02   8.38257577E-01   1.60473648E-01   3.80098924E-21   6.79162583E-04   4.35932104E-04   5.80534583E-05   5.69555194E-05   2.29820129E-05  
  20               1.39750451E-02   4.78362313E+02   8.38256727E-01   1.60474494E-01   4.95052978E-21   6.79164611E-04   4.35933406E-04   5.80536316E-05   5.69556928E-05   2.29821341E-05  
  21               1.70957168E-02   4.89525358E+02   8.38257319E-01   1.60473904E-01   1.57223829E-20   6.79163443E-04   4.35932656E-04   5.80535318E-05   5.69555987E-05   2.29820496E-05  
  22               2.08941328E-02   4.92810500E+02   8.38256456E-01   1.60474764E-01   2.03632517E-20   6.79165155E-04   4.35933755E-04   5.80536782E-05   5.69557464E-05   2.29821727E-05  
  23               2.55153969E-02   5.04287594E+02   8.38257020E-01   1.60474202E-01   6.22688641E-20   6.79164043E-04   4.35933041E-04   5.80535831E-05   5.69556576E-05   2.29820922E-05  
  24               3.11342614E-02   5.07934346E+02   8.38256179E-01   1.60475040E-01   8.20560507E-20   6.79165727E-04   4.35934122E-04   5.80537271E-05   5.69558036E-05   2.29822122E-05  
  25               3.79624492E-02   5.20069611E+02   8.38256767E-01   1.60474454E-01   2.49636366E-19   6.79164580E-04   4.35933386E-04   5.80536290E-05   5.69557124E-05   2.29821284E-05  
  26               4.62541583E-02   5.24416494E+02   8.38256002E-01   1.60475216E-01   3.44376399E-19   6.79166129E-04   4.35934380E-04   5.80537615E-05   5.69558478E-05   2.29822374E-05  
  27               5.63142498E-02   5.37635155E+02   8.38256662E-01   1.60474558E-01   1.07556429E-18   6.79164853E-04   4.35933561E-04   5.80536524E-05   5.69557465E-05   2.29821432E-05  
  28               6.85076331E-02   5.43069700E+02   8.38256035E-01   1.60475183E-01   1.59388813E-18   6.79166145E-04   4.35934391E-04   5.80537628E-05   5.69558608E-05   2.29822327E-05  
  29               8.32711111E-02   5.57511047E+02   8.38256754E-01   1.60474467E-01   5.09378661E-18   6.79164742E-04   4.35933490E-04   5.80536429E-05   5.69557495E-05   2.29821301E-05  
  30               1.01122122E-01   5.64018320E+02   8.38256247E-01   1.60474971E-01   7.98438586E-18   6.79165780E-04   4.35934156E-04   5.80537316E-05   5.69558432E-05   2.29822024E-05  
  31               1.22682428E-01   5.79615047E+02   8.38256982E-01   1.60474239E-01   2.55677471E-17   6.79164323E-04   4.35933221E-04   5.80536071E-05   5.69557280E-05   2.29820975E-05  
  32               1.48685426E-01   5.87422186E+02   8.38256608E-01   1.60474612E-01   4.25732188E-17   6.79165087E-04   4.35933711E-04   5.80536724E-05   5.69557994E-05   2.29821509E-05  
  33               1.79998423E-01   6.04514842E+02   8.38257368E-01   1.60473854E-01   1.38135606E-16   6.79163584E-04   4.35932746E-04   5.80535439E-05   5.69556810E-05   2.29820424E-05  
  34               2.17624485E-01   6.14037213E+02   8.38257151E-01   1.60474070E-01   2.47596676E-16   6.79164052E-04   4.35933047E-04   5.80535840E-05   5.69557283E-05   2.29820733E-05  
  35               2.62762645E-01   6.32953576E+02   8.38257930E-01   1.60473294E-01   8.16739100E-16   6.79162509E-04   4.35932057E-04   5.80534521E-05   5.69556073E-05   2.29819622E-05  
  36               3.16840637E-01   6.44522258E+02   8.38257861E-01   1.60473361E-01   1.57556890E-15   6.79162656E-04   4.35932151E-04   5.80534647E-05   5.69556284E-05   2.29819718E-05  
  37               3.81550264E-01   6.65584269E+02   8.38258633E-01   1.60472591E-01   5.26920505E-15   6.79161143E-04   4.35931180E-04   5.80533353E-05   5.69555108E-05   2.29818615E-05  
  38               4.58833493E-01   6.79517146E+02   8.38258681E-01   1.60472533E-01   1.08683693E-14   6.79161030E-04   4.35931107E-04   5.80533257E-05   5.69555110E-05   2.29818532E-05  
  39               5.50998461E-01   7.02985466E+02   8.38259415E-01   1.60471801E-01   3.64761374E-14   6.79159732E-04   4.35930274E-04   5.80532147E-05   5.69554123E-05   2.29817484E-05  
  40               6.60632750E-01   7.19658708E+02   8.38259509E-01   1.60471641E-01   7.98420328E-14   6.79159391E-04   4.35930055E-04   5.80531856E-05   5.69553944E-05   2.29817253E-05  
  41               7.90694365E-01   7.45817420E+02   8.38260179E-01   1.60470971E-01   2.66030906E-13   6.79159157E-04   4.35929905E-04   5.80531656E-05   5.69553858E-05   2.29816294E-05  
  42               9.44450927E-01   7.65591090E+02   8.38260220E-01   1.60470728E-01   6.10574148E-13   6.79158582E-04   4.35929536E-04   5.80531165E-05   5.69553493E-05   2.29815944E-05  
  43               1.12606968E+00   7.94955365E+02   8.38260611E-01   1.60470087E-01   2.01539626E-12   6.79161443E-04   4.35931372E-04   5.80533611E-05   5.69556013E-05   2.29815023E-05  
  44               1.34022579E+00   8.18433477E+02   8.38260846E-01   1.60469838E-01   4.82290276E-12   6.79165197E-04   4.35933781E-04   5.80536821E-05   5.69559287E-05   2.29814660E-05  
  45               1.59209674E+00   8.51423858E+02   8.38261361E-01   1.60469306E-01   1.55988170E-11   6.79164175E-04   4.35933125E-04   5.80535953E-05   5.69558562E-05   2.29866483E-05  
  46               1.88717166E+00   8.78834422E+02   8.38261576E-01   1.60469032E-01   3.80099843E-11   6.79163701E-04   4.35932822E-04   5.80535587E-05   5.69558301E-05   2.29972167E-05  
  47               2.23193672E+00   9.15561993E+02   8.38261929E-01   1.60468506E-01   1.18001639E-10   6.79163182E-04   4.35932488E-04   5.80535342E-05   5.69558007E-05   2.30396408E-05  
  48               2.63311140E+00   9.46866648E+02   8.38261804E-01   1.60468089E-01   2.84712702E-10   6.79163780E-04   4.35932872E-04   5.80537094E-05   5.69558653E-05   2.31369562E-05  
  49               3.09888840E+00   9.87165541E+02   8.38261192E-01   1.60467202E-01   8.29961557E-10   6.79168095E-04   4.35935641E-04   5.80547026E-05   5.69562422E-05   2.34944272E-05  
  50               3.63809119E+00   1.02191636E+03   8.38260445E-01   1.60466340E-01   1.92364370E-09   6.79185269E-04   4.35946657E-04   5.80597406E-05   5.69576986E-05   2.42866087E-05  
  51               4.26181680E+00   1.06509673E+03   8.38262066E-01   1.60464712E-01   5.13766835E-09   6.79181181E-04   4.35943968E-04   5.80759999E-05   5.69573788E-05   2.42862593E-05  
  52               4.98267362E+00   1.10233524E+03   8.38263996E-01   1.60462705E-01   1.11112997E-08   6.79175892E-04   4.35939876E-04   5.81575497E-05   5.69570297E-05   2.42858051E-05  
  53               5.81442850E+00   1.14756818E+03   8.38267940E-01   1.60458441E-01   2.68281968E-08   6.79161379E-04   4.35925576E-04   5.84880015E-05   5.69563928E-05   2.42848435E-05  
  54               6.77301839E+00   1.18650471E+03   8.38271788E-01   1.60453397E-01   5.35501065E-08   6.79104025E-04   4.35849272E-04   5.97820257E-05   5.69560998E-05   2.42836485E-05  
  55               7.87745011E+00   1.23333863E+03   8.38277860E-01   1.60443822E-01   1.17317631E-07   6.78809282E-04   4.35443382E-04   6.38976607E-05   5.69563738E-05   2.42813574E-05  
  56               9.15264246E+00   1.27385936E+03   8.38281129E-01   1.60433654E-01   2.17771579E-07   6.77240722E-04   4.33309956E-04   7.43593824E-05   5.69593158E-05   2.42787302E-05  
  57               1.06298162E+01   1.32251341E+03   8.38288811E-01   1.60417741E-01   4.39685910E-07   6.71192598E-04   4.25368930E-04   9.62893986E-05   5.69649751E-05   2.42742996E-05  
  58               1.23524414E+01   1.36468721E+03   8.38308537E-01   1.60406714E-01   7.65588839E-07   6.55236919E-04   4.06677076E-04   1.21829868E-04   5.69673413E-05   2.42700896E-05  
  59               1.43856021E+01   1.41491397E+03   8.38348400E-01   1.60393744E-01   1.43098831E-06   6.25009594E-04   3.74123161E-04   1.56931686E-04   5.69657367E-05   2.42633356E-05  
  60               1.67953514E+01   1.45819586E+03   8.38381569E-01   1.60385461E-01   2.33349597E-06   5.99137871E-04   3.48062134E-04   1.82828731E-04   5.69626903E-05   2.42554242E-05  
  61               1.96521134E+01   1.50938314E+03   8.38422775E-01   1.60374566E-01   4.04474241E-06   5.66645474E-04   3.15037952E-04   2.15836913E-04   5.69588540E-05   2.42376983E-05  
  62               2.30000277E+01   1.55316564E+03   8.38444325E-01   1.60367121E-01   6.19677304E-06   5.46378903E-04   2.94153890E-04   2.36641824E-04   5.69548945E-05   2.42066301E-05  
  63               2.68583737E+01   1.60509759E+03   8.38473571E-01   1.60357594E-01   1.00805531E-05   5.22300742E-04   2.65727549E-04   2.64972337E-04   5.69506703E-05   2.39330139E-05  
  64               3.12187870E+01   1.64978854E+03   8.38476848E-01   1.60349054E-01   1.47734222E-05   5.05631824E-04   2.48677678E-04   2.81923590E-04   5.69258488E-05   2.39137454E-05  
  65               3.60537802E+01   1.70331608E+03   8.38488129E-01   1.60339313E-01   2.30493640E-05   4.95860895E-04   2.20750402E-04   3.09718955E-04   5.69000405E-05   2.28634364E-05  
  66               4.13242947E+01   1.75056046E+03   8.38494109E-01   1.60332378E-01   3.31054061E-05   4.81354303E-04   2.04132726E-04   3.26204691E-04   5.68111239E-05   2.28082848E-05  
  67               4.69265506E+01   1.80803288E+03   8.38489170E-01   1.60320427E-01   5.08920516E-05   4.65420269E-04   1.78716164E-04   3.51430837E-04   5.67468751E-05   2.26031738E-05  
  68               5.25431419E+01   1.86349657E+03   8.38437749E-01   1.60303551E-01   7.52681067E-05   4.67629147E-04   1.52797070E-04   3.77145662E-04   5.66952117E-05   2.21150513E-05  
  69               5.78346701E+01   1.90914356E+03   8.38349946E-01   1.60287481E-01   1.01743862E-04   5.05192845E-04   1.28538826E-04   4.01262016E-04   5.66367824E-05   2.12960049E-05  
  70               6.26077238E+01   1.94980700E+03   8.38336776E-01   1.60281603E-01   1.31697981E-04   4.94304995E-04   1.17497998E-04   4.12145170E-04   5.65781330E-05   2.12647178E-05  
  71               6.79875892E+01   1.99027838E+03   8.38304103E-01   1.60273817E-01   1.67953070E-04   4.85499993E-04   1.08539623E-04   4.20923395E-04   5.64924540E-05   2.12359277E-05  
  72               7.25136796E+01   2.02438578E+03   8.38279503E-01   1.60268602E-01   2.04886469E-04   4.78378770E-04   1.01276304E-04   4.28030670E-04   5.64297695E-05   2.12069949E-05  
  73               7.60346685E+01   2.04782044E+03   8.38258390E-01   1.60265060E-01   2.33473276E-04   4.74421219E-04   9.72146477E-05   4.31975723E-04   5.63685023E-05   2.11890453E-05  
  74               8.01392443E+01   2.07628016E+03   8.38228564E-01   1.60260303E-01   2.73028687E-04   4.69431208E-04   9.20916765E-05   4.36952346E-04   5.63080066E-05   2.11622690E-05  
  75               8.48966477E+01   2.10564318E+03   8.38191995E-01   1.60255325E-01   3.18697327E-04   4.65260323E-04   8.77704992E-05   4.41109074E-04   5.62246751E-05   2.11361675E-05  
  76               9.03773477E+01   2.13995111E+03   8.38110101E-01   1.60242805E-01   3.80331904E-04   4.60380197E-04   8.27114690E-05   4.45946661E-04   5.61361136E-05   2.10990781E-05  
  77               9.44753239E+01   2.16292251E+03   8.38071359E-01   1.60238359E-01   4.26070894E-04   4.57774286E-04   7.99493891E-05   4.48561916E-04   5.60627869E-05   2.10755073E-05  
  78               9.74411253E+01   2.18055790E+03   8.38038727E-01   1.60234564E-01   4.64717622E-04   4.55550887E-04   7.76336756E-05   4.50763559E-04   5.60166807E-05   2.10539771E-05  
  79               1.00970014E+02   2.19912602E+03   8.38001717E-01   1.60230566E-01   5.07544662E-04   4.53714675E-04   7.56931221E-05   4.52574520E-04   5.59523738E-05   2.10330077E-05  
  80               1.05149033E+02   2.22217382E+03   8.37951311E-01   1.60225115E-01   5.65880295E-04   4.51227270E-04   7.30747010E-05   4.55029940E-04   5.58843119E-05   2.10028508E-05  
  81               1.10073275E+02   2.24670573E+03   8.37892585E-01   1.60219107E-01   6.32714476E-04   4.49103081E-04   7.07997215E-05   4.57117262E-04   5.57955853E-05   2.09714166E-05  
  82               1.15847351E+02   2.27585739E+03   8.37814780E-01   1.60211234E-01   7.20966477E-04   4.46513164E-04   6.80245756E-05   4.59661581E-04   5.56982969E-05   2.09292484E-05  
  83               1.22584667E+02   2.30694228E+03   8.37720622E-01   1.60201897E-01   8.24298650E-04   4.44285219E-04   6.55816835E-05   4.61835473E-04   5.55774709E-05   2.08833422E-05  
  84               1.30409323E+02   2.34251242E+03   8.37594497E-01   1.60190178E-01   9.57184798E-04   4.46972410E-04   6.22171721E-05   4.64909522E-04   5.54487318E-05   2.08485061E-05  
  85               1.39457873E+02   2.38024486E+03   8.37452425E-01   1.60176956E-01   1.11433633E-03   4.45045810E-04   5.98379599E-05   4.66917138E-04   5.52876353E-05   2.07842370E-05  
  86               1.49882027E+02   2.42228456E+03   8.37272339E-01   1.60160397E-01   1.31290401E-03   4.43060254E-04   5.73402607E-05   4.68970419E-04   5.51067116E-05   2.07051274E-05  
  87               1.61849291E+02   2.46646721E+03   8.37058300E-01   1.60141079E-01   1.54775111E-03   4.41504133E-04   5.52203577E-05   4.70573164E-04   5.48945665E-05   2.06171859E-05  
  88               1.75547740E+02   2.51468736E+03   8.36791538E-01   1.60117203E-01   1.83980835E-03   4.40025893E-04   5.31009949E-05   4.72078530E-04   5.46565530E-05   2.05120782E-05  
  89               1.91196599E+02   2.56490472E+03   8.36476775E-01   1.60089362E-01   2.18335235E-03   4.39022153E-04   5.13754160E-05   4.73090080E-04   5.43818267E-05   2.03963768E-05  
  90               2.09053114E+02   2.61891478E+03   8.36090440E-01   1.60055366E-01   2.60444285E-03   4.38206464E-04   4.97230221E-05   4.73898364E-04   5.40740727E-05   2.02616800E-05  
  91               2.29416860E+02   2.67479538E+03   8.35638601E-01   1.60015891E-01   3.09598722E-03   4.37910079E-04   4.84594424E-05   4.74180218E-04   5.37225152E-05   2.01154912E-05  
  92               2.52640844E+02   2.73424039E+03   8.35092536E-01   1.59968327E-01   3.68955598E-03   4.37908177E-04   4.73143119E-05   4.74168224E-04   5.33289684E-05   1.99496193E-05  
  93               2.79140098E+02   2.79550194E+03   8.34459918E-01   1.59913464E-01   4.37639095E-03   4.38478897E-04   4.65371769E-05   4.73599080E-04   5.28825797E-05   1.97723905E-05  
  94               3.09402392E+02   2.86014582E+03   8.33707130E-01   1.59848287E-01   5.19329381E-03   4.39459100E-04   4.59053029E-05   4.72648013E-04   5.23829147E-05   1.95761543E-05  
  95               3.43997304E+02   2.92658197E+03   8.32844472E-01   1.59773800E-01   6.12870512E-03   4.41089894E-04   4.56192219E-05   4.71093071E-04   5.18187566E-05   1.93699733E-05  
  96               3.83593997E+02   2.99639795E+03   8.31831084E-01   1.59686370E-01   7.22724525E-03   4.43245140E-04   4.54774759E-05   4.69074486E-04   5.11874498E-05   1.91459142E-05  
  97               4.28964354E+02   3.06784915E+03   8.30686834E-01   1.59587835E-01   8.46694359E-03   4.46167247E-04   4.56786224E-05   4.66367112E-04   5.04760538E-05   1.89151245E-05  
  98               4.80876288E+02   3.14237421E+03   8.29367538E-01   1.59474281E-01   9.89601290E-03   4.49740648E-04   4.60316318E-05   4.63092830E-04   4.96807503E-05   1.86697063E-05  
  99               5.40210092E+02   3.21812467E+03   8.27906153E-01   1.59348669E-01   1.14783018E-02   4.54165917E-04   4.67125542E-05   4.59051094E-04   4.87882057E-05   1.84218106E-05  
  100              6.07939952E+02   3.29663656E+03   8.26252182E-01   1.59206537E-01   1.32688855E-02   4.59318340E-04   4.75333820E-05   4.54348771E-04   4.77892531E-05   1.81622634E-05  
  101              6.84845023E+02   3.37568376E+03   8.24462147E-01   1.59052882E-01   1.52060627E-02   4.65336131E-04   4.86618958E-05   4.48815103E-04   4.66701140E-05   1.79049466E-05  
