# ATMO chemical composition profiles
# Chemical abundances given as mole fraction for the 8 most abundant species
# Model Level      Pressure [Ba]    Temperature [K]  H2               He               H2O              CH4              CO               H                N2               H2S             
  1                1.00000000E-05   1.10032668E+02   8.38280611E-01   1.60503415E-01   6.30571512E-04   3.89451478E-04   1.05243126E-04   6.54892673E-99   5.79220833E-05   2.29873361E-05  
  2                2.18018188E-04   1.41524640E+02   8.38276902E-01   1.60502705E-01   6.30570585E-04   3.89450905E-04   1.05242971E-04   1.10667798E-76   5.79219981E-05   2.29872344E-05  
  3                4.44177153E-04   1.64093952E+02   8.38227435E-01   1.60493234E-01   6.30551789E-04   3.89439297E-04   1.05239834E-04   8.01506176E-66   5.79202713E-05   2.29858779E-05  
  4                6.99346410E-04   1.79296865E+02   8.37681746E-01   1.60388752E-01   6.30541651E-04   3.89433035E-04   1.05238142E-04   4.62741334E-60   5.79193399E-05   2.29709140E-05  
  5                9.92022496E-04   1.90810421E+02   8.38280458E-01   1.60503386E-01   6.30678762E-04   3.89517718E-04   1.05261026E-04   2.56053310E-56   5.79319344E-05   2.29873319E-05  
  6                1.32997186E-03   2.00756605E+02   8.38279839E-01   1.60503267E-01   6.31070214E-04   3.89759485E-04   1.05326360E-04   1.95763630E-53   5.79678916E-05   2.29873149E-05  
  7                1.72184236E-03   2.09363815E+02   8.38279837E-01   1.60503267E-01   6.31071745E-04   3.89760431E-04   1.05326615E-04   3.63641865E-51   5.79680322E-05   2.29873149E-05  
  8                2.17720341E-03   2.17726758E+02   8.38279840E-01   1.60503267E-01   6.31069420E-04   3.89758995E-04   1.05326227E-04   3.91963215E-49   5.79678185E-05   2.29873150E-05  
  9                2.70679761E-03   2.25273933E+02   8.38279835E-01   1.60503266E-01   6.31072547E-04   3.89760925E-04   1.05326749E-04   1.96741458E-47   5.79681056E-05   2.29873148E-05  
  10               3.32287399E-03   2.32988837E+02   8.38279835E-01   1.60503266E-01   6.31072906E-04   3.89761147E-04   1.05326809E-04   8.30799211E-46   5.79681385E-05   2.29873148E-05  
  11               4.04010343E-03   2.40015615E+02   8.38279834E-01   1.60503266E-01   6.31073253E-04   3.89761362E-04   1.05326867E-04   2.01891016E-44   5.79681704E-05   2.29873148E-05  
  12               4.87557925E-03   2.47254569E+02   8.38279834E-01   1.60503266E-01   6.31073596E-04   3.89761574E-04   1.05326924E-04   4.47613168E-43   5.79682017E-05   2.29873148E-05  
  13               5.84905576E-03   2.54011311E+02   8.38279833E-01   1.60503266E-01   6.31073939E-04   3.89761786E-04   1.05326982E-04   6.83218817E-42   5.79682332E-05   2.29873148E-05  
  14               6.98356433E-03   2.61108439E+02   8.38279833E-01   1.60503266E-01   6.31074293E-04   3.89762004E-04   1.05327041E-04   1.03028552E-40   5.79682655E-05   2.29873147E-05  
  15               8.30592357E-03   2.67782971E+02   8.38279832E-01   1.60503266E-01   6.31074658E-04   3.89762230E-04   1.05327102E-04   1.15107766E-39   5.79682990E-05   2.29873147E-05  
  16               9.84726458E-03   2.74871709E+02   8.38279831E-01   1.60503266E-01   6.31075037E-04   3.89762464E-04   1.05327165E-04   1.31767788E-38   5.79683337E-05   2.29873147E-05  
  17               1.16435434E-02   2.81663157E+02   8.38279831E-01   1.60503266E-01   6.31075431E-04   3.89762707E-04   1.05327231E-04   1.20675399E-37   5.79683698E-05   2.29873147E-05  
  18               1.37366261E-02   2.88952903E+02   8.38279830E-01   1.60503265E-01   6.31075841E-04   3.89762960E-04   1.05327299E-04   1.16185997E-36   5.79684074E-05   2.29873147E-05  
  19               1.61754952E-02   2.95934645E+02   8.38279830E-01   1.60503265E-01   6.31076268E-04   3.89763224E-04   1.05327370E-04   9.10195487E-36   5.79684465E-05   2.29873146E-05  
  20               1.90169273E-02   3.03466107E+02   8.38279829E-01   1.60503265E-01   6.31076714E-04   3.89763499E-04   1.05327445E-04   7.56654218E-35   5.79684873E-05   2.29873146E-05  
  21               2.23264076E-02   3.10778573E+02   8.38279828E-01   1.60503265E-01   6.31077178E-04   3.89763786E-04   1.05327522E-04   5.33461899E-34   5.79685298E-05   2.29873146E-05  
  22               2.61795097E-02   3.18744038E+02   8.38279827E-01   1.60503264E-01   6.31077663E-04   3.89764086E-04   1.05327603E-04   4.06003612E-33   5.79685742E-05   2.29873145E-05  
  23               3.06637776E-02   3.26560067E+02   8.38279826E-01   1.60503264E-01   6.31078171E-04   3.89764400E-04   1.05327688E-04   2.69010657E-32   5.79686208E-05   2.29873145E-05  
  24               3.58801897E-02   3.35074071E+02   8.38279826E-01   1.60503263E-01   6.31078699E-04   3.89764725E-04   1.05327776E-04   1.91609596E-31   5.79686691E-05   2.29873144E-05  
  25               4.19445180E-02   3.43538829E+02   8.38279824E-01   1.60503262E-01   6.31079257E-04   3.89765070E-04   1.05327869E-04   1.22115551E-30   5.79687202E-05   2.29873142E-05  
  26               4.89904210E-02   3.52798025E+02   8.38279825E-01   1.60503260E-01   6.31079830E-04   3.89765424E-04   1.05327965E-04   8.39739968E-30   5.79687727E-05   2.29873139E-05  
  27               5.71735126E-02   3.62058469E+02   8.38279808E-01   1.60503254E-01   6.31080451E-04   3.89765808E-04   1.05328069E-04   5.21755151E-29   5.79688296E-05   2.29873131E-05  
  28               6.66734807E-02   3.72123466E+02   8.38279812E-01   1.60503249E-01   6.31081045E-04   3.89766174E-04   1.05328168E-04   3.43835754E-28   5.79688840E-05   2.29873123E-05  
  29               7.76952824E-02   3.82287982E+02   8.38279817E-01   1.60503242E-01   6.31082126E-04   3.89766842E-04   1.05328348E-04   2.08213383E-27   5.79689831E-05   2.29873113E-05  
  30               9.04708472E-02   3.93449606E+02   8.38279827E-01   1.60503231E-01   6.31082800E-04   3.89767259E-04   1.05328461E-04   1.35687335E-26   5.79690449E-05   2.29873097E-05  
  31               1.05260007E-01   4.04940485E+02   8.38279556E-01   1.60503156E-01   6.31083498E-04   3.89767690E-04   1.05328577E-04   8.37945637E-26   5.79691087E-05   2.29872991E-05  
  32               1.22356108E-01   4.17589187E+02   8.38279617E-01   1.60503094E-01   6.31083989E-04   3.89767993E-04   1.05328659E-04   5.55847508E-25   5.79691537E-05   2.29872902E-05  
  33               1.42090707E-01   4.30631558E+02   8.38279672E-01   1.60503036E-01   6.31084365E-04   3.89768226E-04   1.05328722E-04   3.47725946E-24   5.79691880E-05   2.29872818E-05  
  34               1.64846411E-01   4.44891004E+02   8.38279741E-01   1.60502925E-01   6.31093241E-04   3.89773708E-04   1.05330204E-04   2.28975554E-23   5.79700031E-05   2.29872660E-05  
  35               1.91045433E-01   4.59762746E+02   8.38279518E-01   1.60502690E-01   6.31093916E-04   3.89774124E-04   1.05330316E-04   1.44284132E-22   5.79700648E-05   2.29872323E-05  
  36               2.21148080E-01   4.76190770E+02   8.38276773E-01   1.60502124E-01   6.31095499E-04   3.89775102E-04   1.05330581E-04   9.68093299E-22   5.79702100E-05   2.29871512E-05  
  37               2.55652253E-01   4.93797724E+02   8.38277607E-01   1.60501293E-01   6.31094404E-04   3.89774426E-04   1.05330398E-04   6.47895969E-21   5.79701091E-05   2.29870321E-05  
  38               2.95079372E-01   5.13514440E+02   8.38278622E-01   1.60500276E-01   6.31095185E-04   3.89774908E-04   1.05330528E-04   4.68636932E-20   5.79701806E-05   2.29868865E-05  
  39               3.40020544E-01   5.34326847E+02   8.38280115E-01   1.60498696E-01   6.31141538E-04   3.89803536E-04   1.05338265E-04   3.23005804E-19   5.79744380E-05   2.29866603E-05  
  40               3.91114940E-01   5.58696867E+02   8.38282665E-01   1.60496152E-01   6.31138403E-04   3.89801601E-04   1.05337742E-04   2.59911243E-18   5.79741498E-05   2.29862959E-05  
  41               4.49164667E-01   5.80726951E+02   8.38285152E-01   1.60493672E-01   6.31135123E-04   3.89799575E-04   1.05337194E-04   1.45819610E-17   5.79738481E-05   2.29859407E-05  
  42               5.15059611E-01   6.06623834E+02   8.38288287E-01   1.60490546E-01   6.31130771E-04   3.89796887E-04   1.05336468E-04   9.50790261E-17   5.79734480E-05   2.29854929E-05  
  43               5.89752828E-01   6.29952704E+02   8.38290725E-01   1.60488114E-01   6.31127555E-04   3.89794901E-04   1.05335931E-04   4.46737922E-16   5.79731521E-05   2.29851447E-05  
  44               6.74392431E-01   6.57460309E+02   8.38293383E-01   1.60485462E-01   6.31124245E-04   3.89792856E-04   1.05335379E-04   2.42400476E-15   5.79728475E-05   2.29847648E-05  
  45               7.70286191E-01   6.82185786E+02   8.38295215E-01   1.60483628E-01   6.31122540E-04   3.89791804E-04   1.05335094E-04   9.77111654E-15   5.79726903E-05   2.29845022E-05  
  46               8.78799145E-01   7.11423099E+02   8.38297099E-01   1.60481733E-01   6.31121186E-04   3.89790968E-04   1.05334869E-04   4.51831188E-14   5.79725653E-05   2.29842307E-05  
  47               1.00144028E+00   7.37595694E+02   8.38298290E-01   1.60480486E-01   6.31121388E-04   3.89791092E-04   1.05334902E-04   1.58980589E-13   5.79725830E-05   2.29840521E-05  
  48               1.13979372E+00   7.68587177E+02   8.38299389E-01   1.60479185E-01   6.31122238E-04   3.89791617E-04   1.05335044E-04   6.36322044E-13   5.79726602E-05   2.29838656E-05  
  49               1.29581934E+00   7.96207673E+02   8.38299975E-01   1.60478334E-01   6.31128052E-04   3.89795208E-04   1.05336015E-04   1.98031757E-12   5.79731933E-05   2.29837434E-05  
  50               1.47177807E+00   8.29037387E+02   8.38300811E-01   1.60477483E-01   6.31131146E-04   3.89797119E-04   1.05336532E-04   6.97540964E-12   5.79734764E-05   2.29836206E-05  
  51               1.66995379E+00   8.58175021E+02   8.38301320E-01   1.60476932E-01   6.31137252E-04   3.89800891E-04   1.05337553E-04   1.94801135E-11   5.79740361E-05   2.29895253E-05  
  52               1.89274718E+00   8.92848971E+02   8.38301857E-01   1.60476300E-01   6.31140395E-04   3.89802832E-04   1.05338087E-04   6.10919611E-11   5.79743234E-05   2.30106614E-05  
  53               2.14276584E+00   9.23421623E+02   8.38302065E-01   1.60475808E-01   6.31144317E-04   3.89805254E-04   1.05338794E-04   1.54329007E-10   5.79746822E-05   2.30638445E-05  
  54               2.42283216E+00   9.59867650E+02   8.38302068E-01   1.60475046E-01   6.31149647E-04   3.89808547E-04   1.05339925E-04   4.34854869E-10   5.79751704E-05   2.32466961E-05  
  55               2.73643998E+00   9.91811308E+02   8.38301491E-01   1.60474177E-01   6.31159537E-04   3.89814653E-04   1.05342736E-04   1.00265669E-09   5.79760775E-05   2.36518277E-05  
  56               3.08723597E+00   1.03004707E+03   8.38301699E-01   1.60472678E-01   6.31175386E-04   3.89824431E-04   1.05350062E-04   2.56753736E-09   5.79775333E-05   2.42875415E-05  
  57               3.47908950E+00   1.06333250E+03   8.38303489E-01   1.60470874E-01   6.31175344E-04   3.89824297E-04   1.05369752E-04   5.45431166E-09   5.79775406E-05   2.42871771E-05  
  58               3.91654731E+00   1.10333721E+03   8.38307202E-01   1.60467098E-01   6.31170757E-04   3.89820764E-04   1.05439836E-04   1.28130303E-08   5.79772004E-05   2.42864178E-05  
  59               4.40482758E+00   1.13797315E+03   8.38311705E-01   1.60462351E-01   6.31158877E-04   3.89808352E-04   1.05696502E-04   2.53110842E-08   5.79767085E-05   2.42854404E-05  
  60               4.94995960E+00   1.17985511E+03   8.38320125E-01   1.60453193E-01   6.31114338E-04   3.89753909E-04   1.06499187E-04   5.51421532E-08   5.79758048E-05   2.42835465E-05  
  61               5.55904418E+00   1.21507055E+03   8.38327937E-01   1.60443419E-01   6.30917863E-04   3.89483563E-04   1.08868992E-04   1.00646842E-07   5.79754477E-05   2.42814271E-05  
  62               6.24186782E+00   1.25287540E+03   8.38337326E-01   1.60429945E-01   6.30146472E-04   3.88412564E-04   1.14685316E-04   1.85158898E-07   5.79758696E-05   2.42783802E-05  
  63               7.00949327E+00   1.28564042E+03   8.38344095E-01   1.60417651E-01   6.27538685E-04   3.84850608E-04   1.26227186E-04   3.02004082E-07   5.79782928E-05   2.42753257E-05  
  64               7.87723367E+00   1.32217586E+03   8.38355444E-01   1.60402637E-01   6.20668944E-04   3.75779895E-04   1.45571613E-04   5.08134217E-07   5.79816218E-05   2.42711999E-05  
  65               8.86734554E+00   1.35445975E+03   8.38372701E-01   1.60392222E-01   6.07111295E-04   3.59339855E-04   1.68397162E-04   7.78424124E-07   5.79840012E-05   2.42674532E-05  
  66               1.00083542E+01   1.39151478E+03   8.38402323E-01   1.60381002E-01   5.85168834E-04   3.34581886E-04   1.96145450E-04   1.24499871E-06   5.79835066E-05   2.42622220E-05  
  67               1.13302773E+01   1.42512731E+03   8.38431028E-01   1.60373731E-01   5.62812815E-04   3.11756770E-04   2.19051062E-04   1.84873822E-06   5.79813256E-05   2.42565586E-05  
  68               1.28610387E+01   1.46448088E+03   8.38465743E-01   1.60364573E-01   5.36069375E-04   2.84330191E-04   2.46533374E-04   2.88745608E-06   5.79786463E-05   2.42376718E-05  
  69               1.46216257E+01   1.50118344E+03   8.38491307E-01   1.60357444E-01   5.14757261E-04   2.62939743E-04   2.67866631E-04   4.25225335E-06   5.79761725E-05   2.42300027E-05  
  70               1.66337154E+01   1.54427053E+03   8.38522606E-01   1.60348689E-01   4.89861618E-04   2.36374477E-04   2.94361763E-04   6.59124216E-06   5.79737367E-05   2.41157481E-05  
  71               1.89147777E+01   1.58516436E+03   8.38543304E-01   1.60341256E-01   4.69556309E-04   2.15851506E-04   3.14821069E-04   9.71573511E-06   5.79713426E-05   2.41004838E-05  
  72               2.14641840E+01   1.63263405E+03   8.38554326E-01   1.60330034E-01   4.48035049E-04   1.90522743E-04   3.40049774E-04   1.49920175E-05   5.79700642E-05   2.38369681E-05  
  73               2.42410612E+01   1.67807879E+03   8.38561206E-01   1.60321804E-01   4.42313194E-04   1.67112912E-04   3.63368310E-04   2.21214811E-05   5.79827878E-05   2.26962581E-05  
  74               2.71952163E+01   1.72994590E+03   8.38573798E-01   1.60312571E-01   4.21832036E-04   1.43950995E-04   3.86412007E-04   3.39214251E-05   5.79707067E-05   2.26013759E-05  
  75               3.02353401E+01   1.77953994E+03   8.38566195E-01   1.60302834E-01   4.10702978E-04   1.23825913E-04   4.06413864E-04   4.98370698E-05   5.79527356E-05   2.23898372E-05  
  76               3.32833772E+01   1.82470985E+03   8.38524859E-01   1.60290797E-01   4.14451717E-04   1.06139964E-04   4.23980256E-04   6.93373245E-05   5.79253939E-05   2.19818142E-05  
  77               3.61882547E+01   1.86549374E+03   8.38459443E-01   1.60278221E-01   4.35423012E-04   8.95126088E-05   4.40510665E-04   9.21268231E-05   5.79129883E-05   2.13968170E-05  
  78               3.88756954E+01   1.90021934E+03   8.38405288E-01   1.60269445E-01   4.54530471E-04   7.77884536E-05   4.52159439E-04   1.16057618E-04   5.78789397E-05   2.09988222E-05  
  79               4.13152498E+01   1.93084161E+03   8.38389785E-01   1.60265551E-01   4.48660339E-04   7.18507459E-05   4.58014755E-04   1.41323902E-04   5.78455497E-05   2.09812966E-05  
  80               4.40078855E+01   1.96218576E+03   8.38358344E-01   1.60259493E-01   4.43480973E-04   6.66066977E-05   4.63161582E-04   1.71570840E-04   5.78033666E-05   2.09630607E-05  
  81               4.61835936E+01   1.98706298E+03   8.38337832E-01   1.60256067E-01   4.39664372E-04   6.27298154E-05   4.66963027E-04   1.99314058E-04   5.77720996E-05   2.09466952E-05  
  82               4.78219551E+01   2.00449224E+03   8.38321228E-01   1.60253614E-01   4.37319468E-04   6.03467253E-05   4.69290088E-04   2.20705630E-04   5.77438127E-05   2.09353856E-05  
  83               4.96778867E+01   2.02448792E+03   8.38299868E-01   1.60250609E-01   4.34665749E-04   5.76433775E-05   4.71927588E-04   2.47709351E-04   5.77150266E-05   2.09204255E-05  
  84               5.17708489E+01   2.04545535E+03   8.38274606E-01   1.60247366E-01   4.32237369E-04   5.51590778E-05   4.74338584E-04   2.78617725E-04   5.76785605E-05   2.09047797E-05  
  85               5.41219973E+01   2.06901806E+03   8.38242521E-01   1.60243433E-01   4.29593629E-04   5.24486053E-05   4.76963875E-04   3.17243209E-04   5.76399496E-05   2.08846323E-05  
  86               5.67525154E+01   2.09354149E+03   8.38173215E-01   1.60233094E-01   4.27216917E-04   4.99912531E-05   4.79306482E-04   3.61606307E-04   5.75904030E-05   2.08622892E-05  
  87               5.86955592E+01   2.11168625E+03   8.38142157E-01   1.60229689E-01   4.25484491E-04   4.82133937E-05   4.81012101E-04   3.97777977E-04   5.75580846E-05   2.08440952E-05  
  88               6.00954865E+01   2.12380697E+03   8.38119961E-01   1.60227334E-01   4.24518232E-04   4.71803441E-05   4.81993992E-04   4.23254819E-04   5.75314465E-05   2.08323146E-05  
  89               6.17064136E+01   2.13826595E+03   8.38091769E-01   1.60224348E-01   4.23267302E-04   4.58913131E-05   4.83221737E-04   4.55677117E-04   5.75038313E-05   2.08163067E-05  
  90               6.35544462E+01   2.15364646E+03   8.38059900E-01   1.60221091E-01   4.22121740E-04   4.47027071E-05   4.84341244E-04   4.91936880E-04   5.74689389E-05   2.07994713E-05  
  91               6.56678210E+01   2.17156096E+03   8.38019847E-01   1.60217028E-01   4.20759934E-04   4.32904796E-05   4.85671713E-04   5.37405865E-04   5.74315469E-05   2.07777017E-05  
  92               6.80767948E+01   2.19058783E+03   8.37974142E-01   1.60212529E-01   4.19516094E-04   4.19893538E-05   4.86880434E-04   5.88840646E-04   5.73857148E-05   2.07542446E-05  
  93               7.08139334E+01   2.21225415E+03   8.37917424E-01   1.60207001E-01   4.18110831E-04   4.05174727E-05   4.88244025E-04   6.52480835E-04   5.73358527E-05   2.07248049E-05  
  94               7.39139115E+01   2.23518238E+03   8.37852284E-01   1.60200802E-01   4.16838971E-04   3.91695318E-05   4.89469403E-04   7.25074968E-04   5.72763182E-05   2.06925545E-05  
  95               7.74141474E+01   2.26073161E+03   8.37772533E-01   1.60193291E-01   4.15473833E-04   3.77162590E-05   4.90780255E-04   8.13687088E-04   5.72108599E-05   2.06531827E-05  
  96               8.13544522E+01   2.28765852E+03   8.37680539E-01   1.60184782E-01   4.14253678E-04   3.63949291E-05   4.91940214E-04   9.15393225E-04   5.71344756E-05   2.06095946E-05  
  97               8.57782963E+01   2.31702666E+03   8.37567711E-01   1.60174246E-01   4.13016682E-04   3.50417184E-05   4.93106136E-04   1.03761428E-03   5.70496939E-05   2.05578404E-05  
  98               9.07313028E+01   2.34789232E+03   8.37431844E-01   1.60162368E-01   4.17442935E-04   3.33971122E-05   4.94568327E-04   1.17863865E-03   5.69591614E-05   2.05279925E-05  
  99               9.62653823E+01   2.38083517E+03   8.37280033E-01   1.60148747E-01   4.16538878E-04   3.22190037E-05   4.95508335E-04   1.34492915E-03   5.68518543E-05   2.04619083E-05  
  100              1.02436566E+02   2.41546758E+03   8.37103466E-01   1.60133028E-01   4.15753909E-04   3.11436096E-05   4.96312870E-04   1.53795858E-03   5.67313730E-05   2.03876528E-05  
  101              1.09308295E+02   2.45159218E+03   8.36899909E-01   1.60115026E-01   4.15112824E-04   3.01931101E-05   4.96956001E-04   1.76012024E-03   5.65961608E-05   2.03053173E-05  
