# ATMO chemical composition profiles
# Chemical abundances given as mole fraction for the 8 most abundant species
# Model Level      Pressure [Ba]    Temperature [K]  H2               He               H2O              CH4              CO               N2               H2S              H2O(s)          
  1                1.00000000E-05   4.17850050E+01   8.38230142E-01   1.60493749E-01   6.94384747E-04   4.51398000E-04   3.89685816E-05   5.72799746E-05   2.29868614E-05   0.00000000E+00  
  2                7.44206092E-05   5.22537136E+01   8.38230141E-01   1.60493749E-01   6.94385124E-04   4.51398245E-04   3.89686027E-05   5.72800060E-05   2.29868614E-05   0.00000000E+00  
  3                1.48816595E-04   5.85829116E+01   8.38230141E-01   1.60493749E-01   6.94385339E-04   4.51398384E-04   3.89686148E-05   5.72800240E-05   2.29868614E-05   0.00000000E+00  
  4                2.34732732E-04   6.31349297E+01   8.38230141E-01   1.60493749E-01   6.94385484E-04   4.51398479E-04   3.89686229E-05   5.72800362E-05   2.29868614E-05   0.00000000E+00  
  5                3.33943904E-04   6.71206503E+01   8.38230141E-01   1.60493749E-01   6.94385601E-04   4.51398555E-04   3.89686295E-05   5.72800460E-05   2.29868614E-05   0.00000000E+00  
  6                4.48486466E-04   7.07151630E+01   8.38230140E-01   1.60493748E-01   6.94385702E-04   4.51398620E-04   3.89686351E-05   5.72800544E-05   2.29868614E-05   0.00000000E+00  
  7                5.80231295E-04   7.42742973E+01   8.38230140E-01   1.60493748E-01   6.94385793E-04   4.51398680E-04   3.89686403E-05   5.72800621E-05   2.29868614E-05   0.00000000E+00  
  8                7.30026610E-04   7.77617655E+01   8.38230140E-01   1.60493748E-01   6.94385879E-04   4.51398736E-04   3.89686451E-05   5.72800693E-05   2.29868614E-05   0.00000000E+00  
  9                8.99222797E-04   8.13092341E+01   8.38230140E-01   1.60493748E-01   6.94385964E-04   4.51398791E-04   3.89686499E-05   5.72800764E-05   2.29868614E-05   0.00000000E+00  
  10               1.08984883E-03   8.47734540E+01   8.38230140E-01   1.60493748E-01   6.94386046E-04   4.51398844E-04   3.89686545E-05   5.72800833E-05   2.29868614E-05   0.00000000E+00  
  11               1.30469988E-03   8.83776477E+01   8.38230140E-01   1.60493748E-01   6.94386119E-04   4.51398891E-04   3.89686586E-05   5.72800894E-05   2.29868614E-05   0.00000000E+00  
  12               1.54732744E-03   9.19742304E+01   8.38230140E-01   1.60493748E-01   6.94386174E-04   4.51398927E-04   3.89686617E-05   5.72800940E-05   2.29868614E-05   0.00000000E+00  
  13               1.82174612E-03   9.56822604E+01   8.38230140E-01   1.60493748E-01   6.94386212E-04   4.51398952E-04   3.89686638E-05   5.72800972E-05   2.29868614E-05   0.00000000E+00  
  14               2.13250076E-03   9.94155665E+01   8.38229727E-01   1.60493669E-01   6.94386237E-04   4.51398968E-04   3.89686652E-05   5.72800993E-05   2.29868500E-05   2.49888588E-16  
  15               2.48463538E-03   1.03441390E+02   8.38228390E-01   1.60493413E-01   6.94386598E-04   4.51399203E-04   3.89686855E-05   5.72801291E-05   2.29868134E-05   2.39885123E-15  
  16               2.88366889E-03   1.07791589E+02   8.38221829E-01   1.60492157E-01   6.94388067E-04   4.51400158E-04   3.89687679E-05   5.72802503E-05   2.29866335E-05   2.91610068E-14  
  17               3.33555288E-03   1.13044546E+02   8.38138723E-01   1.60476245E-01   6.94394362E-04   4.51404250E-04   3.89691211E-05   5.72807696E-05   2.29843545E-05   2.35018489E-13  
  18               3.84753026E-03   1.18038711E+02   8.38230017E-01   1.60493725E-01   6.94467426E-04   4.51451747E-04   3.89732215E-05   5.72867967E-05   2.29868580E-05   2.07572440E-12  
  19               4.42806628E-03   1.23594833E+02   8.38230023E-01   1.60493726E-01   6.94463174E-04   4.51448983E-04   3.89729829E-05   5.72864460E-05   2.29868582E-05   1.37154962E-11  
  20               5.08646768E-03   1.29011631E+02   8.38230121E-01   1.60493745E-01   6.94398797E-04   4.51407133E-04   3.89693701E-05   5.72811356E-05   2.29868608E-05   9.54953926E-11  
  21               5.83342103E-03   1.34949776E+02   8.38230011E-01   1.60493724E-01   6.94471396E-04   4.51454327E-04   3.89734443E-05   5.72871243E-05   2.29868578E-05   5.40093128E-10  
  22               6.68114350E-03   1.40884389E+02   8.38230008E-01   1.60493723E-01   6.94471417E-04   4.51454341E-04   3.89734455E-05   5.72871261E-05   2.29868578E-05   3.06879967E-09  
  23               7.64358255E-03   1.47269693E+02   8.38229999E-01   1.60493721E-01   6.94471441E-04   4.51454357E-04   3.89734468E-05   5.72871281E-05   2.29868575E-05   1.48617405E-08  
  24               8.73645280E-03   1.53731414E+02   8.38229952E-01   1.60493712E-01   6.94471399E-04   4.51454330E-04   3.89734445E-05   5.72871247E-05   2.29868562E-05   7.09130084E-08  
  25               9.97779471E-03   1.60619368E+02   8.38229765E-01   1.60493677E-01   6.94471062E-04   4.51454110E-04   3.89734256E-05   5.72870970E-05   2.29868511E-05   2.94231061E-07  
  26               1.13884219E-02   1.67607978E+02   8.38228998E-01   1.60493530E-01   6.94471844E-04   4.51454619E-04   3.89734694E-05   5.72871616E-05   2.29868301E-05   1.20614107E-06  
  27               1.29917355E-02   1.75048311E+02   8.38226401E-01   1.60493032E-01   6.94472717E-04   4.51455186E-04   3.89735184E-05   5.72872336E-05   2.29867588E-05   4.29899808E-06  
  28               1.48139560E-02   1.82559117E+02   8.38217098E-01   1.60491251E-01   6.94475596E-04   4.51457058E-04   3.89736800E-05   5.72874712E-05   2.29865037E-05   1.53787378E-05  
  29               1.68839611E-02   1.90580940E+02   8.38190089E-01   1.60486080E-01   6.94485945E-04   4.51463785E-04   3.89742608E-05   5.72883250E-05   2.29857630E-05   4.75415747E-05  
  30               1.92339387E-02   1.98620455E+02   8.38103537E-01   1.60469508E-01   6.94516654E-04   4.51483748E-04   3.89759841E-05   5.72908583E-05   2.29833895E-05   1.50612425E-04  
  31               2.19007591E-02   2.07249015E+02   8.37758045E-01   1.60403358E-01   6.94615948E-04   4.51548296E-04   3.89815565E-05   5.72990492E-05   2.29739151E-05   5.62087598E-04  
  32               2.49255783E-02   2.15770256E+02   8.38229244E-01   1.60493577E-01   6.94979656E-04   4.51784731E-04   3.90019676E-05   5.73290518E-05   2.29868368E-05   0.00000000E+00  
  33               2.83538339E-02   2.25024405E+02   8.38229322E-01   1.60493592E-01   6.94928004E-04   4.51751154E-04   3.89990690E-05   5.73247912E-05   2.29868389E-05   0.00000000E+00  
  34               3.22424722E-02   2.32207324E+02   8.38229798E-01   1.60493683E-01   6.94612516E-04   4.51546065E-04   3.89813639E-05   5.72987666E-05   2.29868520E-05   0.00000000E+00  
  35               3.66574559E-02   2.40564132E+02   8.38229184E-01   1.60493565E-01   6.95019522E-04   4.51810647E-04   3.90042049E-05   5.73323409E-05   2.29868352E-05   0.00000000E+00  
  36               4.16722751E-02   2.47698605E+02   8.38229184E-01   1.60493565E-01   6.95019050E-04   4.51810340E-04   3.90041784E-05   5.73323022E-05   2.29868352E-05   0.00000000E+00  
  37               4.73664319E-02   2.56492015E+02   8.38229183E-01   1.60493565E-01   6.95019889E-04   4.51810886E-04   3.90042255E-05   5.73323716E-05   2.29868351E-05   0.00000000E+00  
  38               5.38291487E-02   2.64428204E+02   8.38229188E-01   1.60493566E-01   6.95016433E-04   4.51808639E-04   3.90040316E-05   5.73320868E-05   2.29868353E-05   0.00000000E+00  
  39               6.11550146E-02   2.74501008E+02   8.38229183E-01   1.60493565E-01   6.95020281E-04   4.51811141E-04   3.90042475E-05   5.73324045E-05   2.29868351E-05   0.00000000E+00  
  40               6.94344552E-02   2.85513260E+02   8.38229182E-01   1.60493565E-01   6.95020455E-04   4.51811254E-04   3.90042573E-05   5.73324191E-05   2.29868351E-05   0.00000000E+00  
  41               7.87874450E-02   2.96700110E+02   8.38229182E-01   1.60493565E-01   6.95020689E-04   4.51811406E-04   3.90042704E-05   5.73324387E-05   2.29868351E-05   0.00000000E+00  
  42               8.93512473E-02   3.08371016E+02   8.38229181E-01   1.60493565E-01   6.95020916E-04   4.51811553E-04   3.90042832E-05   5.73324578E-05   2.29868351E-05   0.00000000E+00  
  43               1.01278808E-01   3.20301101E+02   8.38229181E-01   1.60493565E-01   6.95021165E-04   4.51811715E-04   3.90042972E-05   5.73324787E-05   2.29868351E-05   0.00000000E+00  
  44               1.14742228E-01   3.32697905E+02   8.38229180E-01   1.60493564E-01   6.95021439E-04   4.51811893E-04   3.90043125E-05   5.73325017E-05   2.29868350E-05   0.00000000E+00  
  45               1.29933302E-01   3.45425807E+02   8.38229179E-01   1.60493564E-01   6.95021741E-04   4.51812089E-04   3.90043295E-05   5.73325270E-05   2.29868350E-05   0.00000000E+00  
  46               1.47070009E-01   3.58617745E+02   8.38229157E-01   1.60493559E-01   6.95022069E-04   4.51812303E-04   3.90043479E-05   5.73325546E-05   2.29868343E-05   0.00000000E+00  
  47               1.66399411E-01   3.72208340E+02   8.38229160E-01   1.60493556E-01   6.95022424E-04   4.51812533E-04   3.90043678E-05   5.73325844E-05   2.29868339E-05   0.00000000E+00  
  48               1.88190599E-01   3.86269340E+02   8.38229161E-01   1.60493554E-01   6.95022807E-04   4.51812783E-04   3.90043894E-05   5.73326166E-05   2.29868335E-05   0.00000000E+00  
  49               2.12735215E-01   4.00779369E+02   8.38229165E-01   1.60493549E-01   6.95023401E-04   4.51813169E-04   3.90044227E-05   5.73326662E-05   2.29868328E-05   0.00000000E+00  
  50               2.40353699E-01   4.15755663E+02   8.38228728E-01   1.60493453E-01   6.95023853E-04   4.51813463E-04   3.90044481E-05   5.73327043E-05   2.29868191E-05   0.00000000E+00  
  51               2.71396781E-01   4.31211745E+02   8.38228790E-01   1.60493389E-01   6.95023584E-04   4.51813288E-04   3.90044330E-05   5.73326828E-05   2.29868100E-05   0.00000000E+00  
  52               3.06270289E-01   4.47133266E+02   8.38228793E-01   1.60493342E-01   6.95033277E-04   4.51819589E-04   3.90049770E-05   5.73334832E-05   2.29868031E-05   0.00000000E+00  
  53               3.45416563E-01   4.63575140E+02   8.38228473E-01   1.60493205E-01   6.95033822E-04   4.51819943E-04   3.90050076E-05   5.73335291E-05   2.29867835E-05   0.00000000E+00  
  54               3.89313663E-01   4.80488020E+02   8.38228327E-01   1.60493348E-01   6.95035535E-04   4.51821057E-04   3.90051037E-05   5.73336714E-05   2.29868040E-05   0.00000000E+00  
  55               4.38484395E-01   4.97948799E+02   8.38225977E-01   1.60492582E-01   6.95035650E-04   4.51821132E-04   3.90051102E-05   5.73336819E-05   2.29866944E-05   0.00000000E+00  
  56               4.93513074E-01   5.15882452E+02   8.38226667E-01   1.60491887E-01   6.95038370E-04   4.51822900E-04   3.90052629E-05   5.73339074E-05   2.29865948E-05   0.00000000E+00  
  57               5.55072174E-01   5.34395914E+02   8.38227378E-01   1.60491181E-01   6.95035823E-04   4.51821244E-04   3.90051200E-05   5.73336986E-05   2.29864936E-05   0.00000000E+00  
  58               6.23939077E-01   5.53406586E+02   8.38228340E-01   1.60490127E-01   6.95087154E-04   4.51854613E-04   3.90080006E-05   5.73379343E-05   2.29863427E-05   0.00000000E+00  
  59               7.00934721E-01   5.73049915E+02   8.38229765E-01   1.60488705E-01   6.95085510E-04   4.51853544E-04   3.90079084E-05   5.73378001E-05   2.29861390E-05   0.00000000E+00  
  60               7.86923093E-01   5.93194764E+02   8.38231534E-01   1.60486939E-01   6.95083655E-04   4.51852339E-04   3.90078044E-05   5.73376488E-05   2.29858862E-05   0.00000000E+00  
  61               8.82837879E-01   6.13989523E+02   8.38233574E-01   1.60484905E-01   6.95080716E-04   4.51850428E-04   3.90076395E-05   5.73374081E-05   2.29855948E-05   0.00000000E+00  
  62               9.89752321E-01   6.35269451E+02   8.38235725E-01   1.60482759E-01   6.95077541E-04   4.51848364E-04   3.90074613E-05   5.73371481E-05   2.29852875E-05   0.00000000E+00  
  63               1.10895958E+00   6.57257480E+02   8.38237886E-01   1.60480605E-01   6.95074265E-04   4.51846235E-04   3.90072775E-05   5.73368799E-05   2.29849789E-05   0.00000000E+00  
  64               1.24183934E+00   6.79749544E+02   8.38239919E-01   1.60478575E-01   6.95071361E-04   4.51844346E-04   3.90071145E-05   5.73366425E-05   2.29846882E-05   0.00000000E+00  
  65               1.38980710E+00   7.03001236E+02   8.38241792E-01   1.60476701E-01   6.95068811E-04   4.51842689E-04   3.90069715E-05   5.73364347E-05   2.29844198E-05   0.00000000E+00  
  66               1.55432022E+00   7.26707692E+02   8.38243409E-01   1.60475045E-01   6.95066961E-04   4.51841486E-04   3.90068677E-05   5.73362849E-05   2.29841825E-05   0.00000000E+00  
  67               1.73688530E+00   7.51176937E+02   8.38244860E-01   1.60473586E-01   6.95065735E-04   4.51840689E-04   3.90067990E-05   5.73361869E-05   2.29839735E-05   0.00000000E+00  
  68               1.93932096E+00   7.76024253E+02   8.38245874E-01   1.60472303E-01   6.95065416E-04   4.51840482E-04   3.90067812E-05   5.73361642E-05   2.29837896E-05   0.00000000E+00  
  69               2.16400726E+00   8.01738549E+02   8.38246950E-01   1.60471222E-01   6.95066098E-04   4.51840925E-04   3.90068195E-05   5.73362245E-05   2.29836345E-05   0.00000000E+00  
  70               2.41342619E+00   8.27833912E+02   8.38247681E-01   1.60470282E-01   6.95070995E-04   4.51844109E-04   3.90070948E-05   5.73366330E-05   2.29834993E-05   0.00000000E+00  
  71               2.69005381E+00   8.54903427E+02   8.38248454E-01   1.60469486E-01   6.95076765E-04   4.51847860E-04   3.90074201E-05   5.73371141E-05   2.29843947E-05   0.00000000E+00  
  72               2.99636295E+00   8.82229271E+02   8.38249087E-01   1.60468816E-01   6.95078597E-04   4.51849051E-04   3.90075300E-05   5.73372708E-05   2.29926109E-05   0.00000000E+00  
  73               3.33479185E+00   9.10513866E+02   8.38249601E-01   1.60468208E-01   6.95080859E-04   4.51850521E-04   3.90076874E-05   5.73374634E-05   2.30137232E-05   0.00000000E+00  
  74               3.70791817E+00   9.38929932E+02   8.38249925E-01   1.60467655E-01   6.95083725E-04   4.51852384E-04   3.90079742E-05   5.73377062E-05   2.30655961E-05   0.00000000E+00  
  75               4.11941149E+00   9.68364637E+02   8.38249972E-01   1.60467071E-01   6.95087782E-04   4.51855022E-04   3.90086865E-05   5.73380475E-05   2.31925642E-05   0.00000000E+00  
  76               4.57325647E+00   9.97897390E+02   8.38249294E-01   1.60466364E-01   6.95094337E-04   4.51859282E-04   3.90108284E-05   5.73385954E-05   2.34774894E-05   0.00000000E+00  
  77               5.07346324E+00   1.02849265E+03   8.38248413E-01   1.60465587E-01   6.95117403E-04   4.51874267E-04   3.90182062E-05   5.73405063E-05   2.42864987E-05   0.00000000E+00  
  78               5.62412923E+00   1.05915618E+03   8.38249201E-01   1.60464775E-01   6.95118860E-04   4.51875159E-04   3.90382931E-05   5.73406400E-05   2.42863127E-05   0.00000000E+00  
  79               6.22964573E+00   1.09088387E+03   8.38250303E-01   1.60463607E-01   6.95119029E-04   4.51874967E-04   3.91004368E-05   5.73406961E-05   2.42860337E-05   0.00000000E+00  
  80               6.89449355E+00   1.12259309E+03   8.38251770E-01   1.60461952E-01   6.95116905E-04   4.51872023E-04   3.92843069E-05   5.73407090E-05   2.42856279E-05   0.00000000E+00  
  81               7.62410337E+00   1.15531697E+03   8.38253750E-01   1.60459470E-01   6.95106776E-04   4.51858102E-04   3.97923229E-05   5.73407333E-05   2.42850119E-05   0.00000000E+00  
  82               8.42589968E+00   1.18813824E+03   8.38256057E-01   1.60455925E-01   6.95065115E-04   4.51798939E-04   4.10998165E-05   5.73410606E-05   2.42841225E-05   0.00000000E+00  
  83               9.30760052E+00   1.22204294E+03   8.38258510E-01   1.60450753E-01   6.94897492E-04   4.51563197E-04   4.41661317E-05   5.73422695E-05   2.42828131E-05   0.00000000E+00  
  84               1.02774839E+01   1.25615009E+03   8.38260514E-01   1.60443736E-01   6.94265288E-04   4.50696439E-04   5.05851765E-05   5.73453516E-05   2.42810008E-05   0.00000000E+00  
  85               1.13458405E+01   1.29139227E+03   8.38262841E-01   1.60434500E-01   6.92157677E-04   4.47904622E-04   6.22439427E-05   5.73506630E-05   2.42785150E-05   0.00000000E+00  
  86               1.25281574E+01   1.32711536E+03   8.38268956E-01   1.60423939E-01   6.86179502E-04   4.40350763E-04   7.99926690E-05   5.73559980E-05   2.42753866E-05   0.00000000E+00  
  87               1.38488627E+01   1.36443936E+03   8.38285618E-01   1.60412975E-01   6.72651104E-04   4.24349401E-04   1.03469918E-04   5.73575136E-05   2.42714956E-05   0.00000000E+00  
  88               1.53399978E+01   1.40302360E+03   8.38315520E-01   1.60402744E-01   6.49795382E-04   3.99514706E-04   1.30944100E-04   5.73549033E-05   2.42666515E-05   0.00000000E+00  
  89               1.70389626E+01   1.44391051E+03   8.38354201E-01   1.60392341E-01   6.20142338E-04   3.69041635E-04   1.61875675E-04   5.73510896E-05   2.42597140E-05   0.00000000E+00  
  90               1.89752875E+01   1.48648393E+03   8.38395362E-01   1.60381706E-01   5.88143629E-04   3.36641308E-04   1.94261619E-04   5.73473193E-05   2.42483195E-05   0.00000000E+00  
  91               2.11669821E+01   1.53101610E+03   8.38436148E-01   1.60370771E-01   5.55549342E-04   3.03619512E-04   2.27213143E-04   5.73447281E-05   2.42250859E-05   0.00000000E+00  
  92               2.36132591E+01   1.57639301E+03   8.38468901E-01   1.60359369E-01   5.24918037E-04   2.72104140E-04   2.58638337E-04   5.73434456E-05   2.41694083E-05   0.00000000E+00  
  93               2.62762400E+01   1.62192771E+03   8.38497703E-01   1.60349170E-01   5.01689215E-04   2.41834268E-04   2.88812296E-04   5.73667342E-05   2.37181248E-05   0.00000000E+00  
  94               2.91030647E+01   1.66626580E+03   8.38513374E-01   1.60338347E-01   4.76998961E-04   2.16582401E-04   3.13956560E-04   5.73633222E-05   2.36839445E-05   0.00000000E+00  
  95               3.20119018E+01   1.70853581E+03   8.38523215E-01   1.60329619E-01   4.67620273E-04   1.92019122E-04   3.38415475E-04   5.73591969E-05   2.27811108E-05   0.00000000E+00  
  96               3.48497139E+01   1.74683281E+03   8.38532964E-01   1.60322687E-01   4.52318048E-04   1.74336246E-04   3.55995994E-04   5.73474544E-05   2.27075421E-05   0.00000000E+00  
  97               3.78508962E+01   1.78473007E+03   8.38530305E-01   1.60315074E-01   4.41917173E-04   1.57968818E-04   3.72252300E-04   5.73286335E-05   2.25697921E-05   0.00000000E+00  
  98               4.06191885E+01   1.81755061E+03   8.38515977E-01   1.60307726E-01   4.39042306E-04   1.44095842E-04   3.86024440E-04   5.73090273E-05   2.23536165E-05   0.00000000E+00  
  99               4.30014133E+01   1.84433975E+03   8.38489763E-01   1.60300266E-01   4.42850105E-04   1.32577068E-04   3.97458724E-04   5.72873210E-05   2.20850400E-05   0.00000000E+00  
  100              4.55743935E+01   1.87200194E+03   8.38443898E-01   1.60290499E-01   4.54357060E-04   1.20265471E-04   4.09682958E-04   5.72530096E-05   2.17158896E-05   0.00000000E+00  
  101              4.83643898E+01   1.90044287E+03   8.38333794E-01   1.60271320E-01   4.82720802E-04   1.06057878E-04   4.23790151E-04   5.72213968E-05   2.11672598E-05   0.00000000E+00  
