# ATMO emission spectrum
# Wavelength [microns]  |  Flux [W/m2/micron]
0.20002000       9.40530797E-16  
0.20006002       9.49191934E-16  
0.20010005       9.57932123E-16  
0.20014010       9.66753116E-16  
0.20018016       9.75654240E-16  
0.20022024       9.84635674E-16  
0.20026034       9.93699099E-16  
0.20030045       1.00284479E-15  
0.20034058       1.01207357E-15  
0.20038072       1.02138349E-15  
0.20042088       1.03077724E-15  
0.20046106       1.04025938E-15  
0.20050125       1.04982766E-15  
0.20054146       1.05948212E-15  
0.20058169       1.06922490E-15  
0.20062193       1.07905613E-15  
0.20066219       1.08897660E-15  
0.20070246       1.09898669E-15  
0.20074275       1.10908830E-15  
0.20078305       1.11928138E-15  
0.20082338       1.12956690E-15  
0.20086371       1.13994913E-15  
0.20090407       1.15042333E-15  
0.20094444       1.16099122E-15  
0.20098483       1.17165545E-15  
0.20102523       1.18241666E-15  
0.20106565       1.19327474E-15  
0.20110608       1.20423127E-15  
0.20114654       1.21528678E-15  
0.20118700       1.22644637E-15  
0.20122749       1.23770419E-15  
0.20126799       1.24906038E-15  
0.20130851       1.26052068E-15  
0.20134904       1.27208512E-15  
0.20138959       1.28375102E-15  
0.20143015       1.29552384E-15  
0.20147074       1.30740384E-15  
0.20151134       1.31939181E-15  
0.20155195       1.33148727E-15  
0.20159258       1.34369202E-15  
0.20163323       1.35600726E-15  
0.20167389       1.36843364E-15  
0.20171457       1.38097210E-15  
0.20175527       1.39362460E-15  
0.20179598       1.40639125E-15  
0.20183671       1.41927333E-15  
0.20187746       1.43227169E-15  
0.20191822       1.44538768E-15  
0.20195900       1.45862179E-15  
0.20199980       1.47197531E-15  
0.20204061       1.48544986E-15  
0.20208144       1.49904674E-15  
0.20212228       1.51276522E-15  
0.20216315       1.52660789E-15  
0.20220402       1.54057838E-15  
0.20224492       1.55467185E-15  
0.20228583       1.56889223E-15  
0.20232676       1.58324068E-15  
0.20236770       1.59771853E-15  
0.20240866       1.61232655E-15  
0.20244964       1.62706624E-15  
0.20249063       1.64193891E-15  
0.20253165       1.65694587E-15  
0.20257267       1.67208763E-15  
0.20261372       1.68736537E-15  
0.20265478       1.70278055E-15  
0.20269585       1.71833225E-15  
0.20273695       1.73402602E-15  
0.20277806       1.74986092E-15  
0.20281919       1.76583816E-15  
0.20286033       1.78195896E-15  
0.20290149       1.79822474E-15  
0.20294267       1.81463608E-15  
0.20298386       1.83119488E-15  
0.20302507       1.84790249E-15  
0.20306630       1.86476170E-15  
0.20310755       1.88176330E-15  
0.20314881       1.89891275E-15  
0.20319008       1.91622849E-15  
0.20323138       1.93369769E-15  
0.20327269       1.95132161E-15  
0.20331402       1.96910079E-15  
0.20335536       1.98703587E-15  
0.20339673       2.00512821E-15  
0.20343810       2.02338070E-15  
0.20347950       2.04180098E-15  
0.20352091       2.06039947E-15  
0.20356234       2.07917659E-15  
0.20360379       2.09813386E-15  
0.20364525       2.11726450E-15  
0.20368673       2.13656522E-15  
0.20372823       2.15603552E-15  
0.20376974       2.17567727E-15  
0.20381127       2.19549213E-15  
0.20385282       2.21548304E-15  
0.20389438       2.23565112E-15  
0.20393596       2.25601775E-15  
0.20397756       2.27655113E-15  
0.20401918       2.29726031E-15  
0.20406081       2.31815579E-15  
0.20410246       2.33923818E-15  
0.20414413       2.36050925E-15  
0.20418581       2.38197103E-15  
0.20422751       2.40362540E-15  
0.20426923       2.42547338E-15  
0.20431096       2.44751702E-15  
0.20435271       2.46975816E-15  
0.20439448       2.49219629E-15  
0.20443627       2.51483613E-15  
0.20447807       2.53767900E-15  
0.20451989       2.56072637E-15  
0.20456173       2.58397960E-15  
0.20460358       2.60744059E-15  
0.20464545       2.63111099E-15  
0.20468734       2.65499287E-15  
0.20472925       2.67908807E-15  
0.20477117       2.70339917E-15  
0.20481311       2.72792919E-15  
0.20485507       2.75267642E-15  
0.20489704       2.77764924E-15  
0.20493903       2.80284550E-15  
0.20498104       2.82826592E-15  
0.20502307       2.85391320E-15  
0.20506511       2.87978843E-15  
0.20510717       2.90589370E-15  
0.20514925       2.93223175E-15  
0.20519134       2.95880435E-15  
0.20523345       2.98561760E-15  
0.20527558       3.01267146E-15  
0.20531773       3.03996760E-15  
0.20535989       3.06750923E-15  
0.20540207       3.09529682E-15  
0.20544427       3.12333182E-15  
0.20548649       3.15161678E-15  
0.20552872       3.18015326E-15  
0.20557097       3.20894384E-15  
0.20561324       3.23798972E-15  
0.20565553       3.26729523E-15  
0.20569783       3.29686583E-15  
0.20574015       3.32669531E-15  
0.20578249       3.35679032E-15  
0.20582484       3.38715390E-15  
0.20586722       3.41778731E-15  
0.20590961       3.44869409E-15  
0.20595201       3.47987570E-15  
0.20599444       3.51133588E-15  
0.20603688       3.54307690E-15  
0.20607934       3.57510159E-15  
0.20612182       3.60741180E-15  
0.20616431       3.64000941E-15  
0.20620683       3.67289743E-15  
0.20624936       3.70607813E-15  
0.20629190       3.73955338E-15  
0.20633447       3.77332661E-15  
0.20637705       3.80739988E-15  
0.20641965       3.84177655E-15  
0.20646227       3.87646015E-15  
0.20650490       3.91145086E-15  
0.20654756       3.94675217E-15  
0.20659023       3.98236780E-15  
0.20663292       4.01830018E-15  
0.20667562       4.05455229E-15  
0.20671835       4.09112657E-15  
0.20676109       4.12802642E-15  
0.20680385       4.16525411E-15  
0.20684662       4.20281319E-15  
0.20688942       4.24070577E-15  
0.20693223       4.27893212E-15  
0.20697506       4.31750037E-15  
0.20701791       4.35641128E-15  
0.20706077       4.39566729E-15  
0.20710366       4.43527129E-15  
0.20714656       4.47522647E-15  
0.20718947       4.51553589E-15  
0.20723241       4.55620285E-15  
0.20727537       4.59723011E-15  
0.20731834       4.63862276E-15  
0.20736133       4.68033334E-15  
0.20740433       4.72229130E-15  
0.20744736       4.76475429E-15  
0.20749040       4.80758156E-15  
0.20753346       4.85077330E-15  
0.20757654       4.89432881E-15  
0.20761964       4.93824751E-15  
0.20766276       4.98253191E-15  
0.20770589       5.02719307E-15  
0.20774904       5.07226439E-15  
0.20779221       5.11780853E-15  
0.20783539       5.16384623E-15  
0.20787860       5.21038105E-15  
0.20792182       5.25736728E-15  
0.20796506       5.30476342E-15  
0.20800832       5.35255892E-15  
0.20805160       5.39929450E-15  
0.20809489       5.44580736E-15  
0.20813820       5.49423357E-15  
0.20818153       5.54296655E-15  
0.20822488       5.59198925E-15  
0.20826825       5.64144994E-15  
0.20831163       5.69105925E-15  
0.20835504       5.74104792E-15  
0.20839846       5.78877089E-15  
0.20844190       5.83902577E-15  
0.20848535       5.89055239E-15  
0.20852883       5.94284982E-15  
0.20857232       5.99592212E-15  
0.20861583       6.04954227E-15  
0.20865936       6.10348231E-15  
0.20870291       6.15752383E-15  
0.20874648       6.21154621E-15  
0.20879006       6.26703782E-15  
0.20883366       6.32365043E-15  
0.20887728       6.38140041E-15  
0.20892092       6.44244922E-15  
0.20896458       6.50248362E-15  
0.20900826       6.55924923E-15  
0.20905195       6.61743905E-15  
0.20909566       6.67685734E-15  
0.20913939       6.73661494E-15  
0.20918314       6.79681365E-15  
0.20922691       6.85744672E-15  
0.20927069       6.92135395E-15  
0.20931450       6.98262902E-15  
0.20935832       7.04401998E-15  
0.20940216       7.10640556E-15  
0.20944602       7.17012456E-15  
0.20948989       7.23522631E-15  
0.20953379       7.30080302E-15  
0.20957770       7.36793052E-15  
0.20962163       7.43587333E-15  
0.20966558       7.50154070E-15  
0.20970955       7.56844352E-15  
0.20975354       7.63560412E-15  
0.20979755       7.70342317E-15  
0.20984157       7.77141270E-15  
0.20988561       7.84187999E-15  
0.20992967       7.91068247E-15  
0.20997375       7.97947944E-15  
0.21001785       8.04926897E-15  
0.21006197       8.12032214E-15  
0.21010610       8.19278125E-15  
0.21015026       8.26664673E-15  
0.21019443       8.34174871E-15  
0.21023862       8.41780746E-15  
0.21028283       8.49287851E-15  
0.21032706       8.56989637E-15  
0.21037131       8.64756012E-15  
0.21041557       8.72667535E-15  
0.21045985       8.80497239E-15  
0.21050416       8.88375390E-15  
0.21054848       8.96382040E-15  
0.21059282       9.04388017E-15  
0.21063718       9.12410906E-15  
0.21068155       9.20459849E-15  
0.21072595       9.28611610E-15  
0.21077037       9.36910523E-15  
0.21081480       9.45283238E-15  
0.21085925       9.53715743E-15  
0.21090372       9.62237768E-15  
0.21094821       9.70853219E-15  
0.21099272       9.79599525E-15  
0.21103725       9.88448003E-15  
0.21108179       9.97355950E-15  
0.21112636       1.00631842E-14  
0.21117094       1.01550458E-14  
0.21121555       1.02460096E-14  
0.21126017       1.03374969E-14  
0.21130481       1.04296608E-14  
0.21134947       1.05230554E-14  
0.21139414       1.06170432E-14  
0.21143884       1.07125046E-14  
0.21148356       1.08075910E-14  
0.21152829       1.09036765E-14  
0.21157305       1.10008015E-14  
0.21161782       1.10989617E-14  
0.21166261       1.11981463E-14  
0.21170742       1.12981835E-14  
0.21175225       1.13990633E-14  
0.21179710       1.15008384E-14  
0.21184197       1.16036148E-14  
0.21188685       1.17069455E-14  
0.21193176       1.18111390E-14  
0.21197668       1.19165061E-14  
0.21202163       1.20228812E-14  
0.21206659       1.21300433E-14  
0.21211157       1.22377579E-14  
0.21215657       1.23464062E-14  
0.21220159       1.24560080E-14  
0.21224663       1.25665672E-14  
0.21229169       1.26780674E-14  
0.21233677       1.27905550E-14  
0.21238186       1.29040174E-14  
0.21242698       1.30184852E-14  
0.21247211       1.31339496E-14  
0.21251727       1.32503929E-14  
0.21256244       1.33678487E-14  
0.21260763       1.34863260E-14  
0.21265284       1.36058483E-14  
0.21269808       1.37264179E-14  
0.21274333       1.38480633E-14  
0.21278859       1.39707942E-14  
0.21283388       1.40932612E-14  
0.21287919       1.42176429E-14  
0.21292452       1.43432376E-14  
0.21296986       1.44698113E-14  
0.21301523       1.45973310E-14  
0.21306062       1.47257967E-14  
0.21310602       1.48551671E-14  
0.21315144       1.49854747E-14  
0.21319689       1.51168980E-14  
0.21324235       1.52498380E-14  
0.21328783       1.53847360E-14  
0.21333333       1.55216189E-14  
0.21337885       1.56602193E-14  
0.21342439       1.58000470E-14  
0.21346995       1.59406766E-14  
0.21351553       1.60822632E-14  
0.21356113       1.62247980E-14  
0.21360675       1.63639241E-14  
0.21365239       1.65079208E-14  
0.21369804       1.66528192E-14  
0.21374372       1.67999680E-14  
0.21378942       1.69463963E-14  
0.21383513       1.70934889E-14  
0.21388087       1.72415024E-14  
0.21392662       1.73906975E-14  
0.21397240       1.75416130E-14  
0.21401819       1.76952649E-14  
0.21406401       1.78515810E-14  
0.21410984       1.80112958E-14  
0.21415569       1.81729464E-14  
0.21420156       1.83365830E-14  
0.21424746       1.85012315E-14  
0.21429337       1.86667634E-14  
0.21433930       1.88333047E-14  
0.21438525       1.90011216E-14  
0.21443122       1.91699158E-14  
0.21447721       1.93401819E-14  
0.21452322       1.95153630E-14  
0.21456925       1.96872128E-14  
0.21461530       1.98607637E-14  
0.21466137       2.00360881E-14  
0.21470746       2.02130258E-14  
0.21475357       2.03906091E-14  
0.21479970       2.05705710E-14  
0.21484585       2.07521461E-14  
0.21489202       2.09351216E-14  
0.21493821       2.11192866E-14  
0.21498441       2.13052777E-14  
0.21503064       2.14928746E-14  
0.21507689       2.16824909E-14  
0.21512316       2.18730017E-14  
0.21516945       2.20652697E-14  
0.21521575       2.22594198E-14  
0.21526208       2.24552993E-14  
0.21530843       2.26529451E-14  
0.21535480       2.28524252E-14  
0.21540118       2.30519746E-14  
0.21544759       2.32542904E-14  
0.21549402       2.34575260E-14  
0.21554047       2.36627121E-14  
0.21558694       2.38695437E-14  
0.21563342       2.40770105E-14  
0.21567993       2.42870458E-14  
0.21572646       2.44982565E-14  
0.21577301       2.47107596E-14  
0.21581957       2.49255604E-14  
0.21586616       2.51433610E-14  
0.21591277       2.53638756E-14  
0.21595940       2.55876145E-14  
0.21600605       2.58138936E-14  
0.21605272       2.60426533E-14  
0.21609941       2.62733871E-14  
0.21614611       2.65062269E-14  
0.21619284       2.67407674E-14  
0.21623959       2.69770057E-14  
0.21628636       2.71756552E-14  
0.21633315       2.73713558E-14  
0.21637996       2.75950507E-14  
0.21642679       2.78162431E-14  
0.21647364       2.80318979E-14  
0.21652052       2.82410688E-14  
0.21656741       2.84425073E-14  
0.21661432       2.86351995E-14  
0.21666125       2.88243336E-14  
0.21670820       2.90286697E-14  
0.21675518       2.92723692E-14  
0.21680217       2.95595329E-14  
0.21684918       2.98790324E-14  
0.21689622       3.02056346E-14  
0.21694327       3.05271921E-14  
0.21699034       3.08411935E-14  
0.21703744       3.11478927E-14  
0.21708455       3.14486109E-14  
0.21713169       3.17455175E-14  
0.21717885       3.20401394E-14  
0.21722602       3.23933304E-14  
0.21727322       3.26926690E-14  
0.21732044       3.29786075E-14  
0.21736768       3.32678526E-14  
0.21741494       3.35445310E-14  
0.21746222       3.38282624E-14  
0.21750952       3.41201238E-14  
0.21755684       3.44126895E-14  
0.21760418       3.47054058E-14  
0.21765154       3.49977773E-14  
0.21769892       3.52895741E-14  
0.21774633       3.55801674E-14  
0.21779375       3.58723482E-14  
0.21784119       3.61715435E-14  
0.21788866       3.64858767E-14  
0.21793614       3.68153970E-14  
0.21798365       3.71572225E-14  
0.21803118       3.75027829E-14  
0.21807873       3.78485161E-14  
0.21812630       3.81938225E-14  
0.21817388       3.85391351E-14  
0.21822149       3.88839858E-14  
0.21826913       3.92218725E-14  
0.21831678       3.95642172E-14  
0.21836445       3.99272728E-14  
0.21841214       4.02759339E-14  
0.21845986       4.06214707E-14  
0.21850759       4.09681024E-14  
0.21855535       4.13152476E-14  
0.21860313       4.16618919E-14  
0.21865092       4.20123724E-14  
0.21869874       4.23686551E-14  
0.21874658       4.27346946E-14  
0.21879444       4.31003459E-14  
0.21884232       4.34849531E-14  
0.21889023       4.38750346E-14  
0.21893815       4.42664506E-14  
0.21898609       4.46576901E-14  
0.21903406       4.50484287E-14  
0.21908205       4.54387230E-14  
0.21913005       4.58291070E-14  
0.21917808       4.62213198E-14  
0.21922613       4.66226581E-14  
0.21927420       4.70330290E-14  
0.21932229       4.74512385E-14  
0.21937041       4.78745618E-14  
0.21941854       4.83006028E-14  
0.21946670       4.87276221E-14  
0.21951487       4.91553398E-14  
0.21956307       4.95841554E-14  
0.21961129       5.00147118E-14  
0.21965953       5.04474345E-14  
0.21970779       5.08884768E-14  
0.21975607       5.13495881E-14  
0.21980437       5.18015522E-14  
0.21985270       5.22558727E-14  
0.21990104       5.27123984E-14  
0.21994941       5.31710072E-14  
0.21999780       5.36318916E-14  
0.22004621       5.40958260E-14  
0.22009464       5.45647672E-14  
0.22014309       5.50422523E-14  
0.22019157       5.55299820E-14  
0.22024006       5.60182737E-14  
0.22028858       5.65109568E-14  
0.22033712       5.70071152E-14  
0.22038567       5.75066607E-14  
0.22043426       5.80096859E-14  
0.22048286       5.85163477E-14  
0.22053148       5.90268481E-14  
0.22058013       5.95423000E-14  
0.22062879       6.00648783E-14  
0.22067748       6.05878140E-14  
0.22072619       6.11141725E-14  
0.22077492       6.16451017E-14  
0.22082367       6.21806301E-14  
0.22087245       6.27207901E-14  
0.22092124       6.32655750E-14  
0.22097006       6.38150057E-14  
0.22101890       6.43691213E-14  
0.22106776       6.49279637E-14  
0.22111664       6.54916223E-14  
0.22116554       6.60579350E-14  
0.22121447       6.66307018E-14  
0.22126341       6.72092996E-14  
0.22131238       6.77928861E-14  
0.22136137       6.83813968E-14  
0.22141038       6.89749277E-14  
0.22145942       6.95735350E-14  
0.22150847       7.01772381E-14  
0.22155755       7.07860898E-14  
0.22160665       7.14001453E-14  
0.22165577       7.20195361E-14  
0.22170491       7.26442226E-14  
0.22175407       7.32741393E-14  
0.22180326       7.39094651E-14  
0.22185247       6.59152755E-14  
0.22190170       6.14408126E-14  
0.22195095       6.19403475E-14  
0.22200022       6.24437322E-14  
0.22204952       6.29509825E-14  
0.22209883       5.35024792E-14  
0.22214817       5.22349603E-14  
0.22219753       5.26324112E-14  
0.22224692       5.30325772E-14  
0.22229632       5.34354767E-14  
0.22234575       5.27663278E-14  
0.22239520       4.43646420E-14  
0.22244467       4.46804515E-14  
0.22249416       4.49981934E-14  
0.22254367       4.53178386E-14  
0.22259321       4.56393855E-14  
0.22264277       4.59628235E-14  
0.22269235       4.54088988E-14  
0.22274195       3.81641470E-14  
0.22279158       3.84179281E-14  
0.22284123       3.86730227E-14  
0.22289089       3.89294846E-14  
0.22294059       3.91873223E-14  
0.22299030       3.94465266E-14  
0.22304004       3.97070383E-14  
0.22308979       3.99688435E-14  
0.22313957       3.69153594E-14  
0.22318938       3.31707371E-14  
0.22323920       3.33767097E-14  
0.22328905       3.35836645E-14  
0.22333892       3.37915288E-14  
0.22338881       3.40003120E-14  
0.22343872       3.42099283E-14  
0.22348866       3.44204011E-14  
0.22353862       3.46317355E-14  
0.22358860       3.48439479E-14  
0.22363860       3.50570399E-14  
0.22368863       3.16256421E-14  
0.22373867       2.89956644E-14  
0.22378874       2.91630592E-14  
0.22383884       2.93310190E-14  
0.22388895       2.94995803E-14  
0.22393909       2.96687394E-14  
0.22398925       2.98384790E-14  
0.22403943       3.00087989E-14  
0.22408964       3.01796914E-14  
0.22413986       3.03511306E-14  
0.22419011       3.05231349E-14  
0.22424039       3.06957132E-14  
0.22429068       3.08688618E-14  
0.22434100       3.10425858E-14  
0.22439134       2.78305741E-14  
0.22444170       2.58089117E-14  
0.22449209       2.59470245E-14  
0.22454249       2.60855020E-14  
0.22459293       2.62243396E-14  
0.22464338       2.63635162E-14  
0.22469385       2.65030503E-14  
0.22474435       2.66429638E-14  
0.22479487       2.67832146E-14  
0.22484542       2.69238215E-14  
0.22489599       2.70647352E-14  
0.22494658       2.72059588E-14  
0.22499719       2.73474977E-14  
0.22504782       2.74893413E-14  
0.22509848       2.76315039E-14  
0.22514916       2.77740361E-14  
0.22519986       2.79169132E-14  
0.22525059       2.80600764E-14  
0.22530134       2.66040645E-14  
0.22535211       2.33950477E-14  
0.22540291       2.35100435E-14  
0.22545373       2.36252169E-14  
0.22550457       2.37404916E-14  
0.22555543       2.38557935E-14  
0.22560632       2.39714233E-14  
0.22565723       2.40872179E-14  
0.22570816       2.42031418E-14  
0.22575912       2.43191729E-14  
0.22581009       2.44353173E-14  
0.22586110       2.45515516E-14  
0.22591212       2.46678670E-14  
0.22596317       2.47843291E-14  
0.22601424       2.49010840E-14  
0.22606533       2.50181303E-14  
0.22611645       2.51354655E-14  
0.22616759       2.52529566E-14  
0.22621875       2.53705017E-14  
0.22626994       2.54880555E-14  
0.22632115       2.56056560E-14  
0.22637238       2.57233281E-14  
0.22642364       2.58410525E-14  
0.22647492       2.59587861E-14  
0.22652622       2.60766833E-14  
