# ATMO emission spectrum
# Wavelength [microns]  |  Flux [W/m2/micron]
0.20002000       8.84713254E-16  
0.20006002       8.93481434E-16  
0.20010005       9.02335694E-16  
0.20014010       9.11277163E-16  
0.20018016       9.20306468E-16  
0.20022024       9.29424255E-16  
0.20026034       9.38631619E-16  
0.20030045       9.47929360E-16  
0.20034058       9.57318288E-16  
0.20038072       9.66798900E-16  
0.20042088       9.76372436E-16  
0.20046106       9.86040375E-16  
0.20050125       9.95803203E-16  
0.20054146       1.00566155E-15  
0.20058169       1.01561683E-15  
0.20062193       1.02566963E-15  
0.20066219       1.03582102E-15  
0.20070246       1.04607196E-15  
0.20074275       1.05642346E-15  
0.20078305       1.06687635E-15  
0.20082338       1.07743164E-15  
0.20086371       1.08809109E-15  
0.20090407       1.09885445E-15  
0.20094444       1.10972311E-15  
0.20098483       1.12069832E-15  
0.20102523       1.13178114E-15  
0.20106565       1.14297233E-15  
0.20110608       1.15427316E-15  
0.20114654       1.16568470E-15  
0.20118700       1.17720866E-15  
0.20122749       1.18884502E-15  
0.20126799       1.20059464E-15  
0.20130851       1.21245956E-15  
0.20134904       1.22444073E-15  
0.20138959       1.23653856E-15  
0.20143015       1.24875499E-15  
0.20147074       1.26109116E-15  
0.20151134       1.27354801E-15  
0.20155195       1.28612675E-15  
0.20159258       1.29882838E-15  
0.20163323       1.31165425E-15  
0.20167389       1.32460557E-15  
0.20171457       1.33768347E-15  
0.20175527       1.35088934E-15  
0.20179598       1.36422418E-15  
0.20183671       1.37768952E-15  
0.20187746       1.39128635E-15  
0.20191822       1.40501612E-15  
0.20195900       1.41888014E-15  
0.20199980       1.43287950E-15  
0.20204061       1.44701582E-15  
0.20208144       1.46129025E-15  
0.20212228       1.47570397E-15  
0.20216315       1.49025848E-15  
0.20220402       1.50495566E-15  
0.20224492       1.51979589E-15  
0.20228583       1.53478082E-15  
0.20232676       1.54991215E-15  
0.20236770       1.56519136E-15  
0.20240866       1.58061942E-15  
0.20244964       1.59619814E-15  
0.20249063       1.61192890E-15  
0.20253165       1.62781324E-15  
0.20257267       1.64385252E-15  
0.20261372       1.66004818E-15  
0.20265478       1.67640177E-15  
0.20269585       1.69291414E-15  
0.20273695       1.70958831E-15  
0.20277806       1.72642487E-15  
0.20281919       1.74342568E-15  
0.20286033       1.76059222E-15  
0.20290149       1.77792610E-15  
0.20294267       1.79542894E-15  
0.20298386       1.81310227E-15  
0.20302507       1.83094793E-15  
0.20306630       1.84896750E-15  
0.20310755       1.86716023E-15  
0.20314881       1.88552859E-15  
0.20319008       1.90407921E-15  
0.20323138       1.92281036E-15  
0.20327269       1.94172375E-15  
0.20331402       1.96082118E-15  
0.20335536       1.98010434E-15  
0.20339673       1.99957503E-15  
0.20343810       2.01923536E-15  
0.20347950       2.03908769E-15  
0.20352091       2.05913441E-15  
0.20356234       2.07937643E-15  
0.20360379       2.09981619E-15  
0.20364525       2.12045523E-15  
0.20368673       2.14129533E-15  
0.20372823       2.16233791E-15  
0.20376974       2.18358509E-15  
0.20381127       2.20503860E-15  
0.20385282       2.22670079E-15  
0.20389438       2.24857326E-15  
0.20393596       2.27066348E-15  
0.20397756       2.29296415E-15  
0.20401918       2.31547979E-15  
0.20406081       2.33821434E-15  
0.20410246       2.36116970E-15  
0.20414413       2.38434804E-15  
0.20418581       2.40775149E-15  
0.20422751       2.43138267E-15  
0.20426923       2.45524319E-15  
0.20431096       2.47933531E-15  
0.20435271       2.50366150E-15  
0.20439448       2.52822339E-15  
0.20443627       2.55302398E-15  
0.20447807       2.57806561E-15  
0.20451989       2.60335019E-15  
0.20456173       2.62888013E-15  
0.20460358       2.65465786E-15  
0.20464545       2.68068572E-15  
0.20468734       2.70696619E-15  
0.20472925       2.73350153E-15  
0.20477117       2.76029440E-15  
0.20481311       2.78734711E-15  
0.20485507       2.81466149E-15  
0.20489704       2.84224164E-15  
0.20493903       2.87008924E-15  
0.20498104       2.89820672E-15  
0.20502307       2.92659686E-15  
0.20506511       2.95526209E-15  
0.20510717       2.98420509E-15  
0.20514925       3.01342868E-15  
0.20519134       3.04293548E-15  
0.20523345       3.07272868E-15  
0.20527558       3.10281043E-15  
0.20531773       3.13318328E-15  
0.20535989       3.16385045E-15  
0.20540207       3.19481482E-15  
0.20544427       3.22607901E-15  
0.20548649       3.25764577E-15  
0.20552872       3.28951825E-15  
0.20557097       3.32169926E-15  
0.20561324       3.35419128E-15  
0.20565553       3.38699807E-15  
0.20569783       3.42012348E-15  
0.20574015       3.45356809E-15  
0.20578249       3.48733633E-15  
0.20582484       3.52143123E-15  
0.20586722       3.55585563E-15  
0.20590961       3.59061350E-15  
0.20595201       3.62570697E-15  
0.20599444       3.66114014E-15  
0.20603688       3.69691577E-15  
0.20607934       3.73303735E-15  
0.20612182       3.76950819E-15  
0.20616431       3.80633148E-15  
0.20620683       3.84351070E-15  
0.20624936       3.88104928E-15  
0.20629190       3.91895040E-15  
0.20633447       3.95721752E-15  
0.20637705       3.99585423E-15  
0.20641965       4.03486419E-15  
0.20646227       4.07425148E-15  
0.20650490       4.11401857E-15  
0.20654756       4.15416953E-15  
0.20659023       4.19470820E-15  
0.20663292       4.23563811E-15  
0.20667562       4.27696325E-15  
0.20671835       4.31868705E-15  
0.20676109       4.36081373E-15  
0.20680385       4.40334677E-15  
0.20684662       4.44629029E-15  
0.20688942       4.48964796E-15  
0.20693223       4.53342304E-15  
0.20697506       4.57762124E-15  
0.20701791       4.62224530E-15  
0.20706077       4.66729973E-15  
0.20710366       4.71278856E-15  
0.20714656       4.75871578E-15  
0.20718947       4.80508585E-15  
0.20723241       4.85190279E-15  
0.20727537       4.89917075E-15  
0.20731834       4.94689432E-15  
0.20736133       4.99506438E-15  
0.20740433       5.04366678E-15  
0.20744736       5.09277521E-15  
0.20749040       5.14235577E-15  
0.20753346       5.19241239E-15  
0.20757654       5.24294950E-15  
0.20761964       5.29397200E-15  
0.20766276       5.34548479E-15  
0.20770589       5.39749395E-15  
0.20774904       5.45000681E-15  
0.20779221       5.50303035E-15  
0.20783539       5.55657057E-15  
0.20787860       5.61063168E-15  
0.20792182       5.66521670E-15  
0.20796506       5.72032873E-15  
0.20800832       5.77597038E-15  
0.20805160       5.83181621E-15  
0.20809489       5.88807406E-15  
0.20813820       5.94525141E-15  
0.20818153       6.00297005E-15  
0.20822488       6.06123413E-15  
0.20826825       6.12009106E-15  
0.20831163       6.17946704E-15  
0.20835504       6.23941843E-15  
0.20839846       6.29927824E-15  
0.20844190       6.36021319E-15  
0.20848535       6.42187919E-15  
0.20852883       6.48416235E-15  
0.20857232       6.54706601E-15  
0.20861583       6.61058630E-15  
0.20865936       6.67471968E-15  
0.20870291       6.73942835E-15  
0.20874648       6.80466395E-15  
0.20879006       6.87072003E-15  
0.20883366       6.93745592E-15  
0.20887728       7.00487988E-15  
0.20892092       7.07354934E-15  
0.20896458       7.14252182E-15  
0.20900826       7.21127985E-15  
0.20905195       7.28100691E-15  
0.20909566       7.35165197E-15  
0.20913939       7.42294492E-15  
0.20918314       7.49491504E-15  
0.20922691       7.56757234E-15  
0.20927069       7.64170082E-15  
0.20931450       7.71578384E-15  
0.20935832       7.79049780E-15  
0.20940216       7.86596903E-15  
0.20944602       7.94221546E-15  
0.20948989       8.01925970E-15  
0.20953379       8.09688390E-15  
0.20957770       8.17548126E-15  
0.20962163       8.25494132E-15  
0.20966558       8.33449613E-15  
0.20970955       8.41507152E-15  
0.20975354       8.49641861E-15  
0.20979755       8.57864301E-15  
0.20984157       8.66162231E-15  
0.20988561       8.74598819E-15  
0.20992967       8.83060018E-15  
0.20997375       8.91586606E-15  
0.21001785       9.00200305E-15  
0.21006197       9.08901694E-15  
0.21010610       9.17693537E-15  
0.21015026       9.26575839E-15  
0.21019443       9.35548431E-15  
0.21023862       9.44610702E-15  
0.21028283       9.53718202E-15  
0.21032706       9.62950513E-15  
0.21037131       9.72273482E-15  
0.21041557       9.81709083E-15  
0.21045985       9.91198604E-15  
0.21050416       1.00077985E-14  
0.21054848       1.01047713E-14  
0.21059282       1.02025582E-14  
0.21063718       1.03011769E-14  
0.21068155       1.04006035E-14  
0.21072595       1.05010152E-14  
0.21077037       1.06025346E-14  
0.21081480       1.07050030E-14  
0.21085925       1.08083957E-14  
0.21090372       1.09127822E-14  
0.21094821       1.10181475E-14  
0.21099272       1.11246004E-14  
0.21103725       1.12320931E-14  
0.21108179       1.13405532E-14  
0.21112636       1.14500189E-14  
0.21117094       1.15609806E-14  
0.21121555       1.16725927E-14  
0.21126017       1.17852291E-14  
0.21130481       1.18989342E-14  
0.21134947       1.20138664E-14  
0.21139414       1.21298460E-14  
0.21143884       1.22471070E-14  
0.21148356       1.23651605E-14  
0.21152829       1.24843527E-14  
0.21157305       1.26046950E-14  
0.21161782       1.27261995E-14  
0.21166261       1.28488842E-14  
0.21170742       1.29727285E-14  
0.21175225       1.30977519E-14  
0.21179710       1.32239829E-14  
0.21184197       1.33514611E-14  
0.21188685       1.34800756E-14  
0.21193176       1.36099106E-14  
0.21197668       1.37410580E-14  
0.21202163       1.38734814E-14  
0.21206659       1.40071219E-14  
0.21211157       1.41419403E-14  
0.21215657       1.42780397E-14  
0.21220159       1.44154343E-14  
0.21224663       1.45541353E-14  
0.21229169       1.46941470E-14  
0.21233677       1.48354933E-14  
0.21238186       1.49781825E-14  
0.21242698       1.51222329E-14  
0.21247211       1.52676522E-14  
0.21251727       1.54144458E-14  
0.21256244       1.55626333E-14  
0.21260763       1.57122287E-14  
0.21265284       1.58632461E-14  
0.21269808       1.60156972E-14  
0.21274333       1.61695981E-14  
0.21278859       1.63249605E-14  
0.21283388       1.64813917E-14  
0.21287919       1.66395866E-14  
0.21292452       1.67993413E-14  
0.21296986       1.69606007E-14  
0.21301523       1.71233719E-14  
0.21306062       1.72876793E-14  
0.21310602       1.74535317E-14  
0.21315144       1.76209565E-14  
0.21319689       1.77899903E-14  
0.21324235       1.79606573E-14  
0.21328783       1.81330057E-14  
0.21333333       1.83070490E-14  
0.21337885       1.84827884E-14  
0.21342439       1.86602140E-14  
0.21346995       1.88392501E-14  
0.21351553       1.90199547E-14  
0.21356113       1.92023437E-14  
0.21360675       1.93851464E-14  
0.21365239       1.95708699E-14  
0.21369804       1.97583191E-14  
0.21374372       1.99479627E-14  
0.21378942       2.01388832E-14  
0.21383513       2.03315402E-14  
0.21388087       2.05260219E-14  
0.21392662       2.07223746E-14  
0.21397240       2.09206528E-14  
0.21401819       2.11209288E-14  
0.21406401       2.13228796E-14  
0.21410984       2.15271862E-14  
0.21415569       2.17333962E-14  
0.21420156       2.19417736E-14  
0.21424746       2.21521181E-14  
0.21429337       2.23644111E-14  
0.21433930       2.25786999E-14  
0.21438525       2.27950672E-14  
0.21443122       2.30134288E-14  
0.21447721       2.32339402E-14  
0.21452322       2.34576290E-14  
0.21456925       2.36819697E-14  
0.21461530       2.39084366E-14  
0.21466137       2.41370663E-14  
0.21470746       2.43678452E-14  
0.21475357       2.46001117E-14  
0.21479970       2.48351906E-14  
0.21484585       2.50725791E-14  
0.21489202       2.53121752E-14  
0.21493821       2.55539337E-14  
0.21498441       2.57980697E-14  
0.21503064       2.60445316E-14  
0.21507689       2.62934666E-14  
0.21512316       2.65445300E-14  
0.21516945       2.67979733E-14  
0.21521575       2.70538482E-14  
0.21526208       2.73121249E-14  
0.21530843       2.75728411E-14  
0.21535480       2.78360316E-14  
0.21540118       2.81011607E-14  
0.21544759       2.83691158E-14  
0.21549402       2.86393623E-14  
0.21554047       2.89122786E-14  
0.21558694       2.91877967E-14  
0.21563342       2.94650817E-14  
0.21567993       2.97458208E-14  
0.21572646       3.00291860E-14  
0.21577301       3.03151523E-14  
0.21581957       3.06039274E-14  
0.21586616       3.08956104E-14  
0.21591277       3.11900190E-14  
0.21595940       3.14873129E-14  
0.21600605       3.17874084E-14  
0.21605272       3.20903895E-14  
0.21609941       3.23962251E-14  
0.21614611       3.27050439E-14  
0.21619284       3.30167523E-14  
0.21623959       3.33313713E-14  
0.21628636       3.36362027E-14  
0.21633315       3.39427066E-14  
0.21637996       3.42624662E-14  
0.21642679       3.45848324E-14  
0.21647364       3.49092827E-14  
0.21652052       3.52359796E-14  
0.21656741       3.55650919E-14  
0.21661432       3.58968989E-14  
0.21666125       3.62323821E-14  
0.21670820       3.65729636E-14  
0.21675518       3.69197256E-14  
0.21680217       3.72734794E-14  
0.21684918       3.76323563E-14  
0.21689622       3.79966480E-14  
0.21694327       3.83648134E-14  
0.21699034       3.87361355E-14  
0.21703744       3.91102063E-14  
0.21708455       3.94868945E-14  
0.21713169       3.98664282E-14  
0.21717885       4.02489078E-14  
0.21722602       4.06559327E-14  
0.21727322       4.10472520E-14  
0.21732044       4.14369127E-14  
0.21736768       4.18303658E-14  
0.21741494       4.22224894E-14  
0.21746222       4.26197474E-14  
0.21750952       4.30232268E-14  
0.21755684       4.34302830E-14  
0.21760418       4.38409106E-14  
0.21765154       4.42551562E-14  
0.21769892       4.46731526E-14  
0.21774633       4.50948458E-14  
0.21779375       4.55208390E-14  
0.21784119       4.59513806E-14  
0.21788866       4.63870383E-14  
0.21793614       4.68277047E-14  
0.21798365       4.72733694E-14  
0.21803118       4.77236294E-14  
0.21807873       4.81781554E-14  
0.21812630       4.86367754E-14  
0.21817388       4.90994640E-14  
0.21822149       4.95658734E-14  
0.21826913       5.00336887E-14  
0.21831678       5.05069548E-14  
0.21836445       5.09916372E-14  
0.21841214       5.14750672E-14  
0.21845986       5.19612830E-14  
0.21850759       5.24518627E-14  
0.21855535       5.29466183E-14  
0.21860313       5.34446415E-14  
0.21865092       5.39490611E-14  
0.21869874       5.44584790E-14  
0.21874658       5.49732532E-14  
0.21879444       5.54892565E-14  
0.21884232       5.60143024E-14  
0.21889023       5.65447555E-14  
0.21893815       5.70801466E-14  
0.21898609       5.76203155E-14  
0.21903406       5.81652350E-14  
0.21908205       5.87149584E-14  
0.21913005       5.92696246E-14  
0.21917808       5.98295013E-14  
0.21922613       6.03960461E-14  
0.21927420       6.09680559E-14  
0.21932229       6.15450589E-14  
0.21937041       6.21269902E-14  
0.21941854       6.27144742E-14  
0.21946670       6.33073556E-14  
0.21951487       6.39055994E-14  
0.21956307       6.45092829E-14  
0.21961129       6.51183060E-14  
0.21965953       6.57320240E-14  
0.21970779       6.63523521E-14  
0.21975607       6.69836893E-14  
0.21980437       6.76159689E-14  
0.21985270       6.82539573E-14  
0.21990104       6.88977941E-14  
0.21994941       6.95475078E-14  
0.21999780       7.02031741E-14  
0.22004621       7.08649303E-14  
0.22009464       7.15329617E-14  
0.22014309       7.22081046E-14  
0.22019157       7.28908975E-14  
0.22024006       7.35781754E-14  
0.22028858       7.42719419E-14  
0.22033712       7.49721539E-14  
0.22038567       7.56788391E-14  
0.22043426       7.63920268E-14  
0.22048286       7.71117573E-14  
0.22053148       7.78381220E-14  
0.22058013       7.85715297E-14  
0.22062879       7.93128963E-14  
0.22067748       8.00596350E-14  
0.22072619       8.08129400E-14  
0.22077492       8.15732484E-14  
0.22082367       8.23406071E-14  
0.22087245       8.31150904E-14  
0.22092124       8.38967500E-14  
0.22097006       8.46856706E-14  
0.22101890       8.54818934E-14  
0.22106776       8.62855032E-14  
0.22111664       8.70965608E-14  
0.22116554       8.79127457E-14  
0.22121447       8.87380515E-14  
0.22126341       8.95718731E-14  
0.22131238       9.04134216E-14  
0.22136137       9.12627380E-14  
0.22141038       9.21199229E-14  
0.22145942       9.29850473E-14  
0.22150847       9.38581799E-14  
0.22155755       9.47393841E-14  
0.22160665       9.56287442E-14  
0.22165577       9.65263655E-14  
0.22170491       9.74322913E-14  
0.22175407       9.83465529E-14  
0.22180326       9.92692756E-14  
0.22185247       9.38942567E-14  
0.22190170       9.09095750E-14  
0.22195095       9.17462943E-14  
0.22200022       9.25905558E-14  
0.22204952       9.34424114E-14  
0.22209883       8.55274311E-14  
0.22214817       8.47476668E-14  
0.22219753       8.55098102E-14  
0.22224692       8.62785921E-14  
0.22229632       8.70540663E-14  
0.22234575       8.67485980E-14  
0.22239520       7.82375586E-14  
0.22244467       7.89222604E-14  
0.22249416       7.96127108E-14  
0.22254367       8.03089442E-14  
0.22259321       8.10109925E-14  
0.22264277       8.17188969E-14  
0.22269235       8.13839935E-14  
0.22274195       7.27082276E-14  
0.22279158       7.33241680E-14  
0.22284123       7.39449986E-14  
0.22289089       7.45707766E-14  
0.22294059       7.52015219E-14  
0.22299030       7.58372808E-14  
0.22304004       7.64780767E-14  
0.22308979       7.71239596E-14  
0.22313957       7.30836096E-14  
0.22318938       6.78460767E-14  
0.22323920       6.83987625E-14  
0.22328905       6.89555883E-14  
0.22333892       6.95165556E-14  
0.22338881       7.00817352E-14  
0.22343872       7.06510733E-14  
0.22348866       7.12246177E-14  
0.22353862       7.18023917E-14  
0.22358860       7.23844334E-14  
0.22363860       7.29707707E-14  
0.22368863       6.75370695E-14  
0.22373867       6.32546344E-14  
0.22378874       6.37457159E-14  
0.22383884       6.42401242E-14  
0.22388895       6.47379148E-14  
0.22393909       6.52391137E-14  
0.22398925       6.57437151E-14  
0.22403943       6.62517421E-14  
0.22408964       6.67632128E-14  
0.22413986       6.72781199E-14  
0.22419011       6.77965069E-14  
0.22424039       6.83184099E-14  
0.22429068       6.88438238E-14  
0.22434100       6.93727676E-14  
0.22439134       6.34114671E-14  
0.22444170       5.95969829E-14  
0.22449209       6.00336652E-14  
0.22454249       6.04730190E-14  
0.22459293       6.09150475E-14  
0.22464338       6.13597225E-14  
0.22469385       6.18070935E-14  
0.22474435       6.22572004E-14  
0.22479487       6.27100148E-14  
0.22484542       6.31655866E-14  
0.22489599       6.36238699E-14  
0.22494658       6.40848804E-14  
0.22499719       6.45486466E-14  
0.22504782       6.50151729E-14  
0.22509848       6.54844726E-14  
0.22514916       6.59565858E-14  
0.22519986       6.64314853E-14  
0.22525059       6.69090164E-14  
0.22530134       6.38722000E-14  
0.22535211       5.68107045E-14  
0.22540291       5.71981964E-14  
0.22545373       5.75877117E-14  
0.22550457       5.79791403E-14  
0.22555543       5.83723628E-14  
0.22560632       5.87678980E-14  
0.22565723       5.91654896E-14  
0.22570816       5.95650963E-14  
0.22575912       5.99666932E-14  
0.22581009       6.03703318E-14  
0.22586110       6.07759874E-14  
0.22591212       6.11836842E-14  
0.22596317       6.15934512E-14  
0.22601424       6.20053319E-14  
0.22606533       6.24193166E-14  
0.22611645       6.28354085E-14  
0.22616759       6.32536045E-14  
0.22621875       6.36738620E-14  
0.22626994       6.40961132E-14  
0.22632115       6.45204224E-14  
0.22637238       6.49468056E-14  
0.22642364       6.53752326E-14  
0.22647492       6.58056300E-14  
0.22652622       6.62382962E-14  
