# ATMO emission spectrum
# Wavelength [microns]  |  Flux [W/m2/micron]
0.20002000       3.48360170E-12  
0.20006002       3.45928562E-12  
0.20010005       3.43903655E-12  
0.20014010       3.42967280E-12  
0.20018016       3.41977931E-12  
0.20022024       3.40763304E-12  
0.20026034       3.39832030E-12  
0.20030045       3.38824812E-12  
0.20034058       3.37938691E-12  
0.20038072       3.35768931E-12  
0.20042088       3.33382244E-12  
0.20046106       3.32551373E-12  
0.20050125       3.31770140E-12  
0.20054146       3.30659647E-12  
0.20058169       3.29972732E-12  
0.20062193       3.29338453E-12  
0.20066219       3.28700634E-12  
0.20070246       3.27933453E-12  
0.20074275       3.27598598E-12  
0.20078305       3.27087105E-12  
0.20082338       3.26643730E-12  
0.20086371       3.27784538E-12  
0.20090407       3.27843867E-12  
0.20094444       3.27369349E-12  
0.20098483       3.27078476E-12  
0.20102523       3.26996162E-12  
0.20106565       3.26723990E-12  
0.20110608       3.26539807E-12  
0.20114654       3.26282271E-12  
0.20118700       3.27510704E-12  
0.20122749       3.27826474E-12  
0.20126799       3.26755052E-12  
0.20130851       3.26227330E-12  
0.20134904       3.26026126E-12  
0.20138959       3.24594721E-12  
0.20143015       3.23800206E-12  
0.20147074       3.23190580E-12  
0.20151134       3.22911117E-12  
0.20155195       3.22282233E-12  
0.20159258       3.21636100E-12  
0.20163323       3.21017948E-12  
0.20167389       3.20382939E-12  
0.20171457       3.19587653E-12  
0.20175527       3.19078378E-12  
0.20179598       3.18557366E-12  
0.20183671       3.17980857E-12  
0.20187746       3.17465844E-12  
0.20191822       3.16964330E-12  
0.20195900       3.16450470E-12  
0.20199980       3.15950959E-12  
0.20204061       3.15618515E-12  
0.20208144       3.15492017E-12  
0.20212228       3.15034835E-12  
0.20216315       3.14654783E-12  
0.20220402       3.14984628E-12  
0.20224492       3.14624107E-12  
0.20228583       3.14181091E-12  
0.20232676       3.13759186E-12  
0.20236770       3.13331865E-12  
0.20240866       3.12896469E-12  
0.20244964       3.12423775E-12  
0.20249063       3.12011615E-12  
0.20253165       3.11725582E-12  
0.20257267       3.11269429E-12  
0.20261372       3.10795984E-12  
0.20265478       3.10213919E-12  
0.20269585       3.09066034E-12  
0.20273695       3.08497390E-12  
0.20277806       3.07926961E-12  
0.20281919       3.07327048E-12  
0.20286033       3.06709891E-12  
0.20290149       3.06112953E-12  
0.20294267       3.05463487E-12  
0.20298386       3.04799053E-12  
0.20302507       3.04123951E-12  
0.20306630       3.03578416E-12  
0.20310755       3.01091563E-12  
0.20314881       2.97552002E-12  
0.20319008       2.96634043E-12  
0.20323138       2.95534698E-12  
0.20327269       2.94339924E-12  
0.20331402       2.92959152E-12  
0.20335536       2.91412304E-12  
0.20339673       2.89736667E-12  
0.20343810       2.88092374E-12  
0.20347950       2.86934506E-12  
0.20352091       2.86598715E-12  
0.20356234       2.86768311E-12  
0.20360379       2.87550405E-12  
0.20364525       2.88619899E-12  
0.20368673       2.89712328E-12  
0.20372823       2.90672080E-12  
0.20376974       2.91467358E-12  
0.20381127       2.92101854E-12  
0.20385282       2.92653358E-12  
0.20389438       2.93065097E-12  
0.20393596       2.96241096E-12  
0.20397756       2.97113919E-12  
0.20401918       2.96790348E-12  
0.20406081       2.96533651E-12  
0.20410246       2.96229133E-12  
0.20414413       2.95921736E-12  
0.20418581       2.95614469E-12  
0.20422751       2.95331387E-12  
0.20426923       2.95046554E-12  
0.20431096       2.94733110E-12  
0.20435271       2.94420991E-12  
0.20439448       2.93800716E-12  
0.20443627       2.93325373E-12  
0.20447807       2.92957292E-12  
0.20451989       2.92565455E-12  
0.20456173       2.92162226E-12  
0.20460358       2.91746364E-12  
0.20464545       2.91317303E-12  
0.20468734       2.90879949E-12  
0.20472925       2.90451026E-12  
0.20477117       2.90065403E-12  
0.20481311       2.89726691E-12  
0.20485507       2.89069700E-12  
0.20489704       2.88811228E-12  
0.20493903       2.88600132E-12  
0.20498104       2.88353322E-12  
0.20502307       2.88093736E-12  
0.20506511       2.87797664E-12  
0.20510717       2.87468097E-12  
0.20514925       2.87117034E-12  
0.20519134       2.86772290E-12  
0.20523345       2.86701928E-12  
0.20527558       2.86579259E-12  
0.20531773       2.86451882E-12  
0.20535989       2.86384288E-12  
0.20540207       2.86333485E-12  
0.20544427       2.86284369E-12  
0.20548649       2.86217845E-12  
0.20552872       2.86131531E-12  
0.20557097       2.86024024E-12  
0.20561324       2.85780907E-12  
0.20565553       2.85639151E-12  
0.20569783       2.85821083E-12  
0.20574015       2.85618515E-12  
0.20578249       2.85400955E-12  
0.20582484       2.85193413E-12  
0.20586722       2.84967351E-12  
0.20590961       2.84743389E-12  
0.20595201       2.84527066E-12  
0.20599444       2.84329709E-12  
0.20603688       2.84163358E-12  
0.20607934       2.84028225E-12  
0.20612182       2.83913768E-12  
0.20616431       2.83775350E-12  
0.20620683       2.83665991E-12  
0.20624936       2.83553108E-12  
0.20629190       2.83422217E-12  
0.20633447       2.83292795E-12  
0.20637705       2.83140828E-12  
0.20641965       2.83007819E-12  
0.20646227       2.82963505E-12  
0.20650490       2.82830082E-12  
0.20654756       2.82672234E-12  
0.20659023       2.82537234E-12  
0.20663292       2.82413008E-12  
0.20667562       2.82293157E-12  
0.20671835       2.82182225E-12  
0.20676109       2.82081107E-12  
0.20680385       2.81989242E-12  
0.20684662       2.81905626E-12  
0.20688942       2.81815289E-12  
0.20693223       2.81625432E-12  
0.20697506       2.81538599E-12  
0.20701791       2.81474915E-12  
0.20706077       2.81387458E-12  
0.20710366       2.81300160E-12  
0.20714656       2.81214689E-12  
0.20718947       2.81123047E-12  
0.20723241       2.81043756E-12  
0.20727537       2.80954684E-12  
0.20731834       2.80884909E-12  
0.20736133       2.79262178E-12  
0.20740433       2.74073950E-12  
0.20744736       2.73329919E-12  
0.20749040       2.72492090E-12  
0.20753346       2.71551639E-12  
0.20757654       2.70504335E-12  
0.20761964       2.69364119E-12  
0.20766276       2.68173251E-12  
0.20770589       2.67054099E-12  
0.20774904       2.66212051E-12  
0.20779221       2.65928131E-12  
0.20783539       2.66265407E-12  
0.20787860       2.67188149E-12  
0.20792182       2.68443672E-12  
0.20796506       2.69793093E-12  
0.20800832       2.71093651E-12  
0.20805160       2.54813038E-12  
0.20809489       2.40210830E-12  
0.20813820       2.38599188E-12  
0.20818153       2.36824751E-12  
0.20822488       2.34883054E-12  
0.20826825       2.33686436E-12  
0.20831163       2.31554245E-12  
0.20835504       2.29658153E-12  
0.20839846       2.16705363E-12  
0.20844190       2.13218587E-12  
0.20848535       2.11998412E-12  
0.20852883       2.11252343E-12  
0.20857232       2.10850869E-12  
0.20861583       2.10601949E-12  
0.20865936       2.10324726E-12  
0.20870291       2.09522665E-12  
0.20874648       2.07684578E-12  
0.20879006       2.08034666E-12  
0.20883366       2.09033241E-12  
0.20887728       2.10721449E-12  
0.20892092       2.18468436E-12  
0.20896458       2.23261429E-12  
0.20900826       2.17793687E-12  
0.20905195       2.16060134E-12  
0.20909566       2.16812668E-12  
0.20913939       2.17275955E-12  
0.20918314       2.17681653E-12  
0.20922691       2.18048182E-12  
0.20927069       2.26439787E-12  
0.20931450       2.26740178E-12  
0.20935832       2.26135240E-12  
0.20940216       2.26116328E-12  
0.20944602       2.26908973E-12  
0.20948989       2.28693718E-12  
0.20953379       2.28695955E-12  
0.20957770       2.31403747E-12  
0.20962163       2.35562262E-12  
0.20966558       2.31554684E-12  
0.20970955       2.30614949E-12  
0.20975354       2.29615231E-12  
0.20979755       2.29555070E-12  
0.20984157       2.29108496E-12  
0.20988561       2.34031820E-12  
0.20992967       2.33453979E-12  
0.20997375       2.31686758E-12  
0.21001785       2.30665468E-12  
0.21006197       2.30324626E-12  
0.21010610       2.30809319E-12  
0.21015026       2.32019614E-12  
0.21019443       2.33831973E-12  
0.21023862       2.36054502E-12  
0.21028283       2.34640264E-12  
0.21032706       2.36422357E-12  
0.21037131       2.38398631E-12  
0.21041557       2.42638240E-12  
0.21045985       2.43503947E-12  
0.21050416       2.44244357E-12  
0.21054848       2.47094807E-12  
0.21059282       2.48929104E-12  
0.21063718       2.49716012E-12  
0.21068155       2.49213524E-12  
0.21072595       2.49174186E-12  
0.21077037       2.50509941E-12  
0.21081480       2.51845945E-12  
0.21085925       2.52657920E-12  
0.21090372       2.53540322E-12  
0.21094821       2.54332613E-12  
0.21099272       2.56032305E-12  
0.21103725       2.58066993E-12  
0.21108179       2.59575222E-12  
0.21112636       2.60772473E-12  
0.21117094       2.66574109E-12  
0.21121555       2.68142002E-12  
0.21126017       2.69256468E-12  
0.21130481       2.70255664E-12  
0.21134947       2.72770149E-12  
0.21139414       2.74927483E-12  
0.21143884       2.79551744E-12  
0.21148356       2.79820438E-12  
0.21152829       2.80336076E-12  
0.21157305       2.81180385E-12  
0.21161782       2.82290915E-12  
0.21166261       2.83773539E-12  
0.21170742       2.85151924E-12  
0.21175225       2.86526783E-12  
0.21179710       2.88150190E-12  
0.21184197       2.90505694E-12  
0.21188685       2.91618184E-12  
0.21193176       2.92670217E-12  
0.21197668       2.95044451E-12  
0.21202163       2.97982712E-12  
0.21206659       3.00298715E-12  
0.21211157       3.00804387E-12  
0.21215657       3.01291486E-12  
0.21220159       3.01795662E-12  
0.21224663       3.02309346E-12  
0.21229169       3.02703641E-12  
0.21233677       3.03175583E-12  
0.21238186       3.03630443E-12  
0.21242698       3.04175885E-12  
0.21247211       3.04722372E-12  
0.21251727       3.05164641E-12  
0.21256244       3.05603869E-12  
0.21260763       3.06045684E-12  
0.21265284       3.06537861E-12  
0.21269808       3.07027748E-12  
0.21274333       3.07540694E-12  
0.21278859       3.08107337E-12  
0.21283388       3.04452361E-12  
0.21287919       3.03856472E-12  
0.21292452       3.03831349E-12  
0.21296986       3.03713898E-12  
0.21301523       3.03482241E-12  
0.21306062       3.03191880E-12  
0.21310602       3.02817784E-12  
0.21315144       3.02436329E-12  
0.21319689       3.02242433E-12  
0.21324235       3.02349625E-12  
0.21328783       3.03011405E-12  
0.21333333       3.04215412E-12  
0.21337885       3.05789278E-12  
0.21342439       3.07502754E-12  
0.21346995       3.08742986E-12  
0.21351553       3.09781836E-12  
0.21356113       3.10616315E-12  
0.21360675       3.04391293E-12  
0.21365239       3.04513802E-12  
0.21369804       3.04478306E-12  
0.21374372       3.06202989E-12  
0.21378942       3.05635315E-12  
0.21383513       3.04804583E-12  
0.21388087       3.04032223E-12  
0.21392662       3.03439044E-12  
0.21397240       3.03202353E-12  
0.21401819       3.03536381E-12  
0.21406401       3.04538839E-12  
0.21410984       3.06137278E-12  
0.21415569       3.07579241E-12  
0.21420156       3.09782902E-12  
0.21424746       3.11954712E-12  
0.21429337       3.13941973E-12  
0.21433930       3.15853001E-12  
0.21438525       3.17932348E-12  
0.21443122       3.19788432E-12  
0.21447721       3.21928934E-12  
0.21452322       3.28833396E-12  
0.21456925       3.29517621E-12  
0.21461530       3.30308599E-12  
0.21466137       3.31264776E-12  
0.21470746       3.32200433E-12  
0.21475357       3.32861577E-12  
0.21479970       3.33918832E-12  
0.21484585       3.34968883E-12  
0.21489202       3.35844750E-12  
0.21493821       3.36224929E-12  
0.21498441       3.37076007E-12  
0.21503064       3.38020871E-12  
0.21507689       3.39598771E-12  
0.21512316       3.40200198E-12  
0.21516945       3.40892448E-12  
0.21521575       3.41804245E-12  
0.21526208       3.42685475E-12  
0.21530843       3.43612250E-12  
0.21535480       3.44623451E-12  
0.21540118       3.43654736E-12  
0.21544759       3.43938730E-12  
0.21549402       3.43466751E-12  
0.21554047       3.43479161E-12  
0.21558694       3.43571110E-12  
0.21563342       3.43714682E-12  
0.21567993       3.44168010E-12  
0.21572646       3.44311463E-12  
0.21577301       3.44277599E-12  
0.21581957       3.44604675E-12  
0.21586616       3.45468525E-12  
0.21591277       3.46386197E-12  
0.21595940       3.47677270E-12  
0.21600605       3.49036073E-12  
0.21605272       3.50586058E-12  
0.21609941       3.52158049E-12  
0.21614611       3.53968346E-12  
0.21619284       3.55732752E-12  
0.21623959       3.57435233E-12  
0.21628636       3.39623856E-12  
0.21633315       3.26844107E-12  
0.21637996       3.24922336E-12  
0.21642679       3.22785681E-12  
0.21647364       3.20016133E-12  
0.21652052       3.16821866E-12  
0.21656741       3.13328316E-12  
0.21661432       3.09747726E-12  
0.21666125       3.06723773E-12  
0.21670820       3.05170864E-12  
0.21675518       3.05799627E-12  
0.21680217       3.09038176E-12  
0.21684918       3.14139079E-12  
0.21689622       3.20258295E-12  
0.21694327       3.26622562E-12  
0.21699034       3.32875020E-12  
0.21703744       3.38718865E-12  
0.21708455       3.44011173E-12  
0.21713169       3.48864237E-12  
0.21717885       3.53317038E-12  
0.21722602       3.79958812E-12  
0.21727322       3.87108188E-12  
0.21732044       3.88197802E-12  
0.21736768       3.89613650E-12  
0.21741494       3.83575873E-12  
0.21746222       3.80563122E-12  
0.21750952       3.80722406E-12  
0.21755684       3.80663987E-12  
0.21760418       3.80359090E-12  
0.21765154       3.79827713E-12  
0.21769892       3.79177141E-12  
0.21774633       3.78342999E-12  
0.21779375       3.77884584E-12  
0.21784119       3.78090209E-12  
0.21788866       3.79517065E-12  
0.21793614       3.82061985E-12  
0.21798365       3.85552106E-12  
0.21803118       3.89470438E-12  
0.21807873       3.93417491E-12  
0.21812630       3.97199402E-12  
0.21817388       4.00760006E-12  
0.21822149       4.03757808E-12  
0.21826913       4.03998377E-12  
0.21831678       4.05071172E-12  
0.21836445       4.12447724E-12  
0.21841214       4.14526651E-12  
0.21845986       4.14841558E-12  
0.21850759       4.15005379E-12  
0.21855535       4.15033591E-12  
0.21860313       4.14973284E-12  
0.21865092       4.15187764E-12  
0.21869874       4.15762923E-12  
0.21874658       4.17024558E-12  
0.21879444       4.15908657E-12  
0.21884232       4.18043991E-12  
0.21889023       4.20578134E-12  
0.21893815       4.23053121E-12  
0.21898609       4.25281989E-12  
0.21903406       4.27203364E-12  
0.21908205       4.28828256E-12  
0.21913005       4.30250341E-12  
0.21917808       4.31641256E-12  
0.21922613       4.33924927E-12  
0.21927420       4.36712072E-12  
0.21932229       4.39469811E-12  
0.21937041       4.42035347E-12  
0.21941854       4.44671491E-12  
0.21946670       4.47182201E-12  
0.21951487       4.49499161E-12  
0.21956307       4.51654694E-12  
0.21961129       4.53592747E-12  
0.21965953       4.54906155E-12  
0.21970779       4.56940414E-12  
0.21975607       4.62583125E-12  
0.21980437       4.64948457E-12  
0.21985270       4.67163524E-12  
0.21990104       4.69273127E-12  
0.21994941       4.71252546E-12  
0.21999780       4.73130745E-12  
0.22004621       4.74993844E-12  
0.22009464       4.76979284E-12  
0.22014309       4.79667793E-12  
0.22019157       4.83426913E-12  
0.22024006       4.85959265E-12  
0.22028858       4.88583790E-12  
0.22033712       4.91198433E-12  
0.22038567       4.93772718E-12  
0.22043426       4.96288691E-12  
0.22048286       4.98746131E-12  
0.22053148       5.01160620E-12  
0.22058013       5.03802780E-12  
0.22062879       5.07330532E-12  
0.22067748       5.09710243E-12  
0.22072619       5.11826020E-12  
0.22077492       5.13967821E-12  
0.22082367       5.16130538E-12  
0.22087245       5.18311323E-12  
0.22092124       5.20508087E-12  
0.22097006       5.22719807E-12  
0.22101890       5.24946155E-12  
0.22106776       5.27188611E-12  
0.22111664       5.29450416E-12  
0.22116554       5.31674786E-12  
0.22121447       5.33965088E-12  
0.22126341       5.36310150E-12  
0.22131238       5.38673510E-12  
0.22136137       5.41039837E-12  
0.22141038       5.43423752E-12  
0.22145942       5.45827226E-12  
0.22150847       5.48241670E-12  
0.22155755       5.50671397E-12  
0.22160665       5.53118398E-12  
0.22165577       5.55595730E-12  
0.22170491       5.58092755E-12  
0.22175407       5.60583384E-12  
0.22180326       5.63091877E-12  
0.22185247       4.69547759E-12  
0.22190170       4.20881609E-12  
0.22195095       4.22781204E-12  
0.22200022       4.24693979E-12  
0.22204952       4.26619698E-12  
0.22209883       3.35779228E-12  
0.22214817       3.23028101E-12  
0.22219753       3.24508799E-12  
0.22224692       3.25999047E-12  
0.22229632       3.27498893E-12  
0.22234575       3.19858917E-12  
0.22239520       2.52232537E-12  
0.22244467       2.53403993E-12  
0.22249416       2.54584121E-12  
0.22254367       2.55771601E-12  
0.22259321       2.56966176E-12  
0.22264277       2.58167507E-12  
0.22269235       2.52906393E-12  
0.22274195       2.02248026E-12  
0.22279158       2.03204249E-12  
0.22284123       2.04165872E-12  
0.22289089       2.05133279E-12  
0.22294059       2.06106616E-12  
0.22299030       2.07085737E-12  
0.22304004       2.08070344E-12  
0.22308979       2.09060463E-12  
0.22313957       1.89138845E-12  
0.22318938       1.66353631E-12  
0.22323920       1.67153216E-12  
0.22328905       1.67957355E-12  
0.22333892       1.68765670E-12  
0.22338881       1.69578790E-12  
0.22343872       1.70395144E-12  
0.22348866       1.71215034E-12  
0.22353862       1.72038580E-12  
0.22358860       1.72865974E-12  
0.22363860       1.73697300E-12  
0.22368863       1.54050091E-12  
0.22373867       1.39668944E-12  
0.22378874       1.40341709E-12  
0.22383884       1.41017062E-12  
0.22388895       1.41695483E-12  
0.22393909       1.42377031E-12  
0.22398925       1.43061483E-12  
0.22403943       1.43748892E-12  
0.22408964       1.44439214E-12  
0.22413986       1.45132128E-12  
0.22419011       1.45828009E-12  
0.22424039       1.46527010E-12  
0.22429068       1.47228995E-12  
0.22434100       1.47934007E-12  
0.22439134       1.31241457E-12  
0.22444170       1.21047710E-12  
0.22449209       1.21624605E-12  
0.22454249       1.22203619E-12  
0.22459293       1.22784731E-12  
0.22464338       1.23367601E-12  
0.22469385       1.23952525E-12  
0.22474435       1.24539821E-12  
0.22479487       1.25129075E-12  
0.22484542       1.25720643E-12  
0.22489599       1.26313990E-12  
0.22494658       1.26909186E-12  
0.22499719       1.27506347E-12  
0.22504782       1.28105461E-12  
0.22509848       1.28706634E-12  
0.22514916       1.29310186E-12  
0.22519986       1.29915881E-12  
0.22525059       1.30523302E-12  
0.22530134       1.23363360E-12  
0.22535211       1.08028547E-12  
0.22540291       1.08528067E-12  
0.22545373       1.09028893E-12  
0.22550457       1.09530206E-12  
0.22555543       1.10031158E-12  
0.22560632       1.10535259E-12  
0.22565723       1.11040707E-12  
0.22570816       1.11547167E-12  
0.22575912       1.12054453E-12  
0.22581009       1.12562765E-12  
0.22586110       1.13072000E-12  
0.22591212       1.13582272E-12  
0.22596317       1.14094049E-12  
0.22601424       1.14607854E-12  
0.22606533       1.15123743E-12  
0.22611645       1.15641631E-12  
0.22616759       1.16161139E-12  
0.22621875       1.16681695E-12  
0.22626994       1.17202727E-12  
0.22632115       1.17724589E-12  
0.22637238       1.18247483E-12  
0.22642364       1.18771188E-12  
0.22647492       1.19295179E-12  
0.22652622       1.19821391E-12  
