# ATMO emission spectrum
# Wavelength [microns]  |  Flux [W/m2/micron]
0.20002000       3.41557759E-15  
0.20006002       3.44597550E-15  
0.20010005       3.47663593E-15  
0.20014010       3.50758592E-15  
0.20018016       3.53877494E-15  
0.20022024       3.57017770E-15  
0.20026034       3.60180232E-15  
0.20030045       3.63367436E-15  
0.20034058       3.66583839E-15  
0.20038072       3.69811014E-15  
0.20042088       3.73051555E-15  
0.20046106       3.76356893E-15  
0.20050125       3.79743332E-15  
0.20054146       3.83162090E-15  
0.20058169       3.86592486E-15  
0.20062193       3.90037119E-15  
0.20066219       3.93493536E-15  
0.20070246       3.96951309E-15  
0.20074275       4.00416942E-15  
0.20078305       4.03940786E-15  
0.20082338       4.07578621E-15  
0.20086371       4.11278089E-15  
0.20090407       4.14974618E-15  
0.20094444       4.18701162E-15  
0.20098483       4.22461522E-15  
0.20102523       4.26234624E-15  
0.20106565       4.30028763E-15  
0.20110608       4.33860645E-15  
0.20114654       4.37733866E-15  
0.20118700       4.41647578E-15  
0.20122749       4.45583892E-15  
0.20126799       4.49541075E-15  
0.20130851       4.53532597E-15  
0.20134904       4.57560925E-15  
0.20138959       4.61618381E-15  
0.20143015       4.65714378E-15  
0.20147074       4.69843764E-15  
0.20151134       4.74005522E-15  
0.20155195       4.78193448E-15  
0.20159258       4.82408131E-15  
0.20163323       4.86658171E-15  
0.20167389       4.90961262E-15  
0.20171457       4.95305123E-15  
0.20175527       4.99680883E-15  
0.20179598       5.04116950E-15  
0.20183671       5.08623988E-15  
0.20187746       5.13169769E-15  
0.20191822       5.17741700E-15  
0.20195900       5.22341602E-15  
0.20199980       5.26971072E-15  
0.20204061       5.31626405E-15  
0.20208144       5.36302024E-15  
0.20212228       5.41049600E-15  
0.20216315       5.45876220E-15  
0.20220402       5.50733201E-15  
0.20224492       5.55616401E-15  
0.20228583       5.60539191E-15  
0.20232676       5.65502547E-15  
0.20236770       5.70506572E-15  
0.20240866       5.75551833E-15  
0.20244964       5.80639560E-15  
0.20249063       5.85772447E-15  
0.20253165       5.90951301E-15  
0.20257267       5.96172599E-15  
0.20261372       6.01437386E-15  
0.20265478       6.06747052E-15  
0.20269585       6.12106132E-15  
0.20273695       6.17520159E-15  
0.20277806       6.22975166E-15  
0.20281919       6.28471301E-15  
0.20286033       6.34015302E-15  
0.20290149       6.39609349E-15  
0.20294267       6.45240581E-15  
0.20298386       6.50897817E-15  
0.20302507       6.56545226E-15  
0.20306630       6.62174295E-15  
0.20310755       6.68083578E-15  
0.20314881       6.74093106E-15  
0.20319008       6.80082789E-15  
0.20323138       6.86084335E-15  
0.20327269       6.92115478E-15  
0.20331402       6.98174336E-15  
0.20335536       7.04243702E-15  
0.20339673       7.10270786E-15  
0.20343810       7.16126638E-15  
0.20347950       7.21485047E-15  
0.20352091       7.26700225E-15  
0.20356234       7.34263134E-15  
0.20360379       7.41725517E-15  
0.20364525       7.48635718E-15  
0.20368673       7.55416472E-15  
0.20372823       7.62155788E-15  
0.20376974       7.68903808E-15  
0.20381127       7.75686197E-15  
0.20385282       7.82539389E-15  
0.20389438       7.89444529E-15  
0.20393596       7.96419713E-15  
0.20397756       8.03426253E-15  
0.20401918       8.10479655E-15  
0.20406081       8.17620509E-15  
0.20410246       8.24815165E-15  
0.20414413       8.32065333E-15  
0.20418581       8.39375555E-15  
0.20422751       8.46748064E-15  
0.20426923       8.54183667E-15  
0.20431096       8.61682666E-15  
0.20435271       8.69246336E-15  
0.20439448       8.76871686E-15  
0.20443627       8.84563635E-15  
0.20447807       8.92322532E-15  
0.20451989       9.00147250E-15  
0.20456173       9.08037923E-15  
0.20460358       9.15994249E-15  
0.20464545       9.24014059E-15  
0.20468734       9.32091201E-15  
0.20472925       9.40206434E-15  
0.20477117       9.48304075E-15  
0.20481311       9.56508118E-15  
0.20485507       9.65050079E-15  
0.20489704       9.73605103E-15  
0.20493903       9.82169210E-15  
0.20498104       9.90782682E-15  
0.20502307       9.99459170E-15  
0.20506511       1.00820181E-14  
0.20510717       1.01700793E-14  
0.20514925       1.02586497E-14  
0.20519134       1.03473211E-14  
0.20523345       1.04356651E-14  
0.20527558       1.05266669E-14  
0.20531773       1.06210308E-14  
0.20535989       1.07148855E-14  
0.20540207       1.08091041E-14  
0.20544427       1.09039080E-14  
0.20548649       1.09993488E-14  
0.20552872       1.10955305E-14  
0.20557097       1.11924974E-14  
0.20561324       1.12902538E-14  
0.20565553       1.13888483E-14  
0.20569783       1.14883251E-14  
0.20574015       1.15885474E-14  
0.20578249       1.16895853E-14  
0.20582484       1.17916108E-14  
0.20586722       1.18944861E-14  
0.20590961       1.19981342E-14  
0.20595201       1.21024646E-14  
0.20599444       1.22072377E-14  
0.20603688       1.23134882E-14  
0.20607934       1.24216519E-14  
0.20612182       1.25303162E-14  
0.20616431       1.26396546E-14  
0.20620683       1.27498441E-14  
0.20624936       1.28609329E-14  
0.20629190       1.29729501E-14  
0.20633447       1.30859273E-14  
0.20637705       1.31998500E-14  
0.20641965       1.33147341E-14  
0.20646227       1.34305877E-14  
0.20650490       1.35473603E-14  
0.20654756       1.36649882E-14  
0.20659023       1.37837898E-14  
0.20663292       1.39037941E-14  
0.20667562       1.40246238E-14  
0.20671835       1.41464952E-14  
0.20676109       1.42692789E-14  
0.20680385       1.43934080E-14  
0.20684662       1.45187506E-14  
0.20688942       1.46449529E-14  
0.20693223       1.47720455E-14  
0.20697506       1.49003318E-14  
0.20701791       1.50298350E-14  
0.20706077       1.51603245E-14  
0.20710366       1.52918789E-14  
0.20714656       1.54245798E-14  
0.20718947       1.55583262E-14  
0.20723241       1.56930377E-14  
0.20727537       1.58284166E-14  
0.20731834       1.59640274E-14  
0.20736133       1.61019799E-14  
0.20740433       1.62403545E-14  
0.20744736       1.63808200E-14  
0.20749040       1.65217008E-14  
0.20753346       1.66629709E-14  
0.20757654       1.68041774E-14  
0.20761964       1.69441967E-14  
0.20766276       1.70802084E-14  
0.20770589       1.72044150E-14  
0.20774904       1.72953947E-14  
0.20779221       1.73532884E-14  
0.20783539       1.75539526E-14  
0.20787860       1.77898235E-14  
0.20792182       1.79791705E-14  
0.20796506       1.81500543E-14  
0.20800832       1.83146304E-14  
0.20805160       1.84500220E-14  
0.20809489       1.85724368E-14  
0.20813820       1.87174560E-14  
0.20818153       1.88552796E-14  
0.20822488       1.89806942E-14  
0.20826825       1.90860802E-14  
0.20831163       1.91459880E-14  
0.20835504       1.91180489E-14  
0.20839846       1.88682342E-14  
0.20844190       1.83824084E-14  
0.20848535       1.81992614E-14  
0.20852883       1.88814205E-14  
0.20857232       1.95504976E-14  
0.20861583       1.99340253E-14  
0.20865936       2.01514981E-14  
0.20870291       2.02115646E-14  
0.20874648       1.99534221E-14  
0.20879006       1.92925413E-14  
0.20883366       1.92911160E-14  
0.20887728       2.03500388E-14  
0.20892092       2.11718894E-14  
0.20896458       2.16388429E-14  
0.20900826       2.18730603E-14  
0.20905195       2.19944188E-14  
0.20909566       2.19980585E-14  
0.20913939       2.19680798E-14  
0.20918314       2.22851777E-14  
0.20922691       2.27079720E-14  
0.20927069       2.29845378E-14  
0.20931450       2.30254679E-14  
0.20935832       2.27733350E-14  
0.20940216       2.20743271E-14  
0.20944602       2.18875713E-14  
0.20948989       2.30002621E-14  
0.20953379       2.39010806E-14  
0.20957770       2.44507477E-14  
0.20962163       2.48332886E-14  
0.20966558       2.51063268E-14  
0.20970955       2.53492618E-14  
0.20975354       2.55583480E-14  
0.20979755       2.57366637E-14  
0.20984157       2.58525774E-14  
0.20988561       2.58812548E-14  
0.20992967       2.56906698E-14  
0.20997375       2.55781526E-14  
0.21001785       2.56503478E-14  
0.21006197       2.53429047E-14  
0.21010610       2.54506913E-14  
0.21015026       2.60727245E-14  
0.21019443       2.69027682E-14  
0.21023862       2.74725171E-14  
0.21028283       2.77233061E-14  
0.21032706       2.79607662E-14  
0.21037131       2.83428137E-14  
0.21041557       2.88339535E-14  
0.21045985       2.91931218E-14  
0.21050416       2.95066096E-14  
0.21054848       2.97675019E-14  
0.21059282       2.99192444E-14  
0.21063718       2.98902271E-14  
0.21068155       2.96100200E-14  
0.21072595       2.97773945E-14  
0.21077037       3.04924715E-14  
0.21081480       3.09216876E-14  
0.21085925       3.09949442E-14  
0.21090372       3.10022392E-14  
0.21094821       3.11540942E-14  
0.21099272       3.16995696E-14  
0.21103725       3.24377758E-14  
0.21108179       3.29518632E-14  
0.21112636       3.33470454E-14  
0.21117094       3.36992701E-14  
0.21121555       3.40135977E-14  
0.21126017       3.43125108E-14  
0.21130481       3.45574834E-14  
0.21134947       3.47655214E-14  
0.21139414       3.50616940E-14  
0.21143884       3.53834186E-14  
0.21148356       3.55576360E-14  
0.21152829       3.56803218E-14  
0.21157305       3.60178986E-14  
0.21161782       3.65066776E-14  
0.21166261       3.70003059E-14  
0.21170742       3.74153303E-14  
0.21175225       3.77856683E-14  
0.21179710       3.81366949E-14  
0.21184197       3.84806827E-14  
0.21188685       3.88145174E-14  
0.21193176       3.91407226E-14  
0.21197668       3.94665914E-14  
0.21202163       3.98244059E-14  
0.21206659       4.01825924E-14  
0.21211157       4.05272728E-14  
0.21215657       4.08695736E-14  
0.21220159       4.12152607E-14  
0.21224663       4.15703144E-14  
0.21229169       4.19253077E-14  
0.21233677       4.22816401E-14  
0.21238186       4.26407501E-14  
0.21242698       4.30027849E-14  
0.21247211       4.33671129E-14  
0.21251727       4.37330165E-14  
0.21256244       4.40992025E-14  
0.21260763       4.44674071E-14  
0.21265284       4.48406996E-14  
0.21269808       4.52056462E-14  
0.21274333       4.55822378E-14  
0.21278859       4.59840343E-14  
0.21283388       4.63622486E-14  
0.21287919       4.67551115E-14  
0.21292452       4.71466264E-14  
0.21296986       4.75352878E-14  
0.21301523       4.79192594E-14  
0.21306062       4.82952219E-14  
0.21310602       4.86477910E-14  
0.21315144       4.89398476E-14  
0.21319689       4.90628294E-14  
0.21324235       4.87966808E-14  
0.21328783       4.90926659E-14  
0.21333333       5.02341197E-14  
0.21337885       5.10096799E-14  
0.21342439       5.15803061E-14  
0.21346995       5.20815097E-14  
0.21351553       5.25561356E-14  
0.21356113       5.30157534E-14  
0.21360675       5.34028929E-14  
0.21365239       5.38389807E-14  
0.21369804       5.42649897E-14  
0.21374372       5.46924779E-14  
0.21378942       5.50652836E-14  
0.21383513       5.53604496E-14  
0.21388087       5.54772085E-14  
0.21392662       5.53561495E-14  
0.21397240       5.50585275E-14  
0.21401819       5.40407342E-14  
0.21406401       5.47788402E-14  
0.21410984       5.69218294E-14  
0.21415569       5.82423329E-14  
0.21420156       5.90987462E-14  
0.21424746       5.97685054E-14  
0.21429337       6.03923164E-14  
0.21433930       6.09807199E-14  
0.21438525       6.15354392E-14  
0.21443122       6.20595860E-14  
0.21447721       6.25458506E-14  
0.21452322       6.30013369E-14  
0.21456925       6.32638722E-14  
0.21461530       6.38456350E-14  
0.21466137       6.46098556E-14  
0.21470746       6.52291943E-14  
0.21475357       6.58135134E-14  
0.21479970       6.64364940E-14  
0.21484585       6.70264720E-14  
0.21489202       6.75914291E-14  
0.21493821       6.81610685E-14  
0.21498441       6.87376898E-14  
0.21503064       6.92991502E-14  
0.21507689       6.98406182E-14  
0.21512316       7.03240565E-14  
0.21516945       7.07539158E-14  
0.21521575       7.14233046E-14  
0.21526208       7.21141693E-14  
0.21530843       7.26718281E-14  
0.21535480       7.31317131E-14  
0.21540118       7.37976351E-14  
0.21544759       7.45702720E-14  
0.21549402       7.52363826E-14  
0.21554047       7.58484425E-14  
0.21558694       7.64398873E-14  
0.21563342       7.70459980E-14  
0.21567993       7.76248553E-14  
0.21572646       7.80949619E-14  
0.21577301       7.83207363E-14  
0.21581957       7.80325915E-14  
0.21586616       7.81589684E-14  
0.21591277       7.89435661E-14  
0.21595940       7.98337918E-14  
0.21600605       8.10607559E-14  
0.21605272       8.21659356E-14  
0.21609941       8.32663808E-14  
0.21614611       8.41990332E-14  
0.21619284       8.49351682E-14  
0.21623959       8.56672206E-14  
0.21628636       8.59272191E-14  
0.21633315       8.61356370E-14  
0.21637996       8.64984406E-14  
0.21642679       8.66091836E-14  
0.21647364       8.64344534E-14  
0.21652052       8.59294580E-14  
0.21656741       8.49230877E-14  
0.21661432       8.19670648E-14  
0.21666125       7.44975521E-14  
0.21670820       5.94629084E-14  
0.21675518       5.20445471E-14  
0.21680217       6.81276253E-14  
0.21684918       8.15689846E-14  
0.21689622       8.84695889E-14  
0.21694327       9.22921840E-14  
0.21699034       9.47257354E-14  
0.21703744       9.64812740E-14  
0.21708455       9.78469396E-14  
0.21713169       9.89210066E-14  
0.21717885       9.97194412E-14  
0.21722602       1.01340907E-13  
0.21727322       1.02314745E-13  
0.21732044       1.03026437E-13  
0.21736768       1.03993797E-13  
0.21741494       1.04933586E-13  
0.21746222       1.06029229E-13  
0.21750952       1.06975247E-13  
0.21755684       1.07783530E-13  
0.21760418       1.08469431E-13  
0.21765154       1.08969228E-13  
0.21769892       1.09094591E-13  
0.21774633       1.08421402E-13  
0.21779375       1.06126815E-13  
0.21784119       9.93705287E-14  
0.21788866       9.63804620E-14  
0.21793614       1.05970642E-13  
0.21798365       1.12125765E-13  
0.21803118       1.15229972E-13  
0.21807873       1.17153124E-13  
0.21812630       1.18554388E-13  
0.21817388       1.19819552E-13  
0.21822149       1.21106947E-13  
0.21826913       1.22180045E-13  
0.21831678       1.23214550E-13  
0.21836445       1.24438655E-13  
0.21841214       1.25412614E-13  
0.21845986       1.26310648E-13  
0.21850759       1.27107209E-13  
0.21855535       1.27667904E-13  
0.21860313       1.27663860E-13  
0.21865092       1.26193189E-13  
0.21869874       1.22099723E-13  
0.21874658       1.22121303E-13  
0.21879444       1.25310376E-13  
0.21884232       1.30611130E-13  
0.21889023       1.34011648E-13  
0.21893815       1.36034411E-13  
0.21898609       1.37493245E-13  
0.21903406       1.38638158E-13  
0.21908205       1.39458683E-13  
0.21913005       1.39666480E-13  
0.21917808       1.38293777E-13  
0.21922613       1.34293751E-13  
0.21927420       1.35085173E-13  
0.21932229       1.41880869E-13  
0.21937041       1.45669543E-13  
0.21941854       1.47872298E-13  
0.21946670       1.49453337E-13  
0.21951487       1.50673283E-13  
0.21956307       1.51441150E-13  
0.21961129       1.51172695E-13  
0.21965953       1.49412698E-13  
0.21970779       1.51971024E-13  
0.21975607       1.56060960E-13  
0.21980437       1.58375241E-13  
0.21985270       1.60083358E-13  
0.21990104       1.61514914E-13  
0.21994941       1.62758231E-13  
0.21999780       1.63726301E-13  
0.22004621       1.64022294E-13  
0.22009464       1.63087107E-13  
0.22014309       1.64004272E-13  
0.22019157       1.67618644E-13  
0.22024006       1.70510799E-13  
0.22028858       1.72511255E-13  
0.22033712       1.74192089E-13  
0.22038567       1.75755893E-13  
0.22043426       1.77273027E-13  
0.22048286       1.78771682E-13  
0.22053148       1.80265042E-13  
0.22058013       1.81771435E-13  
0.22062879       1.83316837E-13  
0.22067748       1.84818290E-13  
0.22072619       1.86297154E-13  
0.22077492       1.87778871E-13  
0.22082367       1.89343914E-13  
0.22087245       1.90910528E-13  
0.22092124       1.92466103E-13  
0.22097006       1.94035004E-13  
0.22101890       1.95613994E-13  
0.22106776       1.97182604E-13  
0.22111664       1.98721257E-13  
0.22116554       2.00267886E-13  
0.22121447       2.01930481E-13  
0.22126341       2.03652138E-13  
0.22131238       2.05342211E-13  
0.22136137       2.07025694E-13  
0.22141038       2.08715621E-13  
0.22145942       2.10416093E-13  
0.22150847       2.12128372E-13  
0.22155755       2.13853579E-13  
0.22160665       2.15591806E-13  
0.22165577       2.17343996E-13  
0.22170491       2.19108831E-13  
0.22175407       2.20883516E-13  
0.22180326       2.22664733E-13  
0.22185247       1.39882455E-13  
0.22190170       9.91822116E-14  
0.22195095       9.97689642E-14  
0.22200022       1.00356344E-13  
0.22204952       1.00945056E-13  
0.22209883       5.98161610E-14  
0.22214817       5.44019710E-14  
0.22219753       5.46576471E-14  
0.22224692       5.49137914E-14  
0.22229632       5.51697257E-14  
0.22234575       5.26965851E-14  
0.22239520       3.35301452E-14  
0.22244467       3.36669430E-14  
0.22249416       3.38037438E-14  
0.22254367       3.39404873E-14  
0.22259321       3.40771382E-14  
0.22264277       3.42136288E-14  
0.22269235       3.29805941E-14  
0.22274195       2.26034510E-14  
0.22279158       2.26880814E-14  
0.22284123       2.27705115E-14  
0.22289089       2.28525181E-14  
0.22294059       2.29416325E-14  
0.22299030       2.30292212E-14  
0.22304004       2.31157288E-14  
0.22308979       2.32002475E-14  
0.22313957       1.99024263E-14  
0.22318938       1.62746788E-14  
0.22323920       1.63377919E-14  
0.22328905       1.64000521E-14  
0.22333892       1.64604424E-14  
0.22338881       1.65202503E-14  
0.22343872       1.65797714E-14  
0.22348866       1.66391272E-14  
0.22353862       1.66983644E-14  
0.22358860       1.67575007E-14  
0.22363860       1.68165410E-14  
0.22368863       1.41704278E-14  
0.22373867       1.22703295E-14  
0.22378874       1.23136416E-14  
0.22383884       1.23568441E-14  
0.22388895       1.23999344E-14  
0.22393909       1.24430933E-14  
0.22398925       1.24861669E-14  
0.22403943       1.25291128E-14  
0.22408964       1.25719470E-14  
0.22413986       1.26146557E-14  
0.22419011       1.26572219E-14  
0.22424039       1.26995630E-14  
0.22429068       1.27413931E-14  
0.22434100       1.27833404E-14  
0.22439134       1.08652123E-14  
0.22444170       9.70166462E-15  
0.22449209       9.73405153E-15  
0.22454249       9.76625850E-15  
0.22459293       9.79811219E-15  
0.22464338       9.82986875E-15  
0.22469385       9.86225885E-15  
0.22474435       9.89431104E-15  
0.22479487       9.92610406E-15  
0.22484542       9.95774062E-15  
0.22489599       9.98922534E-15  
0.22494658       1.00205559E-14  
0.22499719       1.00517035E-14  
0.22504782       1.00825614E-14  
0.22509848       1.01127221E-14  
0.22514916       1.01423282E-14  
0.22519986       1.01741503E-14  
0.22525059       1.02051912E-14  
0.22530134       9.46878729E-15  
0.22535211       7.94470126E-15  
0.22540291       7.96886108E-15  
0.22545373       7.99286799E-15  
0.22550457       8.01671566E-15  
0.22555543       8.04038824E-15  
0.22560632       8.06398463E-15  
0.22565723       8.08744898E-15  
0.22570816       8.11076418E-15  
0.22575912       8.13390606E-15  
0.22581009       8.15684305E-15  
0.22586110       8.17947538E-15  
0.22591212       8.20150293E-15  
0.22596317       8.22172771E-15  
0.22601424       8.23971866E-15  
0.22606533       8.26570017E-15  
0.22611645       8.29108071E-15  
0.22616759       8.31413358E-15  
0.22621875       8.33643736E-15  
0.22626994       8.35835815E-15  
0.22632115       8.38000256E-15  
0.22637238       8.40134514E-15  
0.22642364       8.42245368E-15  
0.22647492       8.44369327E-15  
0.22652622       8.46451220E-15  
