# ATMO emission spectrum
# Wavelength [microns]  |  Flux [W/m2/micron]
0.20002000       1.11960827E-10  
0.20006002       1.02801473E-10  
0.20010005       9.66508310E-11  
0.20014010       9.41285685E-11  
0.20018016       9.11839900E-11  
0.20022024       8.74522261E-11  
0.20026034       8.43758852E-11  
0.20030045       8.11484916E-11  
0.20034058       7.82695712E-11  
0.20038072       7.37510507E-11  
0.20042088       7.01237978E-11  
0.20046106       6.94326119E-11  
0.20050125       6.94331446E-11  
0.20054146       6.96297200E-11  
0.20058169       7.02371416E-11  
0.20062193       7.03523790E-11  
0.20066219       6.97814608E-11  
0.20070246       6.86204096E-11  
0.20074275       6.81418551E-11  
0.20078305       6.81633577E-11  
0.20082338       6.89524647E-11  
0.20086371       7.25825020E-11  
0.20090407       7.54405088E-11  
0.20094444       7.80858390E-11  
0.20098483       8.13791322E-11  
0.20102523       8.48555812E-11  
0.20106565       8.76228613E-11  
0.20110608       9.04738930E-11  
0.20114654       9.30480673E-11  
0.20118700       1.00554508E-10  
0.20122749       1.05540800E-10  
0.20126799       1.04282498E-10  
0.20130851       1.04987200E-10  
0.20134904       1.06676413E-10  
0.20138959       1.02894056E-10  
0.20143015       1.01509138E-10  
0.20147074       1.00440823E-10  
0.20151134       1.00048631E-10  
0.20155195       9.79837186E-11  
0.20159258       9.58693600E-11  
0.20163323       9.41594389E-11  
0.20167389       9.27880956E-11  
0.20171457       9.17964028E-11  
0.20175527       9.23292182E-11  
0.20179598       9.35126093E-11  
0.20183671       9.50423642E-11  
0.20187746       9.72218578E-11  
0.20191822       9.93541247E-11  
0.20195900       1.00762922E-10  
0.20199980       1.01129973E-10  
0.20204061       1.00792039E-10  
0.20208144       1.00985763E-10  
0.20212228       1.01607009E-10  
0.20216315       1.04539665E-10  
0.20220402       1.11258931E-10  
0.20224492       1.13941216E-10  
0.20228583       1.15584770E-10  
0.20232676       1.16847318E-10  
0.20236770       1.17771071E-10  
0.20240866       1.18422683E-10  
0.20244964       1.18754404E-10  
0.20249063       1.19208420E-10  
0.20253165       1.20082822E-10  
0.20257267       1.20109956E-10  
0.20261372       1.19983237E-10  
0.20265478       1.19410816E-10  
0.20269585       1.16875418E-10  
0.20273695       1.16848779E-10  
0.20277806       1.16549452E-10  
0.20281919       1.15533243E-10  
0.20286033       1.14098852E-10  
0.20290149       1.12266641E-10  
0.20294267       1.08971073E-10  
0.20298386       1.03838778E-10  
0.20302507       9.74286412E-11  
0.20306630       9.36551594E-11  
0.20310755       9.11520750E-11  
0.20314881       9.04763115E-11  
0.20319008       9.23760656E-11  
0.20323138       9.17267322E-11  
0.20327269       8.89563403E-11  
0.20331402       8.41319279E-11  
0.20335536       7.72960355E-11  
0.20339673       6.84784934E-11  
0.20343810       5.82928560E-11  
0.20347950       4.87331073E-11  
0.20352091       4.46099515E-11  
0.20356234       4.95056236E-11  
0.20360379       5.98983803E-11  
0.20364525       7.07595461E-11  
0.20368673       8.03254062E-11  
0.20372823       8.80937766E-11  
0.20376974       9.40877760E-11  
0.20381127       9.88845961E-11  
0.20385282       1.03304159E-10  
0.20389438       1.07175358E-10  
0.20393596       1.19576417E-10  
0.20397756       1.26176414E-10  
0.20401918       1.26572117E-10  
0.20406081       1.28223993E-10  
0.20410246       1.29905299E-10  
0.20414413       1.31195931E-10  
0.20418581       1.32125344E-10  
0.20422751       1.32986793E-10  
0.20426923       1.33683404E-10  
0.20431096       1.34091735E-10  
0.20435271       1.34439337E-10  
0.20439448       1.32619480E-10  
0.20443627       1.31540094E-10  
0.20447807       1.31026314E-10  
0.20451989       1.30156574E-10  
0.20456173       1.28904137E-10  
0.20460358       1.27102506E-10  
0.20464545       1.24482662E-10  
0.20468734       1.20659169E-10  
0.20472925       1.15325473E-10  
0.20477117       1.09680376E-10  
0.20481311       1.07957222E-10  
0.20485507       1.10378446E-10  
0.20489704       1.15830297E-10  
0.20493903       1.19919636E-10  
0.20498104       1.22085951E-10  
0.20502307       1.22758400E-10  
0.20506511       1.21985480E-10  
0.20510717       1.19659479E-10  
0.20514925       1.15507837E-10  
0.20519134       1.09653220E-10  
0.20523345       1.05101510E-10  
0.20527558       1.05260475E-10  
0.20531773       1.10522468E-10  
0.20535989       1.17004513E-10  
0.20540207       1.22449685E-10  
0.20544427       1.26776342E-10  
0.20548649       1.30015283E-10  
0.20552872       1.32374124E-10  
0.20557097       1.34079868E-10  
0.20561324       1.34490551E-10  
0.20565553       1.35216226E-10  
0.20569783       1.37841542E-10  
0.20574015       1.37431714E-10  
0.20578249       1.36834010E-10  
0.20582484       1.36417347E-10  
0.20586722       1.35649789E-10  
0.20590961       1.34089819E-10  
0.20595201       1.31538784E-10  
0.20599444       1.29008756E-10  
0.20603688       1.28990252E-10  
0.20607934       1.31784256E-10  
0.20612182       1.35185836E-10  
0.20616431       1.37486959E-10  
0.20620683       1.39197552E-10  
0.20624936       1.40367257E-10  
0.20629190       1.41080442E-10  
0.20633447       1.41589346E-10  
0.20637705       1.41700455E-10  
0.20641965       1.41702033E-10  
0.20646227       1.42091262E-10  
0.20650490       1.41336027E-10  
0.20654756       1.40249688E-10  
0.20659023       1.39936073E-10  
0.20663292       1.40231061E-10  
0.20667562       1.40417229E-10  
0.20671835       1.40323434E-10  
0.20676109       1.40348584E-10  
0.20680385       1.41031133E-10  
0.20684662       1.42190884E-10  
0.20688942       1.42890620E-10  
0.20693223       1.42355478E-10  
0.20697506       1.42705605E-10  
0.20701791       1.43424991E-10  
0.20706077       1.43725657E-10  
0.20710366       1.43691312E-10  
0.20714656       1.43326349E-10  
0.20718947       1.42310473E-10  
0.20723241       1.40385106E-10  
0.20727537       1.37161208E-10  
0.20731834       1.34453922E-10  
0.20736133       1.27328554E-10  
0.20740433       1.06183007E-10  
0.20744736       1.03215606E-10  
0.20749040       9.86915444E-11  
0.20753346       9.27173806E-11  
0.20757654       8.52656870E-11  
0.20761964       7.62317621E-11  
0.20766276       6.56103814E-11  
0.20770589       5.39148896E-11  
0.20774904       4.27634282E-11  
0.20779221       3.62638250E-11  
0.20783539       3.94716019E-11  
0.20787860       5.00454585E-11  
0.20792182       6.25497987E-11  
0.20796506       7.45542157E-11  
0.20800832       8.51125801E-11  
0.20805160       5.73377313E-11  
0.20809489       4.03638163E-11  
0.20813820       3.67303652E-11  
0.20818153       3.25710016E-11  
0.20822488       2.80569948E-11  
0.20826825       2.36057349E-11  
0.20831163       1.89761200E-11  
0.20835504       1.47107038E-11  
0.20839846       1.03402107E-11  
0.20844190       7.81623002E-12  
0.20848535       7.12606466E-12  
0.20852883       8.12279702E-12  
0.20857232       1.00052179E-11  
0.20861583       1.13043038E-11  
0.20865936       1.15231379E-11  
0.20870291       1.04813777E-11  
0.20874648       8.39057234E-12  
0.20879006       6.53196485E-12  
0.20883366       6.38919257E-12  
0.20887728       8.30933065E-12  
0.20892092       1.18348286E-11  
0.20896458       1.53136194E-11  
0.20900826       1.61041864E-11  
0.20905195       1.55272533E-11  
0.20909566       1.40740756E-11  
0.20913939       1.29069178E-11  
0.20918314       1.35188291E-11  
0.20922691       1.49770640E-11  
0.20927069       1.60964233E-11  
0.20931450       1.40665963E-11  
0.20935832       1.09019142E-11  
0.20940216       8.15407452E-12  
0.20944602       7.61660321E-12  
0.20948989       9.75847633E-12  
0.20953379       1.35577748E-11  
0.20957770       1.80985389E-11  
0.20962163       2.30668403E-11  
0.20966558       2.50342262E-11  
0.20970955       2.61906801E-11  
0.20975354       2.56310609E-11  
0.20979755       2.38974655E-11  
0.20984157       2.08003489E-11  
0.20988561       1.77987368E-11  
0.20992967       1.39767857E-11  
0.20997375       1.17518981E-11  
0.21001785       1.05301580E-11  
0.21006197       9.23991202E-12  
0.21010610       9.02374446E-12  
0.21015026       1.03279696E-11  
0.21019443       1.27604328E-11  
0.21023862       1.53868841E-11  
0.21028283       1.64693042E-11  
0.21032706       1.74360806E-11  
0.21037131       1.94062279E-11  
0.21041557       2.31569145E-11  
0.21045985       2.59660501E-11  
0.21050416       2.75991264E-11  
0.21054848       2.78998542E-11  
0.21059282       2.52073069E-11  
0.21063718       2.07022315E-11  
0.21068155       1.66325951E-11  
0.21072595       1.60190330E-11  
0.21077037       1.83556662E-11  
0.21081480       1.98161932E-11  
0.21085925       1.86538617E-11  
0.21090372       1.71734472E-11  
0.21094821       1.69872178E-11  
0.21099272       1.93535334E-11  
0.21103725       2.46980842E-11  
0.21108179       3.07323308E-11  
0.21112636       3.60101921E-11  
0.21117094       4.27753818E-11  
0.21121555       4.58230659E-11  
0.21126017       4.67948212E-11  
0.21130481       4.49069670E-11  
0.21134947       4.28263143E-11  
0.21139414       4.20464470E-11  
0.21143884       4.26305454E-11  
0.21148356       3.83147782E-11  
0.21152829       3.51224491E-11  
0.21157305       3.65237571E-11  
0.21161782       4.24165930E-11  
0.21166261       5.17473995E-11  
0.21170742       6.22361363E-11  
0.21175225       7.25722224E-11  
0.21179710       8.26522818E-11  
0.21184197       9.36384149E-11  
0.21188685       9.96035449E-11  
0.21193176       1.02725734E-10  
0.21197668       1.10598174E-10  
0.21202163       1.27021686E-10  
0.21206659       1.50099516E-10  
0.21211157       1.55488171E-10  
0.21215657       1.57065824E-10  
0.21220159       1.58992742E-10  
0.21224663       1.63520732E-10  
0.21229169       1.66512866E-10  
0.21233677       1.68763136E-10  
0.21238186       1.69625844E-10  
0.21242698       1.70552639E-10  
0.21247211       1.70226997E-10  
0.21251727       1.66833686E-10  
0.21256244       1.61730147E-10  
0.21260763       1.56440814E-10  
0.21265284       1.51503885E-10  
0.21269808       1.45507556E-10  
0.21274333       1.44047210E-10  
0.21278859       1.49487931E-10  
0.21283388       1.25936390E-10  
0.21287919       1.21679251E-10  
0.21292452       1.17528160E-10  
0.21296986       1.10883829E-10  
0.21301523       1.02040692E-10  
0.21306062       9.13445107E-11  
0.21310602       7.85874772E-11  
0.21315144       6.41379890E-11  
0.21319689       4.93294879E-11  
0.21324235       3.74402293E-11  
0.21328783       3.65120755E-11  
0.21333333       4.77135050E-11  
0.21337885       6.31785599E-11  
0.21342439       7.86904954E-11  
0.21346995       9.17533249E-11  
0.21351553       1.02098210E-10  
0.21356113       1.08772754E-10  
0.21360675       8.69127459E-11  
0.21365239       8.38729190E-11  
0.21369804       7.87183056E-11  
0.21374372       7.47880633E-11  
0.21378942       6.48641987E-11  
0.21383513       5.38400937E-11  
0.21388087       4.27912202E-11  
0.21392662       3.36216496E-11  
0.21397240       2.65038798E-11  
0.21401819       2.13381823E-11  
0.21406401       2.24013636E-11  
0.21410984       3.02759445E-11  
0.21415569       4.05461358E-11  
0.21420156       5.10606959E-11  
0.21424746       6.08805409E-11  
0.21429337       7.01464802E-11  
0.21433930       7.83460222E-11  
0.21438525       8.46858035E-11  
0.21443122       8.70745183E-11  
0.21447721       8.51651731E-11  
0.21452322       8.81443350E-11  
0.21456925       7.65222505E-11  
0.21461530       7.76473080E-11  
0.21466137       8.83339579E-11  
0.21470746       9.81219602E-11  
0.21475357       1.06901664E-10  
0.21479970       1.18166232E-10  
0.21484585       1.27236402E-10  
0.21489202       1.31486728E-10  
0.21493821       1.30886625E-10  
0.21498441       1.30657155E-10  
0.21503064       1.26283016E-10  
0.21507689       1.19952071E-10  
0.21512316       1.06267257E-10  
0.21516945       9.64406892E-11  
0.21521575       9.80203170E-11  
0.21526208       1.02325368E-10  
0.21530843       9.99218676E-11  
0.21535480       9.53596523E-11  
0.21540118       9.50818069E-11  
0.21544759       1.03549212E-10  
0.21549402       1.05465421E-10  
0.21554047       1.03135673E-10  
0.21558694       9.81154292E-11  
0.21563342       9.22911429E-11  
0.21567993       8.42744664E-11  
0.21572646       7.21962662E-11  
0.21577301       5.81010111E-11  
0.21581957       4.56278230E-11  
0.21586616       4.05417300E-11  
0.21591277       4.08828497E-11  
0.21595940       4.37168179E-11  
0.21600605       4.98013210E-11  
0.21605272       5.80281140E-11  
0.21609941       6.82706347E-11  
0.21614611       7.83072650E-11  
0.21619284       8.44612039E-11  
0.21623959       8.97560319E-11  
0.21628636       5.88601064E-11  
0.21633315       4.51026720E-11  
0.21637996       4.02777318E-11  
0.21642679       3.47759169E-11  
0.21647364       2.92447650E-11  
0.21652052       2.41207571E-11  
0.21656741       1.92012909E-11  
0.21661432       1.40256592E-11  
0.21666125       8.87557443E-12  
0.21670820       4.80564147E-12  
0.21675518       3.78735567E-12  
0.21680217       6.39115621E-12  
0.21684918       1.14696772E-11  
0.21689622       1.74294436E-11  
0.21694327       2.37899185E-11  
0.21699034       3.03771126E-11  
0.21703744       3.68620044E-11  
0.21708455       4.26996085E-11  
0.21713169       4.71189153E-11  
0.21717885       4.96748888E-11  
0.21722602       7.64687926E-11  
0.21727322       8.33631754E-11  
0.21732044       8.09467148E-11  
0.21736768       8.46642835E-11  
0.21741494       7.94301536E-11  
0.21746222       8.04823087E-11  
0.21750952       8.11081972E-11  
0.21755684       7.70215387E-11  
0.21760418       6.94918869E-11  
0.21765154       5.97151164E-11  
0.21769892       4.87161123E-11  
0.21774633       3.76032796E-11  
0.21779375       2.70684470E-11  
0.21784119       1.80075856E-11  
0.21788866       1.58842099E-11  
0.21793614       2.29578512E-11  
0.21798365       3.44693736E-11  
0.21803118       4.69864313E-11  
0.21807873       5.93497112E-11  
0.21812630       7.04754989E-11  
0.21817388       8.12817315E-11  
0.21822149       9.23774836E-11  
0.21826913       9.51096309E-11  
0.21831678       9.65443916E-11  
0.21836445       1.14402609E-10  
0.21841214       1.11740174E-10  
0.21845986       1.00901587E-10  
0.21850759       8.82483154E-11  
0.21855535       7.36788957E-11  
0.21860313       5.80379275E-11  
0.21865092       4.26070730E-11  
0.21869874       3.10635379E-11  
0.21874658       2.87296826E-11  
0.21879444       3.27199819E-11  
0.21884232       4.35698722E-11  
0.21889023       5.73954623E-11  
0.21893815       6.89310525E-11  
0.21898609       7.57371328E-11  
0.21903406       7.63979517E-11  
0.21908205       7.06621011E-11  
0.21913005       5.96169480E-11  
0.21917808       4.58574853E-11  
0.21922613       3.41902088E-11  
0.21927420       3.42058321E-11  
0.21932229       4.72638703E-11  
0.21937041       6.34872960E-11  
0.21941854       7.74753791E-11  
0.21946670       8.61093015E-11  
0.21951487       8.69963460E-11  
0.21956307       7.93475607E-11  
0.21961129       6.50708980E-11  
0.21965953       5.28691504E-11  
0.21970779       5.75874955E-11  
0.21975607       7.85539285E-11  
0.21980437       9.74598437E-11  
0.21985270       1.11249385E-10  
0.21990104       1.17361256E-10  
0.21994941       1.14504770E-10  
0.21999780       1.03010944E-10  
0.22004621       8.52774725E-11  
0.22009464       6.88728801E-11  
0.22014309       6.74877600E-11  
0.22019157       8.48410116E-11  
0.22024006       1.09361126E-10  
0.22028858       1.33826714E-10  
0.22033712       1.55429465E-10  
0.22038567       1.73641330E-10  
0.22043426       1.88686581E-10  
0.22048286       2.00998905E-10  
0.22053148       2.11103471E-10  
0.22058013       2.23964693E-10  
0.22062879       2.58140258E-10  
0.22067748       2.66432509E-10  
0.22072619       2.61280990E-10  
0.22077492       2.57873371E-10  
0.22082367       2.60487530E-10  
0.22087245       2.64069239E-10  
0.22092124       2.65243647E-10  
0.22097006       2.65214162E-10  
0.22101890       2.63613947E-10  
0.22106776       2.58636700E-10  
0.22111664       2.51063752E-10  
0.22116554       2.46881893E-10  
0.22121447       2.51603695E-10  
0.22126341       2.62487280E-10  
0.22131238       2.71759414E-10  
0.22136137       2.77683691E-10  
0.22141038       2.81675580E-10  
0.22145942       2.84637337E-10  
0.22150847       2.86690530E-10  
0.22155755       2.88279012E-10  
0.22160665       2.89543764E-10  
0.22165577       2.91061902E-10  
0.22170491       2.92196214E-10  
0.22175407       2.91478847E-10  
0.22180326       2.90071397E-10  
0.22185247       1.86519931E-10  
0.22190170       1.37166874E-10  
0.22195095       1.37780802E-10  
0.22200022       1.38111270E-10  
0.22204952       1.38199743E-10  
0.22209883       7.49607386E-11  
0.22214817       6.63211456E-11  
0.22219753       6.62595598E-11  
0.22224692       6.62585144E-11  
0.22229632       6.62147534E-11  
0.22234575       6.18305173E-11  
0.22239520       3.27440965E-11  
0.22244467       3.25710729E-11  
0.22249416       3.24146454E-11  
0.22254367       3.22512271E-11  
0.22259321       3.20710888E-11  
0.22264277       3.18575253E-11  
0.22269235       2.96405517E-11  
0.22274195       1.61115910E-11  
0.22279158       1.58779178E-11  
0.22284123       1.55546996E-11  
0.22289089       1.53144237E-11  
0.22294059       1.53383474E-11  
0.22299030       1.53840250E-11  
0.22304004       1.53458716E-11  
0.22308979       1.51721149E-11  
0.22313957       1.14269203E-11  
0.22318938       7.92575198E-12  
0.22323920       7.96647049E-12  
0.22328905       8.03804687E-12  
0.22333892       8.05835230E-12  
0.22338881       8.05156760E-12  
0.22343872       8.02581308E-12  
0.22348866       7.99038316E-12  
0.22353862       7.94940861E-12  
0.22358860       7.90543205E-12  
0.22363860       7.85966847E-12  
0.22368863       5.63972945E-12  
0.22373867       4.24251401E-12  
0.22378874       4.21422880E-12  
0.22383884       4.18456697E-12  
0.22388895       4.15527741E-12  
0.22393909       4.12842625E-12  
0.22398925       4.10202637E-12  
0.22403943       4.07484604E-12  
0.22408964       4.04692077E-12  
0.22413986       4.01747871E-12  
0.22419011       3.98659761E-12  
0.22424039       3.95304142E-12  
0.22429068       3.91491043E-12  
0.22434100       3.88377417E-12  
0.22439134       2.81354556E-12  
0.22444170       2.24088002E-12  
0.22449209       2.22690181E-12  
0.22454249       2.21166191E-12  
0.22459293       2.19451650E-12  
0.22464338       2.17852177E-12  
0.22469385       2.16705669E-12  
0.22474435       2.15525657E-12  
0.22479487       2.14199274E-12  
0.22484542       2.12824130E-12  
0.22489599       2.11389953E-12  
0.22494658       2.09904854E-12  
0.22499719       2.08346650E-12  
0.22504782       2.06633299E-12  
0.22509848       2.04588044E-12  
0.22514916       2.02652031E-12  
0.22519986       2.01706643E-12  
0.22525059       2.00788372E-12  
0.22530134       1.72659984E-12  
0.22535211       1.23745885E-12  
0.22540291       1.23068509E-12  
0.22545373       1.22368226E-12  
0.22550457       1.21635633E-12  
0.22555543       1.20861356E-12  
0.22560632       1.20130896E-12  
0.22565723       1.19399498E-12  
0.22570816       1.18656842E-12  
0.22575912       1.17891331E-12  
0.22581009       1.17090603E-12  
0.22586110       1.16212305E-12  
0.22591212       1.15160481E-12  
0.22596317       1.13699950E-12  
0.22601424       1.12214447E-12  
0.22606533       1.12181638E-12  
0.22611645       1.12386555E-12  
0.22616759       1.12107855E-12  
0.22621875       1.11618287E-12  
0.22626994       1.11030416E-12  
0.22632115       1.10393690E-12  
0.22637238       1.09719207E-12  
0.22642364       1.09041336E-12  
0.22647492       1.08395293E-12  
0.22652622       1.07721305E-12  
