# ATMO emission spectrum
# Wavelength [microns]  |  Flux [W/m2/micron]
0.20002000       5.39286048E-09  
0.20006002       4.03437498E-09  
0.20010005       3.26730573E-09  
0.20014010       2.89176465E-09  
0.20018016       2.47354453E-09  
0.20022024       1.99675046E-09  
0.20026034       1.58692654E-09  
0.20030045       1.28752334E-09  
0.20034058       1.07507518E-09  
0.20038072       8.30440994E-10  
0.20042088       6.25589010E-10  
0.20046106       5.82094598E-10  
0.20050125       6.80317774E-10  
0.20054146       8.34200668E-10  
0.20058169       9.37398702E-10  
0.20062193       9.63363014E-10  
0.20066219       9.00961568E-10  
0.20070246       7.38140205E-10  
0.20074275       5.65480558E-10  
0.20078305       5.00135093E-10  
0.20082338       5.83072448E-10  
0.20086371       8.00061004E-10  
0.20090407       9.61711660E-10  
0.20094444       1.17152833E-09  
0.20098483       1.48348931E-09  
0.20102523       1.68776684E-09  
0.20106565       1.77906059E-09  
0.20110608       1.96981956E-09  
0.20114654       2.32741845E-09  
0.20118700       3.12770756E-09  
0.20122749       3.77460157E-09  
0.20126799       3.72745220E-09  
0.20130851       3.73163622E-09  
0.20134904       3.86610727E-09  
0.20138959       3.57342050E-09  
0.20143015       3.50296901E-09  
0.20147074       3.34982812E-09  
0.20151134       3.11358806E-09  
0.20155195       2.62159728E-09  
0.20159258       2.09442781E-09  
0.20163323       1.75107997E-09  
0.20167389       1.61783133E-09  
0.20171457       1.54934001E-09  
0.20175527       1.47125241E-09  
0.20179598       1.55677493E-09  
0.20183671       1.92220922E-09  
0.20187746       2.49730310E-09  
0.20191822       3.04386299E-09  
0.20195900       3.40966605E-09  
0.20199980       3.47336980E-09  
0.20204061       3.10332957E-09  
0.20208144       2.44915148E-09  
0.20212228       2.47796785E-09  
0.20216315       3.31768418E-09  
0.20220402       4.36115627E-09  
0.20224492       4.92664686E-09  
0.20228583       5.38247607E-09  
0.20232676       5.77228128E-09  
0.20236770       5.98939525E-09  
0.20240866       6.03340540E-09  
0.20244964       5.97369859E-09  
0.20249063       5.99164057E-09  
0.20253165       6.11670307E-09  
0.20257267       6.04420999E-09  
0.20261372       5.86579632E-09  
0.20265478       5.56041636E-09  
0.20269585       5.41350518E-09  
0.20273695       5.91185378E-09  
0.20277806       6.03071277E-09  
0.20281919       5.67890126E-09  
0.20286033       5.38002822E-09  
0.20290149       5.22463634E-09  
0.20294267       4.57069130E-09  
0.20298386       3.45578205E-09  
0.20302507       2.08341375E-09  
0.20306630       1.18198948E-09  
0.20310755       1.46415187E-09  
0.20314881       2.25759891E-09  
0.20319008       2.80420113E-09  
0.20323138       2.88195360E-09  
0.20327269       2.63165662E-09  
0.20331402       2.16802886E-09  
0.20335536       1.59208334E-09  
0.20339673       9.96695129E-10  
0.20343810       5.07267223E-10  
0.20347950       1.93153516E-10  
0.20352091       8.63612986E-11  
0.20356234       2.04922035E-10  
0.20360379       5.47771535E-10  
0.20364525       1.06303468E-09  
0.20368673       1.72210288E-09  
0.20372823       2.39771449E-09  
0.20376974       2.90218360E-09  
0.20381127       3.21990579E-09  
0.20385282       3.88537571E-09  
0.20389438       4.61613611E-09  
0.20393596       6.39336794E-09  
0.20397756       7.01554477E-09  
0.20401918       6.66897869E-09  
0.20406081       7.97998647E-09  
0.20410246       9.17425389E-09  
0.20414413       9.89538555E-09  
0.20418581       1.03436693E-08  
0.20422751       1.07087592E-08  
0.20426923       1.09870499E-08  
0.20431096       1.11478355E-08  
0.20435271       1.12763457E-08  
0.20439448       1.06183044E-08  
0.20443627       1.02054034E-08  
0.20447807       9.99424099E-09  
0.20451989       9.65355760E-09  
0.20456173       9.17076315E-09  
0.20460358       8.49079737E-09  
0.20464545       7.53497599E-09  
0.20468734       6.21454158E-09  
0.20472925       4.47828826E-09  
0.20477117       2.58847352E-09  
0.20481311       1.90126030E-09  
0.20485507       3.13461777E-09  
0.20489704       4.93639594E-09  
0.20493903       6.27314961E-09  
0.20498104       7.01964188E-09  
0.20502307       7.24555557E-09  
0.20506511       6.97225165E-09  
0.20510717       6.19596882E-09  
0.20514925       4.90280050E-09  
0.20519134       3.21824747E-09  
0.20523345       1.80049787E-09  
0.20527558       1.72260785E-09  
0.20531773       3.13986622E-09  
0.20535989       4.61730408E-09  
0.20540207       6.13605593E-09  
0.20544427       7.71387321E-09  
0.20548649       8.91816042E-09  
0.20552872       9.80484493E-09  
0.20557097       1.04478912E-08  
0.20561324       1.06062883E-08  
0.20565553       1.08153054E-08  
0.20569783       1.16121939E-08  
0.20574015       1.10106084E-08  
0.20578249       1.01804826E-08  
0.20582484       1.02770221E-08  
0.20586722       1.01991138E-08  
0.20590961       9.29851208E-09  
0.20595201       7.56755509E-09  
0.20599444       5.32448294E-09  
0.20603688       5.00747253E-09  
0.20607934       7.25564382E-09  
0.20612182       9.41442066E-09  
0.20616431       1.07646220E-08  
0.20620683       1.16860718E-08  
0.20624936       1.22752071E-08  
0.20629190       1.25916425E-08  
0.20633447       1.28617501E-08  
0.20637705       1.28873376E-08  
0.20641965       1.27504013E-08  
0.20646227       1.25852154E-08  
0.20650490       1.16184506E-08  
0.20654756       9.95689548E-09  
0.20659023       9.65212350E-09  
0.20663292       1.05576577E-08  
0.20667562       1.04713835E-08  
0.20671835       1.02395489E-08  
0.20676109       9.54710488E-09  
0.20680385       1.00897572E-08  
0.20684662       1.15795258E-08  
0.20688942       1.20631713E-08  
0.20693223       1.12233715E-08  
0.20697506       1.12952904E-08  
0.20701791       1.23293962E-08  
0.20706077       1.25801090E-08  
0.20710366       1.24453536E-08  
0.20714656       1.23935695E-08  
0.20718947       1.17752947E-08  
0.20723241       1.03576952E-08  
0.20727537       7.87919296E-09  
0.20731834       5.17867813E-09  
0.20736133       4.69160137E-09  
0.20740433       3.46890654E-09  
0.20744736       3.30057480E-09  
0.20749040       2.83191521E-09  
0.20753346       2.26081030E-09  
0.20757654       1.67420576E-09  
0.20761964       1.12451498E-09  
0.20766276       6.54782664E-10  
0.20770589       3.05396156E-10  
0.20774904       1.03966301E-10  
0.20779221       3.55747613E-11  
0.20783539       6.50224387E-11  
0.20787860       2.10350109E-10  
0.20792182       5.18967628E-10  
0.20796506       9.81094319E-10  
0.20800832       1.55878653E-09  
0.20805160       5.50773064E-10  
0.20809489       2.36186930E-10  
0.20813820       1.87473776E-10  
0.20818153       1.39806769E-10  
0.20822488       9.74421732E-11  
0.20826825       6.37527184E-11  
0.20831163       3.72890092E-11  
0.20835504       1.94880836E-11  
0.20839846       8.48296689E-12  
0.20844190       3.48393905E-12  
0.20848535       2.16935226E-12  
0.20852883       4.52884417E-12  
0.20857232       9.49522712E-12  
0.20861583       1.34705909E-11  
0.20865936       1.46973874E-11  
0.20870291       1.22344314E-11  
0.20874648       6.54872706E-12  
0.20879006       2.60496786E-12  
0.20883366       2.10708889E-12  
0.20887728       5.59841576E-12  
0.20892092       1.35669470E-11  
0.20896458       2.50578558E-11  
0.20900826       2.87307078E-11  
0.20905195       2.28343889E-11  
0.20909566       1.37604783E-11  
0.20913939       7.80976042E-12  
0.20918314       1.10217345E-11  
0.20922691       2.07336800E-11  
0.20927069       2.64735611E-11  
0.20931450       1.90448594E-11  
0.20935832       9.40678340E-12  
0.20940216       3.60284053E-12  
0.20944602       2.36802766E-12  
0.20948989       6.19234291E-12  
0.20953379       1.54271562E-11  
0.20957770       3.11365922E-11  
0.20962163       5.34880727E-11  
0.20966558       6.94877372E-11  
0.20970955       7.93374870E-11  
0.20975354       7.57371234E-11  
0.20979755       6.24086298E-11  
0.20984157       4.18353625E-11  
0.20988561       2.41331582E-11  
0.20992967       1.08245602E-11  
0.20997375       7.08172364E-12  
0.21001785       7.64173670E-12  
0.21006197       4.37511691E-12  
0.21010610       4.03737190E-12  
0.21015026       5.48243264E-12  
0.21019443       1.10980829E-11  
0.21023862       1.77627812E-11  
0.21028283       1.59121036E-11  
0.21032706       1.45483851E-11  
0.21037131       1.88746733E-11  
0.21041557       3.66651731E-11  
0.21045985       5.15542670E-11  
0.21050416       6.82451684E-11  
0.21054848       7.20137304E-11  
0.21059282       5.05494965E-11  
0.21063718       2.49548774E-11  
0.21068155       9.91464304E-12  
0.21072595       8.92718509E-12  
0.21077037       1.97164404E-11  
0.21081480       2.74122867E-11  
0.21085925       1.84974474E-11  
0.21090372       1.20870927E-11  
0.21094821       9.71059231E-12  
0.21099272       1.45238994E-11  
0.21103725       3.54562023E-11  
0.21108179       6.82240841E-11  
0.21112636       1.06608972E-10  
0.21117094       1.43192974E-10  
0.21121555       1.69971684E-10  
0.21126017       1.86783649E-10  
0.21130481       1.32191411E-10  
0.21134947       7.43870019E-11  
0.21139414       8.06836919E-11  
0.21143884       1.00464220E-10  
0.21148356       5.97264588E-11  
0.21152829       3.20623577E-11  
0.21157305       3.54413157E-11  
0.21161782       6.57857821E-11  
0.21166261       1.55838800E-10  
0.21170742       3.24403190E-10  
0.21175225       5.70673390E-10  
0.21179710       8.96095856E-10  
0.21184197       1.34810552E-09  
0.21188685       1.60919133E-09  
0.21193176       1.46628127E-09  
0.21197668       1.20860765E-09  
0.21202163       2.49855396E-09  
0.21206659       6.35134150E-09  
0.21211157       8.16048770E-09  
0.21215657       6.95928161E-09  
0.21220159       6.33560825E-09  
0.21224663       9.84730055E-09  
0.21229169       1.26635007E-08  
0.21233677       1.38380818E-08  
0.21238186       1.45484692E-08  
0.21242698       1.53291699E-08  
0.21247211       1.48127010E-08  
0.21251727       1.21789594E-08  
0.21256244       8.35744555E-09  
0.21260763       5.90094118E-09  
0.21265284       5.10516683E-09  
0.21269808       2.93359785E-09  
0.21274333       2.39048222E-09  
0.21278859       3.91130237E-09  
0.21283388       2.79476679E-09  
0.21287919       2.93095221E-09  
0.21292452       2.68170461E-09  
0.21296986       2.15012780E-09  
0.21301523       1.56008709E-09  
0.21306062       1.05600000E-09  
0.21310602       6.28369288E-10  
0.21315144       3.06859898E-10  
0.21319689       1.13426827E-10  
0.21324235       3.36578954E-11  
0.21328783       2.79506712E-11  
0.21333333       9.51078746E-11  
0.21337885       2.73510229E-10  
0.21342439       5.69465863E-10  
0.21346995       9.67051991E-10  
0.21351553       1.46195564E-09  
0.21356113       1.86976338E-09  
0.21360675       9.36690385E-10  
0.21365239       8.34525060E-10  
0.21369804       6.82035425E-10  
0.21374372       5.66189472E-10  
0.21378942       3.66070893E-10  
0.21383513       2.05305935E-10  
0.21388087       9.46325746E-11  
0.21392662       4.29008859E-11  
0.21397240       2.63153375E-11  
0.21401819       1.06373171E-11  
0.21406401       1.27654232E-11  
0.21410984       3.76064309E-11  
0.21415569       9.13357878E-11  
0.21420156       1.68938951E-10  
0.21424746       2.51252958E-10  
0.21429337       3.89359817E-10  
0.21433930       5.77937048E-10  
0.21438525       7.36319048E-10  
0.21443122       7.58095737E-10  
0.21447721       5.95194554E-10  
0.21452322       3.78207485E-10  
0.21456925       1.32863526E-10  
0.21461530       1.63972665E-10  
0.21466137       3.91245992E-10  
0.21470746       5.42448812E-10  
0.21475357       7.16730319E-10  
0.21479970       1.42089311E-09  
0.21484585       2.14293154E-09  
0.21489202       2.14454393E-09  
0.21493821       2.27998299E-09  
0.21498441       2.56015489E-09  
0.21503064       2.10155982E-09  
0.21507689       1.36297386E-09  
0.21512316       6.19423219E-10  
0.21516945       2.65410443E-10  
0.21521575       4.07551575E-10  
0.21526208       6.95650095E-10  
0.21530843       5.29312285E-10  
0.21535480       2.49636641E-10  
0.21540118       3.38844186E-10  
0.21544759       7.66318419E-10  
0.21549402       1.04315599E-09  
0.21554047       9.27222727E-10  
0.21558694       7.06110514E-10  
0.21563342       6.90091061E-10  
0.21567993       5.56380750E-10  
0.21572646       3.28777131E-10  
0.21577301       1.46379712E-10  
0.21581957       5.25733201E-11  
0.21586616       3.56031395E-11  
0.21591277       3.99244413E-11  
0.21595940       4.43603882E-11  
0.21600605       7.09434455E-11  
0.21605272       1.03411764E-10  
0.21609941       2.02255540E-10  
0.21614611       3.49424451E-10  
0.21619284       3.47690786E-10  
0.21623959       3.45631598E-10  
0.21628636       2.04416254E-10  
0.21633315       1.31502089E-10  
0.21637996       1.01670090E-10  
0.21642679       6.85766225E-11  
0.21647364       4.64956449E-11  
0.21652052       3.23263207E-11  
0.21656741       2.46630324E-11  
0.21661432       1.48486330E-11  
0.21666125       6.53038417E-12  
0.21670820       1.68682161E-12  
0.21675518       6.91854766E-13  
0.21680217       3.27535642E-12  
0.21684918       1.01708883E-11  
0.21689622       2.12398720E-11  
0.21694327       3.69162362E-11  
0.21699034       5.79707694E-11  
0.21703744       8.38096730E-11  
0.21708455       1.10392348E-10  
0.21713169       1.24065989E-10  
0.21717885       1.05011071E-10  
0.21722602       1.82941197E-10  
0.21727322       1.81643956E-10  
0.21732044       1.43450503E-10  
0.21736768       1.67109721E-10  
0.21741494       2.14269708E-10  
0.21746222       3.59006019E-10  
0.21750952       4.29469100E-10  
0.21755684       3.89306219E-10  
0.21760418       2.97582880E-10  
0.21765154       1.99038082E-10  
0.21769892       1.15850732E-10  
0.21774633       5.98628407E-11  
0.21779375       2.92939841E-11  
0.21784119       9.69339686E-12  
0.21788866       5.26923259E-12  
0.21793614       1.89723342E-11  
0.21798365       5.10072000E-11  
0.21803118       1.06141314E-10  
0.21807873       1.82339229E-10  
0.21812630       2.43923975E-10  
0.21817388       3.19589885E-10  
0.21822149       5.25561496E-10  
0.21826913       6.21859008E-10  
0.21831678       6.55326243E-10  
0.21836445       1.00918018E-09  
0.21841214       8.62910148E-10  
0.21845986       6.73491832E-10  
0.21850759       4.66516042E-10  
0.21855535       2.76257493E-10  
0.21860313       1.38892361E-10  
0.21865092       5.59612808E-11  
0.21869874       1.86988562E-11  
0.21874658       1.67926342E-11  
0.21879444       2.18174190E-11  
0.21884232       5.86611743E-11  
0.21889023       1.36575458E-10  
0.21893815       2.33996681E-10  
0.21898609       3.06413938E-10  
0.21903406       3.10288500E-10  
0.21908205       2.41314959E-10  
0.21913005       1.41029553E-10  
0.21917808       6.25459488E-11  
0.21922613       2.15677493E-11  
0.21927420       2.00968940E-11  
0.21932229       6.42990231E-11  
0.21937041       1.56574075E-10  
0.21941854       2.83624725E-10  
0.21946670       3.84015523E-10  
0.21951487       3.78232651E-10  
0.21956307       2.55670281E-10  
0.21961129       1.12081973E-10  
0.21965953       3.91788866E-11  
0.21970779       6.29463110E-11  
0.21975607       1.93233739E-10  
0.21980437       4.27522508E-10  
0.21985270       7.00196652E-10  
0.21990104       8.48213220E-10  
0.21994941       7.52183312E-10  
0.21999780       4.77001430E-10  
0.22004621       2.08104104E-10  
0.22009464       7.38380210E-11  
0.22014309       6.22043475E-11  
0.22019157       1.68979830E-10  
0.22024006       4.68930133E-10  
0.22028858       1.05790989E-09  
0.22033712       1.93802765E-09  
0.22038567       3.09209003E-09  
0.22043426       4.48563693E-09  
0.22048286       6.06127928E-09  
0.22053148       7.75595305E-09  
0.22058013       1.06656892E-08  
0.22062879       2.75695514E-08  
0.22067748       3.32378924E-08  
0.22072619       2.05301923E-08  
0.22077492       1.25844772E-08  
0.22082367       1.88707083E-08  
0.22087245       2.62314375E-08  
0.22092124       2.52280490E-08  
0.22097006       2.53878056E-08  
0.22101890       2.50864267E-08  
0.22106776       1.79847139E-08  
0.22111664       9.41679596E-09  
0.22116554       6.28988830E-09  
0.22121447       8.39973265E-09  
0.22126341       1.80786343E-08  
0.22131238       3.00896465E-08  
0.22136137       3.98889485E-08  
0.22141038       4.73714402E-08  
0.22145942       5.31446251E-08  
0.22150847       5.70049770E-08  
0.22155755       5.99771702E-08  
0.22160665       6.17693383E-08  
0.22165577       6.39444417E-08  
0.22170491       6.38542668E-08  
0.22175407       5.53279449E-08  
0.22180326       4.07284108E-08  
0.22185247       2.39771035E-08  
0.22190170       1.51093560E-08  
0.22195095       1.79159858E-08  
0.22200022       1.90814516E-08  
0.22204952       1.91146420E-08  
0.22209883       5.80287380E-09  
0.22214817       4.05743843E-09  
0.22219753       4.26922042E-09  
0.22224692       4.69973026E-09  
0.22229632       4.87635068E-09  
0.22234575       4.40911464E-09  
0.22239520       1.23985319E-09  
0.22244467       1.17821862E-09  
0.22249416       1.13489447E-09  
0.22254367       1.08900102E-09  
0.22259321       1.03487068E-09  
0.22264277       9.64672007E-10  
0.22269235       7.65048455E-10  
0.22274195       2.31931754E-10  
0.22279158       1.88349248E-10  
0.22284123       1.29471736E-10  
0.22289089       9.38035117E-11  
0.22294059       1.21846972E-10  
0.22299030       1.44609353E-10  
0.22304004       1.60129428E-10  
0.22308979       1.43184782E-10  
0.22313957       6.91292271E-11  
0.22318938       2.99007641E-11  
0.22323920       4.05854239E-11  
0.22328905       5.52320247E-11  
0.22333892       6.44100207E-11  
0.22338881       6.99773769E-11  
0.22343872       7.28707796E-11  
0.22348866       7.42136210E-11  
0.22353862       7.45611237E-11  
0.22358860       7.43279949E-11  
0.22363860       7.37274623E-11  
0.22368863       4.08703462E-11  
0.22373867       2.40156670E-11  
0.22378874       2.34341238E-11  
0.22383884       2.25259095E-11  
0.22388895       2.14373600E-11  
0.22393909       2.14457933E-11  
0.22398925       2.14574664E-11  
0.22403943       2.11412218E-11  
0.22408964       2.06744333E-11  
0.22413986       2.00110330E-11  
0.22419011       1.91443935E-11  
0.22424039       1.78188421E-11  
0.22429068       1.54849754E-11  
0.22434100       1.42340878E-11  
0.22439134       9.39429064E-12  
0.22444170       6.54539164E-12  
0.22449209       6.49538899E-12  
0.22454249       6.32671735E-12  
0.22459293       5.88180123E-12  
0.22464338       5.50385482E-12  
0.22469385       5.84798997E-12  
0.22474435       5.98965325E-12  
0.22479487       5.96521955E-12  
0.22484542       5.88995728E-12  
0.22489599       5.77578723E-12  
0.22494658       5.63097973E-12  
0.22499719       5.44319630E-12  
0.22504782       5.15902606E-12  
0.22509848       4.63880256E-12  
0.22514916       4.07640783E-12  
0.22519986       4.40548742E-12  
0.22525059       4.48353448E-12  
0.22530134       3.67549134E-12  
0.22535211       2.15278399E-12  
0.22540291       2.13745319E-12  
0.22545373       2.11154198E-12  
0.22550457       2.07547553E-12  
0.22555543       2.02862640E-12  
0.22560632       1.99237116E-12  
0.22565723       1.95560036E-12  
0.22570816       1.91608546E-12  
0.22575912       1.87160645E-12  
0.22581009       1.81998668E-12  
0.22586110       1.75337774E-12  
0.22591212       1.65478274E-12  
0.22596317       1.48244765E-12  
0.22601424       1.26531429E-12  
0.22606533       1.40132151E-12  
0.22611645       1.54319974E-12  
0.22616759       1.59050550E-12  
0.22621875       1.59835084E-12  
0.22626994       1.58711896E-12  
0.22632115       1.56497240E-12  
0.22637238       1.52913470E-12  
0.22642364       1.48698725E-12  
0.22647492       1.47851363E-12  
0.22652622       1.44387974E-12  
