# ATMO emission spectrum
# Wavelength [microns]  |  Flux [W/m2/micron]
0.20002000       6.47578976E-16  
0.20006002       6.53264487E-16  
0.20010005       6.58999712E-16  
0.20014010       6.64786042E-16  
0.20018016       6.70622519E-16  
0.20022024       6.76509228E-16  
0.20026034       6.82447230E-16  
0.20030045       6.88436913E-16  
0.20034058       6.94478650E-16  
0.20038072       7.00570843E-16  
0.20042088       7.06715997E-16  
0.20046106       7.12918708E-16  
0.20050125       7.19176897E-16  
0.20054146       7.25490125E-16  
0.20058169       7.31858590E-16  
0.20062193       7.38281582E-16  
0.20066219       7.44759615E-16  
0.20070246       7.51292734E-16  
0.20074275       7.57883472E-16  
0.20078305       7.64533293E-16  
0.20082338       7.71243275E-16  
0.20086371       7.78016277E-16  
0.20090407       7.84846589E-16  
0.20094444       7.91736110E-16  
0.20098483       7.98686174E-16  
0.20102523       8.05696196E-16  
0.20106565       8.12766414E-16  
0.20110608       8.19898046E-16  
0.20114654       8.27091683E-16  
0.20118700       8.34351049E-16  
0.20122749       8.41671440E-16  
0.20126799       8.49052434E-16  
0.20130851       8.56498593E-16  
0.20134904       8.64010104E-16  
0.20138959       8.71584347E-16  
0.20143015       8.79225868E-16  
0.20147074       8.86933929E-16  
0.20151134       8.94709620E-16  
0.20155195       9.02551856E-16  
0.20159258       9.10462119E-16  
0.20163323       9.18441642E-16  
0.20167389       9.26491086E-16  
0.20171457       9.34611287E-16  
0.20175527       9.42803458E-16  
0.20179598       9.51068148E-16  
0.20183671       9.59405876E-16  
0.20187746       9.67816918E-16  
0.20191822       9.76301008E-16  
0.20195900       9.84858264E-16  
0.20199980       9.93489109E-16  
0.20204061       1.00219450E-15  
0.20208144       1.01097545E-15  
0.20212228       1.01983419E-15  
0.20216315       1.02877248E-15  
0.20220402       1.03779090E-15  
0.20224492       1.04688476E-15  
0.20228583       1.05605714E-15  
0.20232676       1.06530927E-15  
0.20236770       1.07464191E-15  
0.20240866       1.08405567E-15  
0.20244964       1.09355133E-15  
0.20249063       1.10312985E-15  
0.20253165       1.11279216E-15  
0.20257267       1.12253830E-15  
0.20261372       1.13236926E-15  
0.20265478       1.14228583E-15  
0.20269585       1.15228789E-15  
0.20273695       1.16237877E-15  
0.20277806       1.17255710E-15  
0.20281919       1.18282381E-15  
0.20286033       1.19317950E-15  
0.20290149       1.20362518E-15  
0.20294267       1.21416003E-15  
0.20298386       1.22478405E-15  
0.20302507       1.23549719E-15  
0.20306630       1.24630506E-15  
0.20310755       1.25721268E-15  
0.20314881       1.26821983E-15  
0.20319008       1.27932565E-15  
0.20323138       1.29052307E-15  
0.20327269       1.30181327E-15  
0.20331402       1.31319581E-15  
0.20335536       1.32466830E-15  
0.20339673       1.33622506E-15  
0.20343810       1.34785819E-15  
0.20347950       1.35956697E-15  
0.20352091       1.37141185E-15  
0.20356234       1.38347090E-15  
0.20360379       1.39566972E-15  
0.20364525       1.40794526E-15  
0.20368673       1.42030531E-15  
0.20372823       1.43275732E-15  
0.20376974       1.44530845E-15  
0.20381127       1.45796404E-15  
0.20385282       1.47072786E-15  
0.20389438       1.48360124E-15  
0.20393596       1.49659468E-15  
0.20397756       1.50969324E-15  
0.20401918       1.52290079E-15  
0.20406081       1.53622483E-15  
0.20410246       1.54966519E-15  
0.20414413       1.56322217E-15  
0.20418581       1.57689713E-15  
0.20422751       1.59069118E-15  
0.20426923       1.60460554E-15  
0.20431096       1.61864112E-15  
0.20435271       1.63279893E-15  
0.20439448       1.64707911E-15  
0.20443627       1.66148419E-15  
0.20447807       1.67601518E-15  
0.20451989       1.69067256E-15  
0.20456173       1.70545767E-15  
0.20460358       1.72037070E-15  
0.20464545       1.73541299E-15  
0.20468734       1.75058456E-15  
0.20472925       1.76588513E-15  
0.20477117       1.78131576E-15  
0.20481311       1.79688747E-15  
0.20485507       1.81260677E-15  
0.20489704       1.82846649E-15  
0.20493903       1.84446066E-15  
0.20498104       1.86059103E-15  
0.20502307       1.87685983E-15  
0.20506511       1.89326853E-15  
0.20510717       1.90981794E-15  
0.20514925       1.92650799E-15  
0.20519134       1.94333856E-15  
0.20523345       1.96031510E-15  
0.20527558       1.97745262E-15  
0.20531773       1.99475439E-15  
0.20535989       2.01220607E-15  
0.20540207       2.02980612E-15  
0.20544427       2.04755698E-15  
0.20548649       2.06546004E-15  
0.20552872       2.08351809E-15  
0.20557097       2.10173278E-15  
0.20561324       2.12010508E-15  
0.20565553       2.13863766E-15  
0.20569783       2.15733393E-15  
0.20574015       2.17619030E-15  
0.20578249       2.19521081E-15  
0.20582484       2.21439777E-15  
0.20586722       2.23375183E-15  
0.20590961       2.25327363E-15  
0.20595201       2.27296381E-15  
0.20599444       2.29282484E-15  
0.20603688       2.31286343E-15  
0.20607934       2.33308279E-15  
0.20612182       2.35347816E-15  
0.20616431       2.37404953E-15  
0.20620683       2.39479953E-15  
0.20624936       2.41572989E-15  
0.20629190       2.43684231E-15  
0.20633447       2.45813882E-15  
0.20637705       2.47962069E-15  
0.20641965       2.50129012E-15  
0.20646227       2.52314885E-15  
0.20650490       2.54519674E-15  
0.20654756       2.56743668E-15  
0.20659023       2.58987183E-15  
0.20663292       2.61250391E-15  
0.20667562       2.63533301E-15  
0.20671835       2.65836081E-15  
0.20676109       2.68158981E-15  
0.20680385       2.70502352E-15  
0.20684662       2.72866278E-15  
0.20688942       2.75250750E-15  
0.20693223       2.77655783E-15  
0.20697506       2.80081985E-15  
0.20701791       2.82529405E-15  
0.20706077       2.84998119E-15  
0.20710366       2.87488333E-15  
0.20714656       2.90000244E-15  
0.20718947       2.92533914E-15  
0.20723241       2.95089489E-15  
0.20727537       2.97666993E-15  
0.20731834       3.00266878E-15  
0.20736133       3.02887755E-15  
0.20740433       3.05525565E-15  
0.20744736       3.08192874E-15  
0.20749040       3.10881889E-15  
0.20753346       3.13592221E-15  
0.20757654       3.16322915E-15  
0.20761964       3.19072016E-15  
0.20766276       3.21835846E-15  
0.20770589       3.24608595E-15  
0.20774904       3.27386402E-15  
0.20779221       3.30198886E-15  
0.20783539       3.33106782E-15  
0.20787860       3.36081426E-15  
0.20792182       3.39067120E-15  
0.20796506       3.42060829E-15  
0.20800832       3.45068761E-15  
0.20805160       3.48003356E-15  
0.20809489       3.50917006E-15  
0.20813820       3.53935348E-15  
0.20818153       3.56958385E-15  
0.20822488       3.59976323E-15  
0.20826825       3.62982819E-15  
0.20831163       3.65939605E-15  
0.20835504       3.68829481E-15  
0.20839846       3.71476805E-15  
0.20844190       3.74216484E-15  
0.20848535       3.77283568E-15  
0.20852883       3.80758705E-15  
0.20857232       3.84413964E-15  
0.20861583       3.87974303E-15  
0.20865936       3.91387813E-15  
0.20870291       3.94617826E-15  
0.20874648       3.97613664E-15  
0.20879006       4.00593161E-15  
0.20883366       4.04071763E-15  
0.20887728       4.08163199E-15  
0.20892092       4.12495465E-15  
0.20896458       4.16560857E-15  
0.20900826       4.20255480E-15  
0.20905195       4.23886097E-15  
0.20909566       4.27484427E-15  
0.20913939       4.31119496E-15  
0.20918314       4.34920502E-15  
0.20922691       4.38804022E-15  
0.20927069       4.42749075E-15  
0.20931450       4.46358451E-15  
0.20935832       4.49749816E-15  
0.20940216       4.53069480E-15  
0.20944602       4.56888127E-15  
0.20948989       4.61417200E-15  
0.20953379       4.66106412E-15  
0.20957770       4.70701934E-15  
0.20962163       4.75177548E-15  
0.20966558       4.79424459E-15  
0.20970955       4.83666749E-15  
0.20975354       4.87866090E-15  
0.20979755       4.92042457E-15  
0.20984157       4.96149899E-15  
0.20988561       5.00279797E-15  
0.20992967       5.04220074E-15  
0.20997375       5.08182947E-15  
0.21001785       5.12241219E-15  
0.21006197       5.16362797E-15  
0.21010610       5.20815255E-15  
0.21015026       5.25714395E-15  
0.21019443       5.30825902E-15  
0.21023862       5.35898334E-15  
0.21028283       5.40752479E-15  
0.21032706       5.45648119E-15  
0.21037131       5.50620333E-15  
0.21041557       5.55706648E-15  
0.21045985       5.60707112E-15  
0.21050416       5.65676013E-15  
0.21054848       5.70636232E-15  
0.21059282       5.75488258E-15  
0.21063718       5.80229524E-15  
0.21068155       5.84940584E-15  
0.21072595       5.89948068E-15  
0.21077037       5.95283301E-15  
0.21081480       6.00591545E-15  
0.21085925       6.05751939E-15  
0.21090372       6.10932409E-15  
0.21094821       6.16301377E-15  
0.21099272       6.21951376E-15  
0.21103725       6.27783074E-15  
0.21108179       6.33579595E-15  
0.21112636       6.39316938E-15  
0.21117094       6.45107186E-15  
0.21121555       6.50813240E-15  
0.21126017       6.56521846E-15  
0.21130481       6.62232829E-15  
0.21134947       6.67996058E-15  
0.21139414       6.73813827E-15  
0.21143884       6.79716310E-15  
0.21148356       6.85555784E-15  
0.21152829       6.91469390E-15  
0.21157305       6.97553503E-15  
0.21161782       7.03791698E-15  
0.21166261       7.10112224E-15  
0.21170742       7.16453866E-15  
0.21175225       7.22812073E-15  
0.21179710       7.29200058E-15  
0.21184197       7.35631189E-15  
0.21188685       7.42087388E-15  
0.21193176       7.48587433E-15  
0.21197668       7.55156528E-15  
0.21202163       7.61798470E-15  
0.21206659       7.68495673E-15  
0.21211157       7.75222605E-15  
0.21215657       7.82003962E-15  
0.21220159       7.88845065E-15  
0.21224663       7.95748881E-15  
0.21229169       8.02711188E-15  
0.21233677       8.09733689E-15  
0.21238186       8.16816798E-15  
0.21242698       8.23962095E-15  
0.21247211       8.31168811E-15  
0.21251727       8.38435901E-15  
0.21256244       8.45764160E-15  
0.21260763       8.53155549E-15  
0.21265284       8.60611221E-15  
0.21269808       8.68128681E-15  
0.21274333       8.75720576E-15  
0.21278859       8.83392391E-15  
0.21283388       8.91062562E-15  
0.21287919       8.98841033E-15  
0.21292452       9.06686196E-15  
0.21296986       9.14585947E-15  
0.21301523       9.22534306E-15  
0.21306062       9.30521880E-15  
0.21310602       9.38523540E-15  
0.21315144       9.46498851E-15  
0.21319689       9.54393590E-15  
0.21324235       9.62258912E-15  
0.21328783       9.70627524E-15  
0.21333333       9.79590265E-15  
0.21337885       9.88595344E-15  
0.21342439       9.97517771E-15  
0.21346995       1.00640154E-14  
0.21351553       1.01529810E-14  
0.21356113       1.02422848E-14  
0.21360675       1.03297854E-14  
0.21365239       1.04197318E-14  
0.21369804       1.05100703E-14  
0.21374372       1.06013223E-14  
0.21378942       1.06917596E-14  
0.21383513       1.07815455E-14  
0.21388087       1.08700548E-14  
0.21392662       1.09571678E-14  
0.21397240       1.10433851E-14  
0.21401819       1.11311169E-14  
0.21406401       1.12303648E-14  
0.21410984       1.13407052E-14  
0.21415569       1.14503589E-14  
0.21420156       1.15575629E-14  
0.21424746       1.16631181E-14  
0.21429337       1.17681226E-14  
0.21433930       1.18730841E-14  
0.21438525       1.19782833E-14  
0.21443122       1.20836586E-14  
0.21447721       1.21893659E-14  
0.21452322       1.22971855E-14  
0.21456925       1.24032867E-14  
0.21461530       1.25120046E-14  
0.21466137       1.26230328E-14  
0.21470746       1.27347435E-14  
0.21475357       1.28466157E-14  
0.21479970       1.29599097E-14  
0.21484585       1.30739813E-14  
0.21489202       1.31887306E-14  
0.21493821       1.33042007E-14  
0.21498441       1.34206992E-14  
0.21503064       1.35379862E-14  
0.21507689       1.36561808E-14  
0.21512316       1.37746816E-14  
0.21516945       1.38943294E-14  
0.21521575       1.40161228E-14  
0.21526208       1.41393151E-14  
0.21530843       1.42629454E-14  
0.21535480       1.43874795E-14  
0.21540118       1.45132290E-14  
0.21544759       1.46412396E-14  
0.21549402       1.47695370E-14  
0.21554047       1.48985107E-14  
0.21558694       1.50282045E-14  
0.21563342       1.51580494E-14  
0.21567993       1.52888396E-14  
0.21572646       1.54190363E-14  
0.21577301       1.55477848E-14  
0.21581957       1.56755546E-14  
0.21586616       1.58077624E-14  
0.21591277       1.59461820E-14  
0.21595940       1.60890976E-14  
0.21600605       1.62355158E-14  
0.21605272       1.63835601E-14  
0.21609941       1.65322207E-14  
0.21614611       1.66808315E-14  
0.21619284       1.68291103E-14  
0.21623959       1.69781121E-14  
0.21628636       1.71083082E-14  
0.21633315       1.72377361E-14  
0.21637996       1.73777646E-14  
0.21642679       1.75138290E-14  
0.21647364       1.76429170E-14  
0.21652052       1.77616468E-14  
0.21656741       1.78617971E-14  
0.21661432       1.79232725E-14  
0.21666125       1.79187429E-14  
0.21670820       1.78470611E-14  
0.21675518       1.79185980E-14  
0.21680217       1.82664580E-14  
0.21684918       1.86423636E-14  
0.21689622       1.89437330E-14  
0.21694327       1.91928372E-14  
0.21699034       1.94115246E-14  
0.21703744       1.96132861E-14  
0.21708455       1.98052208E-14  
0.21713169       1.99913431E-14  
0.21717885       2.01742265E-14  
0.21722602       2.03836467E-14  
0.21727322       2.05697000E-14  
0.21732044       2.07493841E-14  
0.21736768       2.09327617E-14  
0.21741494       2.11116569E-14  
0.21746222       2.12953896E-14  
0.21750952       2.14814784E-14  
0.21755684       2.16666141E-14  
0.21760418       2.18501600E-14  
0.21765154       2.20306113E-14  
0.21769892       2.22049748E-14  
0.21774633       2.23674396E-14  
0.21779375       2.25117865E-14  
0.21784119       2.26360648E-14  
0.21788866       2.28125323E-14  
0.21793614       2.30781342E-14  
0.21798365       2.33490268E-14  
0.21803118       2.35965540E-14  
0.21807873       2.38285770E-14  
0.21812630       2.40524742E-14  
0.21817388       2.42733475E-14  
0.21822149       2.44932259E-14  
0.21826913       2.47091368E-14  
0.21831678       2.49266345E-14  
0.21836445       2.51533901E-14  
0.21841214       2.53732384E-14  
0.21845986       2.55912401E-14  
0.21850759       2.58083469E-14  
0.21855535       2.60221202E-14  
0.21860313       2.62279884E-14  
0.21865092       2.64224344E-14  
0.21869874       2.66103620E-14  
0.21874658       2.68299976E-14  
0.21879444       2.70843519E-14  
0.21884232       2.73627588E-14  
0.21889023       2.76356490E-14  
0.21893815       2.78967203E-14  
0.21898609       2.81499870E-14  
0.21903406       2.83978916E-14  
0.21908205       2.86403225E-14  
0.21913005       2.88745627E-14  
0.21917808       2.90959226E-14  
0.21922613       2.93135288E-14  
0.21927420       2.95716701E-14  
0.21932229       2.98741217E-14  
0.21937041       3.01714561E-14  
0.21941854       3.04562062E-14  
0.21946670       3.07328827E-14  
0.21951487       3.10041102E-14  
0.21956307       3.12698874E-14  
0.21961129       3.15285846E-14  
0.21965953       3.17873054E-14  
0.21970779       3.20739862E-14  
0.21975607       3.23846040E-14  
0.21980437       3.26844740E-14  
0.21985270       3.29797298E-14  
0.21990104       3.32724108E-14  
0.21994941       3.35633555E-14  
0.21999780       3.38518934E-14  
0.22004621       3.41363236E-14  
0.22009464       3.44196398E-14  
0.22014309       3.47208472E-14  
0.22019157       3.50446626E-14  
0.22024006       3.53701408E-14  
0.22028858       3.56921410E-14  
0.22033712       3.60125115E-14  
0.22038567       3.63331432E-14  
0.22043426       3.66551522E-14  
0.22048286       3.69791350E-14  
0.22053148       3.73054582E-14  
0.22058013       3.76347577E-14  
0.22062879       3.79680085E-14  
0.22067748       3.83022780E-14  
0.22072619       3.86388264E-14  
0.22077492       3.89784240E-14  
0.22082367       3.93213967E-14  
0.22087245       3.96674607E-14  
0.22092124       4.00164302E-14  
0.22097006       4.03684006E-14  
0.22101890       4.07233759E-14  
0.22106776       4.10812586E-14  
0.22111664       4.14420955E-14  
0.22116554       4.18049707E-14  
0.22121447       4.21726270E-14  
0.22126341       4.25443833E-14  
0.22131238       4.29192357E-14  
0.22136137       4.32971601E-14  
0.22141038       4.36783059E-14  
0.22145942       4.40627593E-14  
0.22150847       4.44505627E-14  
0.22155755       4.48417619E-14  
0.22160665       4.52364003E-14  
0.22165577       4.56345434E-14  
0.22170491       4.60361750E-14  
0.22175407       4.64412758E-14  
0.22180326       4.68499079E-14  
0.22185247       4.06191322E-14  
0.22190170       3.72072600E-14  
0.22195095       3.75082419E-14  
0.22200022       3.78114666E-14  
0.22204952       3.81169562E-14  
0.22209883       3.15217224E-14  
0.22214817       3.06108493E-14  
0.22219753       3.08394928E-14  
0.22224692       3.10696138E-14  
0.22229632       3.13011843E-14  
0.22234575       3.08390127E-14  
0.22239520       2.54087978E-14  
0.22244467       2.55847821E-14  
0.22249416       2.57617150E-14  
0.22254367       2.59395772E-14  
0.22259321       2.61183674E-14  
0.22264277       2.62980681E-14  
0.22269235       2.59413218E-14  
0.22274195       2.15051138E-14  
0.22279158       2.16429776E-14  
0.22284123       2.17812757E-14  
0.22289089       2.19202970E-14  
0.22294059       2.20603198E-14  
0.22299030       2.22010019E-14  
0.22304004       2.23421072E-14  
0.22308979       2.24835375E-14  
0.22313957       2.06785072E-14  
0.22318938       1.84667843E-14  
0.22323920       1.85767125E-14  
0.22328905       1.86871628E-14  
0.22333892       1.87977769E-14  
0.22338881       1.89086333E-14  
0.22343872       1.90197518E-14  
0.22348866       1.91311646E-14  
0.22353862       1.92428878E-14  
0.22358860       1.93549288E-14  
0.22363860       1.94672891E-14  
0.22368863       1.74983728E-14  
0.22373867       1.59834534E-14  
0.22378874       1.60705829E-14  
0.22383884       1.61578812E-14  
0.22388895       1.62453622E-14  
0.22393909       1.63330375E-14  
0.22398925       1.64208851E-14  
0.22403943       1.65088949E-14  
0.22408964       1.65970542E-14  
0.22413986       1.66853529E-14  
0.22419011       1.67737843E-14  
0.22424039       1.68623317E-14  
0.22429068       1.69509807E-14  
0.22434100       1.70398397E-14  
0.22439134       1.52334583E-14  
0.22444170       1.40898413E-14  
0.22449209       1.41597331E-14  
0.22454249       1.42296521E-14  
0.22459293       1.42995871E-14  
0.22464338       1.43695946E-14  
0.22469385       1.44397415E-14  
0.22474435       1.45099401E-14  
0.22479487       1.45801414E-14  
0.22484542       1.46503587E-14  
0.22489599       1.47205754E-14  
0.22494658       1.47907918E-14  
0.22499719       1.48609894E-14  
0.22504782       1.49311312E-14  
0.22509848       1.50011691E-14  
0.22514916       1.50712809E-14  
0.22519986       1.51416963E-14  
0.22525059       1.52121431E-14  
0.22530134       1.44035253E-14  
0.22535211       1.26252119E-14  
0.22540291       1.26811377E-14  
0.22545373       1.27370028E-14  
0.22550457       1.27927794E-14  
0.22555543       1.28484438E-14  
0.22560632       1.29041121E-14  
0.22565723       1.29597157E-14  
0.22570816       1.30152337E-14  
0.22575912       1.30706424E-14  
0.22581009       1.31259186E-14  
0.22586110       1.31809970E-14  
0.22591212       1.32357654E-14  
0.22596317       1.32900434E-14  
0.22601424       1.33443853E-14  
0.22606533       1.33999184E-14  
0.22611645       1.34558035E-14  
0.22616759       1.35111668E-14  
0.22621875       1.35661513E-14  
0.22626994       1.36208602E-14  
0.22632115       1.36753622E-14  
0.22637238       1.37296786E-14  
0.22642364       1.37838479E-14  
0.22647492       1.38378755E-14  
0.22652622       1.38917553E-14  
